Timestamp,Participant_11,Participant_12,Participant_13,Participant_14,Participant_15,Participant_16,Participant_17,Participant_18,Participant_22,Participant_23,Participant_24,Average
0.0,5.9,12.93,3.48,62.9,81.18,-42.7,-70.4,-79.61,41.46,-61.98,4.0,-3.8945454545454536
0.015625,4.32,19.23,-4.66,57.12,81.78,-42.62,-73.91,-66.62,36.36,-63.96,6.28,-4.243636363636365
0.03125,2.91,31.37,-15.59,50.88,84.45,-40.8,-76.21,-61.23,31.88,-68.56,9.79,-4.646363636363636
0.046875,1.76,46.97,-29.03,44.65,89.16,-37.12,-77.4,-62.27,28.1,-76.15,13.95,-5.216363636363639
0.0625,0.85,62.19,-43.52,38.87,95.33,-31.81,-78.03,-67.22,24.79,-86.51,18.19,-6.079090909090911
0.078125,0.06,73.55,-56.09,33.86,101.87,-25.42,-78.78,-73.46,21.57,-98.9,22.11,-7.23909090909091
0.09375,-0.84,79.42,-62.6,29.76,107.28,-18.87,-80.14,-78.94,18.03,-112.36,25.47,-8.526363636363635
0.109375,-2.1,80.42,-58.91,26.56,109.86,-13.14,-82.11,-82.18,13.97,-125.89,28.06,-9.587272727272728
0.125,-3.91,78.83,-42.65,24.13,108.04,-8.95,-84.42,-82.03,9.47,-138.67,29.76,-10.036363636363633
0.140625,-6.27,77.19,-14.66,22.34,100.78,-6.51,-86.66,-77.46,4.89,-150.02,30.43,-9.631818181818183
0.15625,-8.99,77.19,20.69,21.01,87.96,-5.56,-88.53,-67.65,0.63,-159.31,30.0,-8.414545454545454
0.171875,-11.77,79.3,56.79,19.95,70.58,-5.51,-89.9,-52.5,-3.03,-165.88,28.41,-6.68727272727273
0.1875,-14.29,82.95,87.22,18.92,50.6,-5.68,-90.71,-32.93,-6.16,-169.13,25.67,-4.867272727272724
0.203125,-16.41,87.13,108.04,17.63,30.56,-5.53,-90.82,-10.83,-9.19,-168.69,21.88,-3.293636363636364
0.21875,-18.13,90.8,118.85,15.8,12.93,-4.81,-89.98,11.23,-12.64,-164.68,17.19,-2.1309090909090918
0.234375,-19.66,93.11,122.13,13.22,-0.49,-3.8,-87.9,30.61,-16.94,-157.78,11.85,-1.4227272727272728
0.25,-21.26,93.47,121.41,9.83,-8.8,-2.88,-84.41,45.02,-22.12,-149.03,6.2,-1.1427272727272737
0.265625,-23.17,91.61,119.41,5.74,-12.12,-2.34,-79.6,52.87,-27.77,-139.52,0.57,-1.3018181818181844
0.28125,-25.5,87.58,117.21,1.23,-11.25,-2.07,-73.85,53.53,-33.25,-130.04,-4.74,-1.9227272727272726
0.296875,-28.2,81.73,114.59,-3.24,-7.36,-1.68,-67.73,47.4,-37.96,-120.85,-9.57,-2.988181818181819
0.3125,-31.01,74.56,111.06,-7.15,-1.57,-0.66,-61.88,35.87,-41.66,-111.81,-13.88,-4.375454545454549
0.328125,-33.47,66.52,106.7,-9.99,5.13,1.39,-56.8,21.05,-44.58,-102.65,-17.81,-5.864545454545456
0.34375,-34.98,57.95,102.26,-11.44,11.98,4.54,-52.74,5.39,-47.4,-93.19,-21.52,-7.1954545454545435
0.359375,-34.95,49.03,98.63,-11.48,18.42,8.49,-49.62,-8.72,-50.9,-83.42,-25.13,-8.15
0.375,-32.96,39.98,96.2,-10.41,23.98,12.4,-47.04,-19.39,-55.68,-73.43,-28.64,-8.635454545454547
0.390625,-28.88,31.06,94.54,-8.85,28.22,15.48,-44.39,-25.37,-61.8,-63.29,-31.96,-8.658181818181818
0.40625,-22.96,22.52,92.67,-7.5,30.87,17.31,-40.99,-26.2,-68.65,-52.91,-34.91,-8.25
0.421875,-15.78,14.4,89.59,-7.0,31.8,18.04,-36.4,-22.28,-74.95,-42.19,-37.38,-7.468181818181819
0.4375,-8.11,6.33,84.84,-7.76,31.07,18.18,-30.53,-14.88,-79.08,-31.21,-39.21,-6.396363636363637
0.453125,-0.79,-2.39,78.69,-9.87,28.94,18.23,-23.73,-5.99,-79.51,-20.25,-40.47,-5.194545454545456
0.46875,5.5,-12.49,72.09,-13.14,25.75,18.46,-16.67,2.16,-75.32,-9.84,-41.46,-4.087272727272727
0.484375,10.26,-24.16,66.11,-17.16,21.91,18.89,-10.12,7.65,-66.49,-0.54,-42.69,-3.3036363636363633
0.5,13.32,-36.79,61.49,-21.44,17.76,19.5,-4.68,9.58,-54.04,7.3,-44.33,-2.939090909090909
0.515625,14.77,-48.82,58.32,-25.56,13.61,19.49,-0.73,8.26,-39.71,13.65,-46.39,-3.01
0.53125,14.93,-58.21,55.93,-29.3,9.71,18.39,1.64,5.1,-25.41,18.8,-48.77,-3.380909090909091
0.546875,14.24,-63.04,53.24,-32.74,6.26,16.48,2.58,1.86,-12.73,23.21,-51.3,-3.812727272727272
0.5625,13.07,-62.21,49.12,-36.23,3.35,14.7,2.31,-0.03,-2.49,27.26,-53.75,-4.081818181818181
0.578125,11.69,-55.67,43.0,-40.26,1.05,14.0,1.11,0.13,5.28,31.15,-55.68,-4.0181818181818185
0.59375,10.19,-44.41,35.06,-45.19,-0.73,14.74,-0.73,2.16,11.13,34.9,-56.72,-3.5999999999999996
0.609375,8.55,-29.97,26.14,-51.12,-2.16,16.74,-2.88,5.38,15.78,38.46,-56.68,-2.8872727272727263
0.625,6.71,-13.97,17.42,-57.77,-3.49,19.52,-4.95,8.95,19.82,41.91,-55.68,-1.9572727272727273
0.640625,4.67,2.23,9.91,-64.49,-5.0,22.85,-6.59,12.1,23.51,45.44,-53.79,-0.8327272727272731
0.65625,2.52,17.66,3.96,-70.43,-6.91,24.94,-7.55,14.22,26.89,49.33,-51.24,0.30818181818181695
0.671875,0.4,31.61,-0.73,-74.74,-9.43,24.54,-7.84,14.91,29.89,53.67,-48.47,1.2554545454545456
0.6875,-1.59,43.53,-4.97,-76.75,-12.63,21.61,-7.76,14.03,32.47,58.34,-46.1,1.8345454545454545
0.703125,-3.41,52.9,-9.6,-76.11,-16.46,17.45,-7.82,11.75,34.6,63.02,-44.77,1.9590909090909094
0.71875,-5.13,59.35,-15.08,-72.95,-20.68,13.71,-8.54,8.57,36.25,67.44,-44.49,1.6772727272727268
0.734375,-6.82,62.79,-21.33,-67.86,-24.87,11.41,-10.18,5.17,37.35,71.52,-45.32,1.0781818181818181
0.75,-8.52,63.43,-27.85,-61.9,-28.49,10.89,-12.56,2.11,37.77,75.46,-47.53,0.255454545454545
0.765625,-10.21,61.83,-34.0,-56.38,-30.95,11.99,-15.22,-0.49,37.46,79.46,-51.61,-0.7381818181818193
0.78125,-11.78,58.69,-39.32,-52.46,-31.85,14.62,-17.57,-3.05,36.51,83.4,-57.43,-1.8400000000000007
0.796875,-13.1,54.71,-43.71,-50.71,-31.09,15.64,-19.27,-6.37,35.19,86.7,-64.65,-3.332727272727274
0.8125,-14.1,50.46,-47.35,-50.87,-29.01,12.29,-20.36,-11.24,33.84,88.37,-72.89,-5.532727272727272
0.828125,-14.74,46.38,-50.53,-51.82,-26.2,3.42,-21.22,-17.96,32.76,87.56,-81.76,-8.555454545454545
0.84375,-15.03,42.75,-53.51,-52.0,-23.37,-9.77,-22.33,-26.11,32.01,84.04,-90.84,-12.196363636363639
0.859375,-15.02,39.74,-56.35,-49.85,-21.01,-25.0,-23.92,-34.58,31.43,78.45,-98.49,-15.872727272727273
0.875,-14.71,37.38,-58.88,-44.38,-19.25,-40.23,-25.85,-42.06,30.64,72.1,-103.99,-19.020909090909086
0.890625,-14.05,35.59,-60.83,-35.51,-17.91,-54.06,-27.7,-47.51,29.25,66.45,-107.89,-21.28818181818182
0.90625,-12.93,34.19,-61.83,-24.08,-16.66,-66.06,-29.01,-50.5,27.0,62.48,-112.02,-22.674545454545456
0.921875,-11.19,33.0,-61.49,-11.51,-15.25,-75.99,-29.44,-51.27,23.88,60.37,-116.55,-23.221818181818183
0.9375,-8.67,31.98,-59.42,0.69,-13.63,-88.21,-28.94,-50.4,20.19,59.49,-120.78,-23.427272727272733
0.953125,-5.36,31.24,-55.36,11.5,-11.97,-106.98,-27.68,-48.34,16.46,58.91,-123.64,-23.74727272727273
0.96875,-1.49,31.16,-49.24,20.79,-10.54,-134.82,-25.83,-45.17,13.22,57.68,-124.17,-24.40090909090909
0.984375,2.52,32.2,-41.31,29.6,-9.47,-170.66,-23.46,-40.64,10.87,55.22,-121.66,-25.16272727272727
1.0,6.13,34.8,-32.09,39.79,-8.7,-211.16,-20.44,-34.37,9.46,51.19,-113.29,-25.33454545454545
1.015625,9.06,39.2,-22.22,53.35,-7.97,-252.34,-16.51,-26.19,8.75,45.39,-98.28,-24.34181818181818
1.03125,11.42,45.33,-12.22,71.6,-6.88,-290.44,-11.37,-16.23,8.21,37.56,-78.26,-21.934545454545457
1.046875,13.84,52.86,-2.21,94.59,-5.12,-322.88,-4.81,-4.81,7.39,27.36,-57.08,-18.26090909090909
1.0625,17.27,61.17,8.16,121.18,-2.53,-325.91,3.34,7.76,6.19,14.57,-34.84,-11.239999999999998
1.078125,22.67,69.51,19.55,149.47,0.9,-285.72,13.41,21.36,5.02,-0.71,-9.95,0.5009090909090888
1.09375,30.78,77.11,32.6,177.16,5.09,-206.38,25.95,36.02,4.82,-17.86,19.35,16.78545454545454
1.109375,41.86,83.36,47.52,202.15,10.02,-110.19,41.82,51.78,6.67,-35.79,53.84,35.73090909090909
1.125,55.73,87.92,63.86,222.97,15.77,-21.22,61.85,68.62,11.31,-53.16,93.31,55.17818181818182
1.140625,71.84,90.74,80.61,238.99,22.42,47.22,86.4,86.37,18.85,-68.74,140.65,74.12272727272727
1.15625,89.35,92.05,96.6,250.57,29.96,93.4,114.81,104.87,28.56,-81.73,195.73,92.19727272727272
1.171875,107.17,92.12,110.93,258.8,38.08,122.16,145.33,123.86,39.13,-92.01,254.98,109.1409090909091
1.1875,124.05,90.91,123.31,265.3,46.18,136.65,175.42,142.98,49.11,-100.15,311.51,124.11545454545453
1.203125,138.62,87.9,134.05,272.15,53.49,144.48,202.47,161.53,57.3,-107.32,364.16,137.16636363636366
1.21875,149.58,82.08,143.8,281.22,59.29,146.62,224.41,178.38,63.06,-114.98,414.02,147.9527272727273
1.234375,155.86,72.21,153.13,293.15,63.25,141.27,239.9,192.12,66.19,-124.6,461.99,155.8609090909091
1.25,156.64,57.3,162.22,306.91,65.38,125.85,248.1,201.41,66.71,-137.34,507.5,160.06181818181818
1.265625,151.32,36.93,170.75,320.11,65.97,99.9,248.28,205.13,64.61,-153.85,548.83,159.81636363636363
1.28125,139.49,11.17,178.04,329.72,65.15,64.11,239.7,202.55,59.72,-174.28,588.5,154.8972727272727
1.296875,121.06,-19.57,183.11,333.1,62.54,18.58,222.14,193.28,51.71,-198.35,625.06,144.78727272727272
1.3125,96.56,-54.77,184.91,328.4,57.1,-33.65,196.69,177.44,40.26,-225.33,652.29,129.08181818181814
1.328125,67.37,-93.55,182.29,314.82,47.15,-91.37,166.2,155.73,25.18,-253.94,659.18,107.18727272727273
1.34375,35.88,-134.26,174.17,292.99,30.83,-152.61,134.84,129.42,6.46,-282.25,642.29,79.79636363636362
1.359375,4.97,-174.01,159.71,264.72,6.57,-216.53,106.77,99.97,-15.57,-307.92,602.09,48.25181818181819
1.375,-22.53,-208.82,138.59,232.03,-26.14,-267.62,84.56,68.42,-40.05,-328.8,540.93,15.506363636363636
1.390625,-44.53,-234.46,111.28,196.58,-66.32,-288.98,68.23,35.07,-65.39,-343.66,462.14,-15.458181818181826
1.40625,-60.15,-247.75,78.98,159.65,-111.29,-270.22,55.68,-0.35,-89.19,-352.85,338.5,-45.36272727272728
1.421875,-69.69,-247.47,43.45,121.82,-157.01,-214.72,44.1,-37.81,-108.67,-358.23,171.81,-73.85636363636362
1.4375,-74.37,-234.43,6.56,82.92,-198.92,-137.13,31.48,-75.96,-121.33,-362.4,-9.3,-99.35272727272726
1.453125,-75.88,-210.91,-30.03,41.49,-233.17,-54.97,17.58,-111.74,-125.8,-367.57,-150.53,-118.32090909090907
1.46875,-76.01,-179.77,-64.99,-4.68,-257.55,17.58,3.55,-141.13,-122.44,-374.73,-248.16,-131.66636363636366
1.484375,-76.34,-144.08,-97.16,-56.55,-271.96,71.02,-9.17,-160.75,-113.15,-383.44,-311.23,-141.16454545454545
1.5,-77.93,-107.1,-125.15,-112.44,-278.05,106.92,-19.88,-169.41,-100.74,-392.47,-350.47,-147.88363636363636
1.515625,-81.1,-72.5,-147.18,-168.17,-278.31,127.64,-29.05,-168.74,-87.82,-400.7,-371.76,-152.51727272727274
1.53125,-85.33,-44.01,-161.25,-218.28,-275.01,134.52,-37.81,-162.27,-76.01,-407.55,-379.83,-155.7118181818182
1.546875,-89.48,-24.42,-165.92,-257.8,-269.66,129.65,-47.16,-153.71,-65.73,-412.68,-378.44,-157.75909090909093
1.5625,-92.1,-14.55,-161.07,-284.84,-262.91,116.2,-57.27,-145.42,-56.5,-415.33,-365.34,-158.10272727272726
1.578125,-92.04,-12.57,-148.46,-298.98,-255.0,98.55,-67.52,-137.79,-47.68,-413.81,-341.35,-156.0590909090909
1.59375,-88.86,-14.71,-131.51,-301.05,-246.21,80.64,-76.94,-130.02,-38.98,-405.85,-311.8,-151.39
1.609375,-82.92,-16.7,-114.26,-296.05,-237.06,66.55,-84.83,-121.39,-30.59,-389.66,-286.65,-144.86909090909091
1.625,-75.26,-15.54,-100.07,-290.12,-228.09,59.36,-91.07,-112.21,-23.01,-364.94,-268.19,-137.19454545454548
1.640625,-67.16,-10.37,-90.63,-285.54,-219.59,59.38,-95.96,-103.8,-16.56,-333.27,-254.78,-128.93454545454546
1.65625,-59.78,-2.2,-85.82,-280.42,-211.34,64.13,-99.91,-97.67,-11.21,-297.5,-243.46,-120.4709090909091
1.671875,-53.96,7.15,-84.3,-272.03,-202.83,69.47,-103.1,-94.59,-6.6,-260.49,-232.03,-112.11909090909093
1.6875,-50.05,16.29,-84.59,-259.43,-193.5,72.15,-105.38,-94.06,-2.26,-224.18,-219.33,-104.03090909090908
1.703125,-48.05,24.82,-85.79,-244.41,-183.22,70.68,-106.38,-94.52,2.06,-189.27,-201.54,-95.96545454545453
1.71875,-47.66,33.11,-87.84,-229.56,-172.42,65.76,-105.82,-94.21,6.33,-155.78,-178.5,-87.87181818181817
1.734375,-48.4,41.68,-91.16,-216.69,-162.02,59.49,-103.65,-92.03,10.27,-123.85,-153.94,-80.02727272727275
1.75,-49.67,50.7,-96.08,-206.03,-153.18,54.11,-100.14,-87.99,13.57,-94.31,-134.94,-73.08727272727273
1.765625,-50.94,59.86,-102.3,-195.96,-146.89,51.32,-95.8,-83.1,16.07,-68.48,-122.44,-67.15090909090908
1.78125,-51.81,68.67,-108.79,-184.31,-143.68,51.66,-91.26,-78.7,17.88,-47.5,-114.62,-62.041818181818186
1.796875,-52.12,76.9,-113.87,-170.12,-143.51,54.06,-87.07,-75.76,19.29,-31.62,-109.33,-57.559090909090905
1.8125,-51.94,84.61,-115.57,-155.61,-145.7,56.4,-83.5,-74.5,20.6,-19.96,-105.32,-53.68090909090908
1.828125,-51.54,92.09,-112.16,-141.81,-148.97,56.95,-80.57,-74.39,21.99,-10.78,-101.97,-50.10545454545454
1.84375,-51.26,99.43,-102.65,-130.24,-151.65,54.82,-78.01,-74.5,23.37,-2.21,-96.46,-46.305454545454545
1.859375,-51.42,106.36,-87.17,-121.56,-151.99,50.22,-75.41,-74.02,24.37,7.16,-87.67,-41.92090909090909
1.875,-52.21,112.5,-67.04,-115.44,-148.41,44.21,-72.39,-72.58,24.54,18.01,-76.73,-36.86727272727273
1.890625,-53.56,117.8,-44.46,-110.81,-139.96,38.03,-68.77,-70.33,23.59,30.25,-67.1,-31.392727272727278
1.90625,-55.21,122.75,-21.82,-105.86,-126.44,32.63,-64.72,-67.71,21.53,43.32,-59.05,-25.50727272727273
1.921875,-56.82,128.19,-0.96,-98.52,-108.51,28.66,-60.64,-65.22,18.73,56.39,-51.7,-19.127272727272725
1.9375,-58.13,134.49,17.18,-87.7,-87.43,25.92,-57.08,-63.23,15.76,68.57,-44.22,-12.351818181818182
1.953125,-59.08,140.77,32.57,-73.72,-64.77,23.67,-54.43,-61.92,13.13,79.03,-36.5,-5.568181818181816
1.96875,-59.94,144.83,45.54,-57.71,-42.03,21.2,-52.81,-61.37,11.06,87.13,-28.76,0.6490909090909082
1.984375,-61.14,143.73,56.34,-41.43,-20.33,18.03,-51.94,-61.66,9.41,92.44,-20.18,5.751818181818182
2.0,-63.19,135.19,64.99,-26.17,-0.46,14.14,-51.33,-62.89,7.78,94.83,-10.78,9.282727272727273
2.015625,-66.4,118.73,71.41,-12.59,17.17,9.81,-50.52,-65.11,5.76,94.49,-1.61,11.012727272727274
2.03125,-70.68,96.01,75.73,-0.65,32.29,5.37,-49.26,-68.1,3.2,91.84,5.25,11.000000000000002
2.046875,-75.42,70.17,78.38,9.31,44.66,0.99,-47.67,-71.25,0.26,87.53,9.56,9.683636363636364
2.0625,-79.49,44.42,80.04,17.35,54.1,-3.25,-46.18,-73.54,-2.71,82.37,11.87,7.725454545454547
2.078125,-81.53,20.83,81.29,23.52,60.58,-7.59,-45.3,-73.83,-5.38,77.24,12.89,5.701818181818182
2.09375,-80.3,-0.1,82.38,27.7,64.34,-12.28,-45.37,-71.28,-7.67,73.05,13.12,3.9627272727272724
2.109375,-75.14,-19.04,83.22,29.92,65.98,-17.31,-46.41,-65.69,-9.76,70.59,12.92,2.6618181818181825
2.125,-66.23,-36.91,83.6,30.1,66.3,-22.41,-48.08,-57.64,-12.01,70.43,12.9,1.8227272727272725
2.140625,-54.6,-54.14,83.36,28.49,66.14,-26.95,-49.83,-48.3,-14.73,72.75,13.33,1.4109090909090893
2.15625,-41.79,-70.55,82.61,25.48,66.13,-30.16,-51.01,-38.99,-18.0,77.37,14.0,1.371818181818182
2.171875,-29.35,-85.58,81.69,21.46,66.54,-31.36,-51.19,-30.6,-21.69,83.75,14.29,1.6327272727272741
2.1875,-18.38,-98.69,81.07,16.96,67.27,-30.19,-50.15,-23.42,-25.44,91.11,14.1,2.203636363636365
2.203125,-9.26,-109.55,81.17,12.68,68.03,-26.7,-47.91,-17.13,-28.95,98.58,13.54,3.136363636363636
2.21875,-1.77,-117.85,82.19,9.23,68.57,-21.42,-44.69,-11.18,-32.1,105.26,12.77,4.455454545454546
2.234375,4.6,-123.11,84.1,6.95,68.86,-15.15,-40.78,-5.11,-34.99,110.3,11.88,6.14090909090909
2.25,10.25,-124.66,86.54,6.06,69.04,-8.72,-36.5,1.12,-37.98,112.87,10.94,8.08727272727273
2.265625,15.28,-122.0,89.06,6.48,69.35,-2.87,-32.13,7.22,-41.56,112.15,10.07,10.095454545454544
2.28125,19.53,-115.47,91.14,8.09,69.87,1.91,-27.96,12.71,-46.19,107.53,9.39,11.868181818181819
2.296875,22.74,-106.56,92.53,10.68,70.39,5.53,-24.23,17.23,-52.14,98.89,8.91,13.088181818181818
2.3125,24.93,-97.75,93.3,13.97,70.44,8.22,-21.11,20.69,-59.29,86.91,8.61,13.538181818181819
2.328125,26.33,-91.58,93.92,17.6,69.44,10.38,-18.67,23.28,-67.0,73.28,8.31,13.208181818181817
2.34375,27.43,-89.48,95.04,21.32,66.94,12.24,-16.92,25.34,-74.08,60.47,7.87,12.37909090909091
2.359375,28.62,-90.79,97.2,24.82,62.83,13.73,-15.86,27.17,-78.92,51.2,7.13,11.55727272727273
2.375,30.07,-92.95,100.62,27.75,57.48,14.47,-15.56,28.87,-79.97,47.6,6.07,11.313636363636363
2.390625,31.68,-92.42,105.04,29.87,51.53,14.12,-16.25,30.27,-76.13,50.5,4.78,12.089999999999998
2.40625,33.17,-86.45,109.97,31.01,45.66,12.64,-18.23,31.03,-67.28,59.17,3.45,14.012727272727272
2.421875,34.28,-74.34,114.92,31.16,40.36,10.56,-21.67,30.71,-54.38,71.59,2.25,16.85818181818182
2.4375,34.94,-57.78,119.75,30.42,35.64,8.82,-26.33,28.85,-39.27,85.29,1.26,20.14454545454545
2.453125,35.26,-40.05,124.74,28.95,31.22,8.35,-31.35,25.09,-24.12,98.09,0.46,23.33090909090909
2.46875,35.45,-24.49,130.41,26.91,26.64,9.6,-35.54,19.2,-10.76,108.83,-0.31,25.994545454545456
2.484375,35.7,-13.21,137.25,24.52,21.57,12.3,-37.79,11.26,-0.19,117.38,-1.21,27.961818181818185
2.5,36.08,-6.49,145.48,21.91,16.02,15.67,-37.78,1.74,7.55,124.36,-2.32,29.292727272727276
2.515625,36.44,-3.2,154.92,19.18,10.28,18.8,-36.54,-8.52,13.12,130.39,-3.54,30.120909090909084
2.53125,36.53,-1.79,165.18,16.3,4.78,21.16,-36.13,-18.47,17.45,135.56,-4.58,30.54454545454546
2.546875,36.03,-1.22,175.86,13.15,-0.14,22.77,-38.62,-27.25,21.28,139.32,-5.05,30.55727272727273
2.5625,34.74,-1.28,186.57,9.67,-4.44,23.97,-44.77,-34.5,24.99,140.77,-4.49,30.111818181818183
2.578125,32.6,-2.38,197.09,5.91,-8.42,25.11,-53.13,-40.41,28.6,139.31,-2.53,29.25
2.59375,29.77,-4.99,207.17,2.1,-12.6,26.19,-60.28,-45.39,31.96,135.23,1.06,28.20181818181818
2.609375,26.55,-9.21,216.46,-1.5,-17.58,26.92,-62.37,-49.62,34.94,129.81,6.3,27.33636363636364
2.625,23.21,-14.58,224.39,-4.62,-23.85,26.86,-57.08,-52.83,37.48,124.84,12.98,26.981818181818177
2.640625,19.99,-20.25,230.06,-7.21,-31.74,25.87,-44.8,-54.34,39.53,121.8,20.64,27.231818181818184
2.65625,16.99,-25.17,232.23,-9.46,-41.24,24.17,-28.41,-53.67,41.04,121.18,28.64,27.84545454545454
2.671875,14.16,-28.24,229.55,-11.63,-51.96,22.24,-11.75,-50.91,41.96,122.31,36.32,28.36818181818182
2.6875,11.41,-28.43,220.96,-13.96,-62.98,20.63,1.92,-46.86,42.27,123.87,43.12,28.359090909090913
2.703125,8.63,-24.94,206.18,-16.5,-72.74,19.59,10.72,-42.71,42.08,124.6,48.74,27.604545454545452
2.71875,5.72,-17.39,186.03,-19.21,-79.31,19.11,13.79,-39.45,41.65,123.93,53.13,26.181818181818183
2.734375,2.56,-6.08,162.45,-21.94,-80.82,18.81,10.54,-37.46,41.26,121.87,56.41,24.327272727272728
2.75,-0.93,7.81,137.83,-24.6,-76.02,18.31,0.54,-36.64,41.12,118.73,58.68,22.25727272727273
2.765625,-4.79,22.31,114.11,-27.22,-64.79,17.35,-15.85,-36.86,41.21,114.55,59.94,19.996363636363636
2.78125,-8.98,35.07,91.92,-29.91,-48.23,15.93,-36.46,-38.31,41.33,109.09,60.11,17.414545454545454
2.796875,-13.39,44.02,70.16,-32.77,-28.3,14.27,-57.05,-41.63,41.13,102.1,59.12,14.332727272727272
2.8125,-17.87,47.94,46.38,-35.9,-7.21,12.68,-72.69,-47.62,40.32,93.89,57.11,10.639090909090909
2.828125,-22.31,46.89,17.77,-39.34,13.24,11.43,-80.1,-56.62,38.79,85.31,54.54,6.327272727272727
2.84375,-26.77,42.06,-17.61,-43.18,31.95,10.65,-79.64,-68.19,36.58,77.35,52.15,1.3954545454545455
2.859375,-31.45,35.32,-59.78,-47.59,48.44,10.27,-75.34,-81.1,33.9,70.41,50.75,-4.197272727272729
2.875,-36.66,28.52,-106.58,-52.73,62.56,10.09,-72.85,-93.65,30.98,63.72,50.9,-10.518181818181814
2.890625,-42.71,22.87,-154.0,-58.66,74.24,9.88,-76.37,-104.18,27.98,55.54,52.8,-17.51
2.90625,-49.65,18.73,-197.14,-65.12,83.28,9.39,-86.3,-111.41,25.01,43.94,56.15,-24.829090909090908
2.921875,-57.14,15.6,-231.21,-71.39,89.61,8.43,-98.92,-114.6,22.1,27.9,60.37,-31.75
2.9375,-64.31,12.58,-252.62,-76.33,93.44,6.94,-108.36,-113.56,19.19,8.02,64.82,-37.290000000000006
2.953125,-69.87,8.77,-259.78,-78.56,95.35,4.99,-109.46,-108.62,16.27,-13.59,69.06,-40.49454545454545
2.96875,-72.41,3.57,-253.65,-76.9,96.13,2.78,-100.42,-100.51,13.3,-34.12,73.0,-40.8390909090909
2.984375,-70.82,-3.18,-237.89,-70.7,96.59,0.55,-83.58,-90.22,10.29,-51.23,76.79,-38.49090909090909
3.0,-64.75,-11.3,-218.05,-60.1,97.3,-1.49,-64.39,-78.76,7.32,-63.92,80.81,-34.30272727272728
3.015625,-54.73,-20.37,-200.29,-46.0,98.52,-3.28,-49.4,-66.96,4.49,-72.73,85.42,-29.575454545454544
3.03125,-42.03,-29.77,-189.48,-29.8,100.34,-4.96,-43.72,-55.33,1.92,-79.44,90.75,-25.59272727272727
3.046875,-28.3,-38.77,-187.65,-13.01,102.81,-6.76,-49.26,-43.99,-0.36,-86.22,96.54,-23.179090909090906
3.0625,-15.07,-46.53,-193.58,3.08,106.03,-8.92,-64.26,-32.84,-2.43,-94.93,101.96,-22.499090909090913
3.078125,-3.41,-52.28,-203.97,17.51,110.09,-11.54,-84.01,-21.67,-4.5,-106.54,105.72,-23.145454545454545
3.09375,6.24,-55.51,-215.51,29.67,114.82,-14.47,-102.4,-10.43,-6.8,-120.78,106.22,-24.449999999999992
3.109375,13.97,-56.26,-226.94,39.14,119.71,-17.4,-113.95,0.69,-9.49,-136.19,101.97,-25.886363636363637
3.125,20.21,-55.21,-239.48,45.72,123.93,-20.0,-115.21,11.23,-12.58,-150.24,92.2,-27.220909090909092
3.140625,25.52,-53.58,-255.7,49.33,126.58,-22.09,-105.54,20.57,-15.88,-159.86,77.16,-28.49909090909091
3.15625,30.39,-52.8,-277.18,50.15,127.12,-23.8,-86.87,28.2,-19.16,-162.05,58.37,-29.784545454545455
3.171875,35.09,-53.91,-302.88,48.67,125.59,-25.56,-62.87,33.87,-22.23,-154.75,38.3,-30.970909090909085
3.1875,39.57,-57.19,-329.01,45.58,122.74,-27.9,-37.73,37.68,-25.1,-137.51,19.86,-31.728181818181817
3.203125,43.55,-61.89,-350.78,41.69,119.7,-31.26,-15.15,39.97,-27.98,-111.74,5.7,-31.65363636363636
3.21875,46.72,-66.58,-364.83,37.8,117.59,-35.72,2.35,41.08,-31.29,-80.37,-2.53,-30.525454545454544
3.234375,48.77,-69.65,-370.74,34.55,117.11,-40.98,13.66,41.2,-35.37,-47.05,-4.46,-28.45090909090909
3.25,49.68,-70.08,-370.89,32.38,118.38,-46.32,19.03,40.34,-40.44,-15.08,-1.05,-25.822727272727267
3.265625,49.65,-67.81,-368.88,31.51,121.0,-50.78,19.81,38.57,-46.32,13.45,5.74,-23.09636363636364
3.28125,49.06,-63.85,-367.41,31.93,124.41,-53.41,17.89,36.25,-52.41,38.01,13.59,-20.540000000000006
3.296875,48.3,-59.8,-366.94,33.51,128.07,-53.42,15.24,34.16,-57.65,59.4,20.5,-18.05727272727273
3.3125,47.72,-57.3,-365.67,36.03,131.66,-50.39,13.57,33.36,-60.73,79.24,25.27,-15.203636363636361
3.328125,47.55,-57.41,-360.56,39.2,135.17,-44.36,14.02,34.75,-60.42,99.16,27.79,-11.37363636363637
3.34375,47.89,-60.29,-348.88,42.74,138.87,-35.86,17.05,38.73,-55.95,120.1,28.89,-6.064545454545449
3.359375,48.78,-65.17,-329.34,46.36,143.42,-25.89,22.45,44.87,-47.35,142.06,29.95,0.9218181818181841
3.375,50.14,-70.54,-302.49,49.71,149.7,-15.63,29.42,52.13,-35.59,164.01,32.2,9.369090909090907
3.390625,51.77,-74.5,-270.49,52.41,158.53,-6.29,36.84,59.19,-22.29,184.35,36.16,18.69818181818182
3.40625,53.3,-75.14,-236.29,54.15,170.05,1.25,43.47,64.9,-9.28,201.4,41.33,28.10363636363637
3.421875,54.29,-70.9,-202.82,54.66,183.17,6.6,48.31,68.64,1.95,213.95,46.34,36.74454545454545
3.4375,54.34,-60.98,-172.22,53.89,195.28,9.89,50.87,70.32,10.59,221.55,49.44,43.906363636363636
3.453125,53.31,-45.63,-145.63,51.98,202.56,11.67,51.35,70.29,16.65,224.44,49.18,49.10636363636363
3.46875,51.35,-26.2,-123.34,49.23,200.93,12.63,50.56,68.99,20.68,223.36,44.97,52.105454545454556
3.484375,48.87,-4.85,-105.21,46.03,187.38,13.39,49.5,66.77,23.4,219.09,37.26,52.875454545454545
3.5,46.39,16.05,-90.84,42.71,161.17,14.29,48.97,63.8,25.39,212.26,27.42,51.600909090909084
3.515625,44.26,34.63,-79.41,39.45,124.42,15.44,49.15,60.1,26.92,203.3,17.36,48.692727272727275
3.53125,42.6,50.0,-69.35,36.24,81.82,16.66,49.55,55.68,28.01,192.64,9.07,44.810909090909085
3.546875,41.26,62.13,-58.18,32.98,39.5,17.78,49.2,50.6,28.65,180.81,4.05,40.798181818181824
3.5625,39.94,71.46,-42.9,29.51,3.51,18.66,47.13,44.89,28.9,168.51,2.95,37.50545454545455
3.578125,38.35,78.26,-21.0,25.72,-21.68,19.34,42.87,38.54,28.98,156.45,5.19,35.54727272727273
3.59375,36.3,82.32,8.46,21.64,-34.14,19.97,36.68,31.39,29.2,145.13,8.99,35.085454545454546
3.609375,33.69,83.09,44.08,17.4,-34.72,20.74,29.48,23.31,29.85,134.71,11.59,35.74727272727272
3.625,30.56,80.22,82.4,13.21,-26.48,21.78,22.53,14.38,31.03,125.04,9.91,36.78
3.640625,27.01,73.95,118.99,9.22,-13.73,23.07,16.83,5.17,32.65,115.76,1.43,37.304545454545455
3.65625,23.18,65.3,149.89,5.52,-0.86,24.5,12.76,-3.26,34.49,106.55,-15.18,36.626363636363635
3.671875,19.28,55.68,172.82,2.03,8.55,25.91,9.95,-9.53,36.29,97.23,-39.77,34.403636363636366
3.6875,15.48,46.34,187.65,-1.34,12.34,27.2,7.43,-12.45,37.79,87.82,-71.0,30.66
3.703125,11.89,38.0,196.04,-4.71,9.75,28.3,4.07,-11.45,38.82,78.43,-107.11,25.639090909090907
3.71875,8.52,30.8,200.47,-8.14,1.18,29.17,-1.04,-6.83,39.29,69.26,-146.6,19.64363636363636
3.734375,5.21,24.58,203.21,-11.59,-12.11,29.72,-8.31,0.35,39.16,60.39,-188.77,12.894545454545455
3.75,1.69,19.32,205.66,-15.01,-28.34,29.82,-17.62,8.71,38.47,51.88,-233.45,5.557272727272727
3.765625,-2.28,15.21,208.05,-18.29,-45.52,29.35,-28.32,17.0,37.32,43.68,-280.35,-2.1954545454545484
3.78125,-6.83,12.62,209.81,-21.42,-61.85,28.23,-39.44,24.44,35.85,35.75,-328.16,-10.090909090909095
3.796875,-11.95,11.71,210.06,-24.48,-76.18,26.57,-49.83,30.8,34.23,27.99,-374.02,-17.736363636363635
3.8125,-17.44,12.32,208.19,-27.71,-88.34,24.63,-58.24,36.15,32.59,20.35,-413.64,-24.64909090909091
3.828125,-22.97,13.95,204.09,-31.52,-99.15,22.76,-63.56,40.61,30.98,12.65,-442.15,-30.39181818181818
3.84375,-28.16,16.06,198.18,-36.32,-109.88,21.21,-64.97,44.2,29.37,4.64,-455.36,-34.6390909090909
3.859375,-32.74,18.33,191.15,-42.34,-121.48,20.07,-62.17,46.74,27.69,-4.04,-450.97,-37.2509090909091
3.875,-36.61,20.76,183.7,-49.32,-133.83,19.2,-55.45,48.04,25.92,-13.67,-429.06,-38.21090909090909
3.890625,-39.91,23.6,176.34,-56.47,-145.62,18.3,-45.62,48.05,24.14,-24.16,-391.94,-37.57181818181818
3.90625,-43.04,27.11,169.3,-62.57,-154.81,17.08,-33.82,47.02,22.56,-34.81,-343.31,-35.39
3.921875,-46.59,31.38,162.57,-66.18,-159.63,15.4,-21.17,45.5,21.39,-44.27,-287.31,-31.719090909090912
3.9375,-51.05,36.22,156.03,-66.15,-159.36,13.3,-8.62,44.21,20.79,-50.85,-227.75,-26.65727272727273
3.953125,-56.63,41.27,149.49,-61.83,-154.66,11.02,3.17,43.77,20.73,-53.03,-167.78,-20.407272727272723
3.96875,-62.98,46.11,142.74,-53.19,-147.15,8.88,13.84,44.45,21.01,-49.98,-109.76,-13.275454545454545
3.984375,-69.07,50.4,135.65,-40.8,-138.59,7.15,23.18,46.06,21.33,-41.99,-55.28,-5.632727272727272
4.0,-73.37,53.8,128.2,-25.65,-130.22,5.94,31.07,48.03,21.38,-30.34,-5.33,2.1372727272727237
4.015625,-74.23,55.97,120.46,-8.97,-122.48,5.17,37.51,49.71,21.0,-16.92,39.55,9.706363636363635
4.03125,-70.44,56.54,112.55,7.87,-115.3,4.62,42.56,50.61,20.25,-3.67,79.03,16.783636363636365
4.046875,-61.68,55.17,104.52,23.56,-108.62,3.96,46.36,50.59,19.36,7.96,112.68,23.078181818181818
4.0625,-48.74,51.83,96.26,37.05,-102.58,2.86,49.09,49.82,18.68,17.34,139.81,28.310909090909092
4.078125,-33.22,46.95,87.47,47.67,-97.51,1.14,50.98,48.54,18.6,24.53,159.62,32.25181818181818
4.09375,-17.09,41.46,77.91,55.25,-93.55,-1.27,52.24,46.81,19.48,30.06,171.56,34.805454545454545
4.109375,-1.97,36.63,67.49,60.02,-90.48,-4.23,53.06,44.46,21.49,34.49,175.73,36.06272727272727
4.125,11.14,33.73,56.42,62.4,-87.64,-7.5,53.58,41.23,24.48,38.14,173.06,36.27636363636364
4.140625,22.06,33.61,45.23,62.79,-84.33,-10.81,53.87,36.96,27.8,41.05,165.17,35.76363636363636
4.15625,31.12,36.46,34.5,61.53,-80.14,-14.01,53.99,31.86,30.29,43.04,154.03,34.78818181818181
4.171875,38.9,41.79,24.59,58.87,-75.27,-17.08,53.94,26.39,30.58,44.01,141.51,33.47545454545454
4.1875,45.85,48.56,15.44,55.16,-70.46,-20.14,53.73,21.13,27.5,44.12,129.2,31.826363636363634
4.203125,52.18,55.41,6.64,50.91,-66.56,-23.39,53.36,16.47,20.62,43.81,118.29,29.794545454545457
4.21875,57.81,60.88,-2.39,46.76,-64.27,-27.07,52.73,12.4,10.46,43.63,109.66,27.327272727272728
4.234375,62.51,63.69,-12.07,43.32,-63.73,-31.28,51.68,8.49,-1.64,44.0,103.81,24.434545454545454
4.25,66.02,62.99,-22.41,41.05,-64.52,-35.92,49.94,4.08,-14.08,44.94,100.81,21.172727272727272
4.265625,68.19,58.67,-33.05,40.14,-65.91,-40.62,47.33,-1.5,-25.65,46.05,100.14,17.617272727272724
4.28125,69.04,51.56,-43.43,40.51,-67.17,-44.7,43.74,-8.66,-35.97,46.69,100.74,13.85
4.296875,68.76,43.38,-53.08,41.9,-67.88,-47.32,39.28,-17.3,-45.47,46.32,101.25,9.985454545454548
4.3125,67.64,36.43,-61.77,43.96,-68.11,-47.67,34.22,-26.72,-54.9,44.66,100.32,6.187272727272725
4.328125,66.05,32.95,-69.54,46.35,-68.35,-45.2,28.89,-35.67,-64.78,41.86,97.13,2.6990909090909088
4.34375,64.32,34.42,-76.66,48.76,-69.36,-39.81,23.59,-42.58,-74.91,38.32,91.58,-0.21181818181818166
4.359375,62.77,40.99,-83.48,50.89,-71.94,-31.98,18.38,-45.98,-84.41,34.44,84.21,-2.3736363636363635
4.375,61.65,51.29,-90.49,52.46,-76.72,-22.63,13.13,-44.96,-91.99,30.51,75.91,-3.803636363636363
4.390625,61.13,62.73,-98.16,53.23,-83.93,-12.92,7.52,-39.47,-96.57,26.56,67.36,-4.774545454545454
4.40625,61.29,72.25,-106.83,52.99,-93.16,-3.99,1.14,-30.37,-97.55,22.49,58.7,-5.730909090909093
4.421875,62.01,77.23,-116.23,51.64,-103.23,3.36,-6.39,-19.06,-94.98,18.13,49.58,-7.085454545454547
4.4375,62.98,76.43,-125.14,49.25,-112.22,8.78,-15.25,-7.04,-89.36,13.33,39.41,-8.984545454545453
4.453125,63.74,70.35,-131.35,46.03,-117.76,12.4,-25.3,4.53,-81.3,8.04,27.85,-11.160909090909088
4.46875,63.81,60.94,-132.05,42.29,-117.7,14.66,-35.88,15.07,-71.25,2.28,15.18,-12.968181818181819
4.484375,62.83,50.73,-124.89,38.32,-110.68,16.11,-45.73,24.46,-59.54,-3.76,2.24,-13.628181818181815
4.5,60.68,41.66,-108.94,34.32,-96.65,17.2,-53.18,32.72,-46.52,-9.82,-9.73,-12.569090909090908
4.515625,57.52,34.44,-85.34,30.27,-76.93,18.16,-56.64,39.85,-32.8,-15.59,-19.42,-9.68
4.53125,53.71,28.37,-57.07,26.05,-53.79,19.02,-55.15,45.67,-19.29,-20.81,-25.8,-5.371818181818181
4.546875,49.67,22.08,-28.01,21.5,-29.81,19.68,-48.8,50.0,-7.07,-25.39,-28.18,-0.3936363636363635
4.5625,45.8,14.42,-1.68,16.59,-7.1,20.1,-38.72,52.81,2.96,-29.43,-26.31,4.494545454545454
4.578125,42.31,4.98,19.74,11.47,13.06,20.39,-26.59,54.32,10.4,-33.23,-20.41,8.76727272727273
4.59375,39.2,-5.73,35.76,6.42,30.27,20.73,-14.0,54.93,15.41,-37.23,-11.27,12.226363636363637
4.609375,36.32,-16.93,47.23,1.77,44.73,21.29,-1.85,55.05,18.59,-41.92,-0.26,14.910909090909094
4.625,33.49,-27.97,55.53,-2.28,56.8,22.1,9.74,54.91,20.68,-47.73,10.75,16.910909090909094
4.640625,30.61,-38.62,61.79,-5.72,66.69,23.0,21.18,54.56,22.23,-54.9,19.76,18.234545454545454
4.65625,27.67,-48.82,66.5,-8.78,74.39,23.77,32.8,53.87,23.5,-63.31,25.12,18.79181818181818
4.671875,24.77,-58.39,69.52,-11.72,79.79,24.27,44.45,52.74,24.51,-72.24,26.06,18.523636363636363
4.6875,22.0,-66.88,70.53,-14.77,82.93,24.49,55.45,51.2,25.16,-80.36,22.94,17.517272727272726
4.703125,19.35,-73.81,69.42,-18.01,84.14,24.64,64.9,49.44,25.41,-85.9,17.12,16.063636363636363
4.71875,16.76,-79.09,66.65,-21.42,84.09,24.97,72.06,47.68,25.3,-87.15,10.57,14.583636363636366
4.734375,14.16,-83.37,63.21,-24.87,83.51,25.61,76.77,46.12,24.95,-83.01,5.25,13.484545454545453
4.75,11.49,-87.87,60.29,-28.27,83.01,26.56,79.41,44.79,24.48,-73.53,2.52,12.989090909090907
4.765625,8.77,-93.73,58.87,-31.58,82.86,27.56,80.74,43.46,23.97,-59.97,2.81,13.069090909090908
4.78125,6.04,-101.45,59.29,-34.81,82.94,28.33,81.55,41.72,23.49,-44.4,5.66,13.487272727272726
4.796875,3.37,-110.42,61.21,-38.01,82.88,28.58,82.29,39.1,23.1,-29.1,10.03,13.911818181818184
4.8125,0.79,-119.07,63.89,-41.3,82.37,28.19,83.05,35.27,22.84,-15.78,14.76,14.091818181818182
4.828125,-1.77,-125.42,66.54,-44.9,81.32,27.2,83.67,30.23,22.8,-5.22,18.99,13.949090909090915
4.84375,-4.38,-127.75,68.82,-49.1,79.9,25.75,83.88,24.3,23.08,2.8,22.35,13.604545454545452
4.859375,-7.17,-125.04,70.82,-54.21,78.44,24.02,83.59,18.08,23.75,9.05,24.86,13.289999999999997
4.875,-10.29,-117.15,72.94,-60.3,77.21,22.12,82.85,12.11,24.77,14.36,26.74,13.214545454545453
4.890625,-13.81,-104.69,75.41,-67.01,76.16,20.12,81.78,6.68,25.92,19.24,28.12,13.447272727272725
4.90625,-17.68,-88.75,77.98,-73.4,74.95,18.0,80.34,1.61,26.79,23.7,28.88,13.856363636363637
4.921875,-21.66,-70.73,79.84,-78.06,73.03,15.77,78.24,-3.61,26.89,27.43,28.7,14.167272727272728
4.9375,-25.38,-52.13,80.02,-79.5,69.94,13.42,75.01,-9.7,25.88,30.06,27.08,14.063636363636363
4.953125,-28.46,-34.46,77.81,-76.54,65.51,10.96,70.29,-17.2,23.67,31.5,23.56,13.33090909090909
4.96875,-30.74,-19.16,73.21,-68.78,59.99,8.45,63.98,-26.2,20.54,31.96,17.84,11.917272727272728
4.984375,-32.38,-7.42,67.0,-56.65,53.87,5.96,56.38,-36.14,16.9,31.95,9.78,9.93181818181818
5.0,-33.95,-0.03,60.44,-41.33,47.72,3.55,48.08,-45.83,13.12,32.02,-0.35,7.585454545454545
5.015625,-36.14,2.82,54.69,-24.35,41.95,1.25,39.69,-53.68,9.3,32.56,-11.88,5.11
5.03125,-39.59,1.6,50.23,-7.25,36.64,-0.95,31.66,-58.08,5.16,33.67,-23.91,2.6527272727272724
5.046875,-44.58,-2.69,46.67,8.66,31.64,-3.16,24.2,-57.9,0.2,35.2,-35.66,0.23454545454545503
5.0625,-50.82,-8.7,42.86,22.45,26.61,-5.5,17.24,-52.84,-6.0,36.79,-46.8,-2.2463636363636366
5.078125,-57.5,-15.05,37.48,33.57,21.24,-8.09,10.6,-43.55,-13.56,38.08,-57.49,-4.933636363636364
5.09375,-63.3,-20.71,29.59,41.77,15.33,-10.99,4.03,-31.45,-22.03,38.78,-68.25,-7.929999999999999
5.109375,-66.8,-25.11,19.11,47.09,8.84,-14.18,-2.81,-18.22,-30.39,38.75,-79.48,-11.200000000000001
5.125,-66.72,-28.36,6.8,49.81,1.85,-17.57,-10.38,-5.27,-37.17,37.95,-91.39,-14.586363636363636
5.140625,-62.39,-30.98,-6.04,50.42,-5.41,-21.02,-19.13,6.61,-40.86,36.44,-103.51,-17.80636363636364
5.15625,-54.0,-33.7,-18.07,49.46,-12.64,-24.4,-29.4,17.29,-40.35,34.3,-114.77,-20.57090909090909
5.171875,-42.6,-37.1,-28.36,47.48,-19.54,-27.6,-41.03,27.02,-35.36,31.58,-123.78,-22.662727272727274
5.1875,-29.89,-41.3,-36.6,44.94,-25.86,-30.51,-53.19,36.09,-26.6,28.28,-129.41,-24.00454545454545
5.203125,-17.62,-45.89,-43.04,42.2,-31.54,-33.19,-64.36,44.5,-15.58,24.33,-131.16,-24.66818181818182
5.21875,-7.12,-50.13,-48.35,39.53,-36.7,-35.81,-72.65,51.98,-4.04,19.66,-129.36,-24.817272727272726
5.234375,1.09,-53.33,-53.51,37.17,-41.69,-38.71,-76.3,58.08,6.58,14.31,-124.89,-24.654545454545453
5.25,7.24,-55.18,-59.69,35.37,-47.03,-42.26,-74.31,62.49,15.59,8.49,-118.87,-24.378181818181815
5.265625,11.99,-55.94,-68.14,34.34,-53.33,-46.63,-66.69,65.18,23.03,2.59,-112.76,-24.214545454545455
5.28125,16.07,-56.34,-79.76,34.22,-61.14,-51.6,-54.43,66.48,29.44,-2.92,-107.64,-24.329090909090908
5.296875,19.89,-57.24,-94.52,35.0,-70.74,-56.38,-39.11,66.88,35.41,-7.72,-103.82,-24.75909090909091
5.3125,23.54,-59.19,-110.95,36.54,-81.76,-59.83,-22.33,66.82,41.27,-11.75,-100.68,-25.301818181818188
5.328125,26.89,-62.27,-126.17,38.58,-93.02,-60.75,-5.26,66.52,47.09,-15.27,-96.87,-25.50272727272727
5.34375,29.78,-66.14,-136.73,40.77,-102.58,-58.38,11.45,65.88,52.87,-18.73,-90.61,-24.765454545454542
5.359375,32.13,-70.35,-139.88,42.76,-108.14,-52.63,27.57,64.65,58.74,-22.67,-80.2,-22.547272727272727
5.375,33.95,-74.71,-134.82,44.22,-107.77,-44.22,42.93,62.64,64.92,-27.51,-64.73,-18.645454545454548
5.390625,35.26,-79.41,-123.09,44.85,-100.58,-34.39,57.24,59.9,71.48,-33.55,-44.81,-13.372727272727275
5.40625,35.99,-84.91,-107.85,44.46,-87.05,-24.54,69.96,56.72,78.0,-40.85,-23.87,-7.630909090909091
5.421875,36.09,-91.57,-92.4,42.96,-68.89,-15.76,80.49,53.57,83.45,-49.24,-6.37,-2.5154545454545447
5.4375,35.58,-99.3,-78.74,40.4,-48.38,-8.46,88.39,50.78,86.39,-58.06,3.89,1.1354545454545464
5.453125,34.67,-107.4,-66.81,37.02,-27.7,-2.27,93.62,48.31,85.5,-66.16,5.2,3.0890909090909093
5.46875,33.74,-114.69,-54.98,33.18,-8.38,3.89,96.52,45.72,80.05,-71.91,-1.83,3.755454545454547
5.484375,33.22,-119.9,-41.22,29.31,8.84,11.46,97.72,42.36,70.24,-73.63,-14.65,3.9772727272727253
5.5,33.37,-122.11,-24.4,25.7,23.79,21.75,97.94,37.67,56.99,-70.15,-29.83,4.6109090909090895
5.515625,34.18,-120.99,-4.9,22.44,36.5,35.4,97.73,31.55,41.63,-61.33,-44.07,6.1945454545454535
5.53125,35.39,-116.89,15.59,19.35,46.97,52.18,97.44,24.42,25.51,-48.29,-55.22,8.768181818181818
5.546875,36.56,-110.78,34.91,16.16,55.17,71.01,97.16,17.04,10.07,-33.12,-64.64,11.776363636363634
5.5625,37.26,-103.88,51.26,12.62,61.12,90.32,96.88,10.2,-2.9,-18.15,-74.21,14.592727272727272
5.578125,37.22,-97.31,63.79,8.69,65.0,108.62,96.49,4.31,-11.32,-5.21,-84.52,16.88727272727273
5.59375,36.39,-91.76,72.56,4.57,67.22,124.92,95.91,-0.75,-13.51,4.88,-94.2,18.748181818181816
5.609375,34.84,-87.22,78.23,0.65,68.33,138.84,95.0,-5.54,-9.39,12.27,-101.1,20.446363636363635
5.625,32.79,-83.13,81.7,-2.75,68.86,150.55,93.57,-10.8,-1.36,17.73,-103.55,22.14636363636364
5.640625,30.48,-78.38,83.76,-5.5,69.2,160.52,91.36,-17.17,5.75,22.09,-101.11,23.727272727272727
5.65625,28.16,-71.85,85.07,-7.68,69.56,169.19,88.18,-25.02,6.14,25.83,-94.31,24.84272727272727
5.671875,26.02,-62.74,86.15,-9.58,69.98,176.86,83.93,-34.31,-4.65,28.99,-84.48,25.106363636363643
5.6875,24.17,-50.83,87.41,-11.53,70.35,183.56,78.72,-44.56,-27.77,31.36,-76.52,24.032727272727275
5.703125,22.62,-36.66,89.19,-13.75,70.52,189.17,72.83,-54.86,-60.51,32.77,-74.1,21.56545454545454
5.71875,21.22,-21.41,91.67,-16.31,70.41,193.37,66.64,-63.88,-97.45,33.26,-77.57,18.177272727272726
5.734375,19.83,-6.6,94.74,-19.14,70.0,195.84,60.51,-70.06,-132.61,33.14,-83.78,14.715454545454543
5.75,18.31,5.92,98.01,-22.13,69.37,196.35,54.63,-72.04,-161.6,32.88,-88.67,11.91181818181819
5.765625,16.64,14.77,100.74,-25.13,68.62,194.89,48.95,-69.1,-182.59,32.89,-89.62,10.096363636363636
5.78125,14.85,19.64,101.95,-28.07,67.73,191.75,43.21,-61.43,-196.08,33.38,-86.22,9.155454545454544
5.796875,12.97,21.66,100.7,-30.89,66.51,187.52,37.02,-50.17,-203.69,34.34,-79.74,8.748181818181823
5.8125,11.0,23.28,96.43,-33.56,64.6,182.94,30.06,-36.98,-207.04,35.53,-72.75,8.50090909090909
5.828125,8.86,27.51,89.29,-36.19,61.61,178.71,22.26,-23.48,-207.05,36.65,-72.64,7.7754545454545445
5.84375,6.54,36.82,80.26,-38.98,57.28,175.27,13.84,-10.82,-203.86,37.4,-85.23,6.229090909090911
5.859375,4.09,51.83,70.89,-42.26,51.68,172.69,5.23,0.61,-197.1,37.59,-111.9,3.9409090909090905
5.875,1.68,70.67,62.79,-46.37,45.26,170.63,-3.04,10.96,-186.29,37.15,-149.29,1.2863636363636368
5.890625,-0.5,89.0,56.96,-51.39,38.66,168.65,-10.6,20.67,-171.01,36.08,-192.06,-1.4127272727272746
5.90625,-2.39,101.97,53.35,-57.0,32.56,166.37,-17.41,30.05,-151.11,34.4,-235.47,-4.061818181818182
5.921875,-4.13,106.45,50.81,-62.35,27.32,163.8,-23.75,39.09,-126.83,32.12,-276.15,-6.692727272727268
5.9375,-6.02,102.52,47.61,-66.16,22.92,161.41,-30.24,47.5,-98.87,29.25,-311.31,-9.21727272727273
5.953125,-8.39,93.39,42.11,-67.13,18.96,159.82,-37.58,54.8,-68.57,25.81,-313.88,-9.150909090909089
5.96875,-11.33,83.68,33.57,-64.27,14.88,159.34,-46.38,60.6,-37.99,21.86,-269.4,-5.04
5.984375,-14.69,77.19,22.4,-57.32,10.24,159.55,-56.82,64.67,-9.78,17.46,-183.94,2.632727272727276
6.0,-18.04,75.24,10.07,-46.81,4.95,159.12,-68.46,67.1,13.14,12.74,-81.64,11.582727272727269
6.015625,-20.89,76.26,-1.47,-33.94,-0.79,156.27,-80.02,68.13,28.36,7.84,13.23,19.361818181818183
6.03125,-22.93,76.37,-10.58,-20.19,-6.53,149.54,-89.64,68.11,34.77,2.93,88.21,24.55090909090909
6.046875,-24.18,72.38,-16.48,-6.91,-11.91,138.54,-95.22,67.32,33.12,-1.79,141.85,26.974545454545456
6.0625,-25.03,63.79,-19.54,4.93,-16.77,124.27,-95.07,66.01,25.98,-6.08,178.3,27.344545454545457
6.078125,-26.12,53.26,-21.05,14.79,-21.23,108.7,-88.44,64.38,17.01,-9.81,203.0,26.771818181818183
6.09375,-28.05,45.27,-22.73,22.48,-25.72,94.04,-75.71,62.62,9.72,-12.98,223.26,26.563636363636363
6.109375,-31.22,44.53,-26.19,28.01,-30.75,81.76,-58.34,60.92,6.41,-15.84,238.59,27.08
6.125,-35.62,54.83,-32.43,31.41,-36.85,72.19,-38.31,59.34,7.67,-18.86,246.9,28.206363636363633
6.140625,-40.73,78.44,-41.52,32.79,-44.42,64.65,-17.63,57.73,12.64,-22.57,247.61,29.726363636363637
6.15625,-45.67,115.32,-52.53,32.39,-53.53,58.14,2.19,55.73,19.72,-27.46,242.67,31.54272727272727
6.171875,-49.27,160.74,-63.62,30.59,-63.75,51.99,20.27,53.0,27.29,-33.74,234.85,33.486363636363635
6.1875,-50.43,207.85,-72.38,27.94,-74.01,46.31,36.36,49.33,34.23,-41.18,226.49,35.50090909090909
6.203125,-48.37,249.73,-76.38,25.02,-82.63,41.87,50.58,44.85,39.91,-49.05,216.14,37.42454545454546
6.21875,-42.88,280.93,-73.87,22.33,-87.58,39.82,63.09,39.96,44.16,-56.1,204.08,39.44909090909091
6.234375,-34.43,298.2,-64.34,20.25,-87.08,41.16,73.97,35.09,47.12,-60.8,191.78,41.90181818181818
6.25,-24.09,301.42,-48.81,18.93,-80.22,46.67,83.14,30.51,49.18,-61.72,177.7,44.79181818181819
6.265625,-13.19,294.23,-29.53,18.42,-67.3,56.8,90.39,26.12,50.95,-57.95,161.06,48.18181818181818
6.28125,-3.05,283.21,-9.33,18.73,-49.9,71.59,95.55,21.61,53.12,-49.54,142.94,52.26636363636363
6.296875,5.39,275.21,9.24,19.81,-30.32,90.34,98.65,16.64,56.25,-37.54,126.2,57.26090909090909
6.3125,11.77,269.98,24.52,21.59,-10.94,111.24,99.93,11.09,60.57,-23.77,113.72,62.70000000000002
6.328125,16.16,264.03,35.91,23.9,6.44,131.21,99.87,5.13,65.84,-10.24,106.98,67.74818181818182
6.34375,19.05,253.73,43.62,26.47,20.96,146.47,99.06,-0.86,71.46,1.43,105.97,71.57818181818182
6.359375,20.95,237.52,48.31,28.93,32.55,153.61,97.96,-6.52,76.72,10.44,110.2,73.69727272727275
6.375,22.28,215.63,50.64,30.89,41.61,150.88,96.85,-11.7,81.1,16.82,118.39,73.94454545454545
6.390625,23.27,189.75,51.12,32.06,48.54,139.0,95.76,-16.48,84.46,21.22,126.34,72.27636363636364
6.40625,23.95,163.15,50.16,32.26,53.56,120.9,94.56,-21.2,87.11,24.42,130.43,69.02727272727272
6.421875,24.32,140.02,48.02,31.47,56.67,100.53,93.1,-26.24,89.72,27.0,129.21,64.89272727272727
6.4375,24.37,123.34,44.87,29.82,57.93,81.29,91.24,-32.01,93.16,29.19,123.83,60.63909090909092
6.453125,24.2,106.67,40.73,27.54,57.6,64.93,88.94,-38.79,98.25,30.93,116.83,56.16636363636364
6.46875,23.89,82.54,35.51,24.94,56.23,51.46,86.17,-46.64,105.52,32.06,110.58,51.11454545454546
6.484375,23.53,47.85,29.01,22.28,54.54,39.87,82.94,-55.3,114.97,32.55,106.57,45.346363636363634
6.5,23.16,5.49,21.18,19.73,53.07,29.2,79.27,-64.04,125.9,32.55,105.43,39.17636363636364
6.515625,22.79,-39.53,12.27,17.3,52.11,19.15,75.2,-71.68,136.81,32.36,106.59,33.03363636363636
6.53125,22.43,-83.34,2.89,14.84,51.57,9.99,70.84,-76.79,145.61,32.3,107.53,27.079090909090908
6.546875,22.14,-124.06,-6.03,12.15,51.16,2.06,66.28,-78.07,150.1,32.56,105.93,21.292727272727276
6.5625,22.07,-161.22,-13.47,9.08,50.65,-4.85,61.58,-74.82,148.57,33.12,100.83,15.594545454545452
6.578125,22.34,-196.36,-18.65,5.59,49.94,-11.62,56.76,-67.24,140.44,33.76,92.99,9.813636363636363
6.59375,23.03,-241.01,-21.25,1.85,49.16,-19.54,51.82,-56.37,126.51,34.26,84.02,2.9527272727272726
6.609375,24.08,-304.59,-21.57,-1.85,48.48,-29.75,46.71,-43.75,108.74,34.43,75.46,-5.782727272727272
6.625,25.25,-387.91,-20.37,-5.22,47.96,-42.92,41.5,-30.83,89.53,34.22,68.11,-16.425454545454546
6.640625,26.2,-483.09,-18.61,-8.02,47.5,-59.11,36.25,-18.62,70.88,33.7,62.24,-28.243636363636366
6.65625,26.56,-580.49,-17.09,-10.21,46.86,-77.89,31.04,-7.5,53.76,32.94,57.44,-40.41636363636364
6.671875,26.13,-674.18,-16.17,-11.9,45.77,-98.43,25.9,2.61,38.1,31.96,52.55,-52.51454545454545
6.6875,24.88,-762.71,-15.76,-13.34,44.04,-119.61,20.77,11.97,23.17,30.67,46.67,-64.47727272727275
6.703125,23.02,-847.17,-15.45,-14.81,41.62,-139.99,15.48,20.79,8.25,28.97,39.61,-76.33454545454545
6.71875,20.88,-873.33,-14.76,-16.56,38.55,-157.95,9.89,29.1,-6.91,26.7,31.88,-82.95545454545454
6.734375,18.78,-809.57,-13.44,-18.7,35.0,-171.9,3.92,36.73,-21.95,23.79,24.24,-81.1909090909091
6.75,16.91,-668.49,-11.56,-21.24,31.08,-180.68,-2.34,43.41,-36.21,20.28,17.26,-71.9618181818182
6.765625,15.25,-498.68,-9.55,-24.05,26.91,-183.92,-8.72,48.82,-49.18,16.29,11.07,-59.61454545454544
6.78125,13.69,-343.78,-7.97,-26.96,22.57,-182.24,-14.96,52.71,-60.85,12.05,5.54,-48.2
6.796875,12.04,-221.6,-7.33,-29.77,18.09,-177.25,-20.91,54.99,-71.76,7.84,0.41,-39.56818181818182
6.8125,10.24,-131.0,-7.8,-32.36,13.48,-171.15,-26.5,55.8,-82.86,3.92,-4.54,-33.88818181818182
6.828125,8.33,-64.22,-9.26,-34.7,8.73,-166.15,-31.84,55.53,-95.16,0.47,-9.2,-30.679090909090906
6.84375,6.45,-12.86,-11.32,-36.89,3.76,-163.78,-37.14,54.69,-109.41,-2.45,-13.19,-29.285454545454545
6.859375,4.76,28.38,-13.52,-39.17,-1.52,-164.35,-42.76,53.73,-125.87,-4.98,-16.07,-29.215454545454545
6.875,3.33,53.97,-15.58,-41.88,-7.17,-166.77,-49.11,52.86,-144.23,-7.32,-17.51,-30.855454545454542
6.890625,2.14,59.49,-17.54,-45.38,-13.21,-168.97,-56.62,52.02,-163.59,-9.82,-17.55,-34.45727272727272
6.90625,1.09,47.62,-19.67,-49.84,-19.47,-168.63,-65.49,51.03,-182.55,-12.85,-16.56,-39.57454545454546
6.921875,0.08,28.19,-22.45,-55.1,-25.66,-164.01,-75.46,49.74,-199.31,-16.75,-14.98,-45.06454545454545
6.9375,-1.01,11.08,-26.46,-60.51,-31.4,-154.64,-85.61,48.19,-211.9,-21.8,-13.17,-49.74818181818181
6.953125,-2.31,1.74,-32.17,-64.98,-36.41,-141.37,-94.36,46.52,-218.52,-27.99,-11.32,-52.83363636363637
6.96875,-3.96,-3.2,-39.69,-67.23,-40.72,-126.0,-99.78,44.77,-217.93,-34.89,-9.4,-54.36636363636364
6.984375,-6.06,-2.7,-48.5,-66.21,-44.64,-110.56,-100.17,42.81,-209.8,-41.48,-7.36,-54.060909090909085
7.0,-8.63,1.76,-57.28,-61.36,-48.81,-96.59,-94.64,40.34,-194.9,-46.34,-5.29,-51.97636363636364
7.015625,-11.49,1.01,-63.97,-52.93,-53.9,-84.84,-83.42,37.06,-174.99,-47.97,-3.41,-48.98636363636364
7.03125,-14.36,-11.89,-66.27,-41.82,-60.46,-75.24,-67.83,32.93,-152.46,-45.4,-2.07,-45.89727272727272
7.046875,-16.88,-36.5,-62.41,-29.36,-68.68,-66.98,-49.72,28.26,-129.7,-38.57,-1.54,-42.916363636363634
7.0625,-18.81,-64.84,-51.94,-16.86,-78.27,-58.69,-30.95,23.61,-108.59,-28.5,-1.87,-39.61000000000001
7.078125,-20.13,-87.18,-36.0,-5.3,-88.34,-48.57,-12.86,19.48,-90.12,-16.99,-2.83,-35.349090909090904
7.09375,-21.07,-96.77,-17.0,4.78,-97.4,-34.89,3.87,16.1,-74.33,-5.98,-4.04,-29.70272727272728
7.109375,-22.03,-91.41,2.19,13.22,-103.59,-16.77,19.05,13.28,-60.54,3.09,-5.11,-22.60181818181818
7.125,-23.46,-72.34,19.23,20.07,-105.09,4.92,32.75,10.53,-47.78,9.7,-5.82,-14.29909090909091
7.140625,-25.75,-44.58,32.87,25.33,-100.63,27.15,44.95,7.3,-35.22,14.15,-6.21,-5.512727272727272
7.15625,-29.14,-18.3,42.96,28.98,-90.04,45.16,55.55,3.23,-22.5,17.2,-6.46,2.42181818181818
7.171875,-33.64,-1.28,50.07,30.96,-74.41,53.85,64.33,-1.71,-9.81,19.59,-6.77,8.289090909090909
7.1875,-38.97,5.04,54.93,31.35,-55.79,49.61,71.13,-7.2,2.25,21.64,-7.17,11.52909090909091
7.203125,-44.45,5.62,58.13,30.45,-36.54,31.81,75.94,-12.73,12.97,23.27,-7.53,12.44909090909091
7.21875,-49.07,6.51,59.97,28.73,-18.6,3.12,78.94,-17.77,21.81,24.17,-7.68,11.83
7.234375,-51.61,11.22,60.66,26.7,-3.03,-31.38,80.46,-21.97,28.64,24.15,-7.52,10.574545454545456
7.25,-51.05,20.52,60.37,24.83,10.06,-65.91,80.96,-25.27,33.72,23.34,-7.21,9.487272727272726
7.265625,-46.89,33.82,59.32,23.36,21.1,-95.87,80.79,-27.96,37.53,22.13,-7.1,9.111818181818183
7.28125,-39.45,49.04,57.68,22.42,30.59,-118.88,80.24,-30.62,40.56,21.09,-7.55,9.556363636363637
7.296875,-29.83,62.25,55.6,22.09,38.78,-134.75,79.44,-33.9,43.13,20.62,-8.72,10.42818181818182
7.3125,-19.52,70.81,53.2,22.43,45.55,-144.72,78.44,-38.36,45.42,20.88,-10.48,11.24090909090909
7.328125,-9.96,74.35,50.65,23.51,50.71,-150.26,77.23,-44.21,47.48,21.71,-12.47,11.703636363636365
7.34375,-2.05,74.27,48.18,25.32,54.13,-152.4,75.86,-51.14,49.4,22.79,-14.36,11.818181818181818
7.359375,3.94,71.84,46.01,27.68,55.99,-151.46,74.4,-58.33,51.23,23.76,-16.04,11.72909090909091
7.375,8.31,67.57,44.28,30.23,56.67,-147.57,72.9,-64.6,53.0,24.37,-17.58,11.598181818181818
7.390625,11.54,61.56,43.01,32.55,56.61,-141.05,71.28,-68.68,54.53,24.52,-19.12,11.52272727272727
7.40625,14.04,54.31,42.1,34.24,56.17,-132.92,69.34,-69.6,55.44,24.2,-20.65,11.515454545454547
7.421875,15.96,46.36,41.34,35.1,55.51,-124.76,66.8,-66.96,55.29,23.42,-21.86,11.472727272727273
7.4375,17.23,37.52,40.51,35.08,54.69,-118.23,63.47,-61.06,53.74,22.15,-22.29,11.164545454545454
7.453125,17.8,27.6,39.38,34.27,53.69,-114.47,59.37,-52.73,50.75,20.3,-21.47,10.408181818181818
7.46875,17.69,16.76,37.71,32.83,52.51,-113.69,54.69,-43.1,46.67,17.76,-19.24,9.144545454545455
7.484375,17.08,5.7,35.32,30.88,51.2,-115.28,49.8,-33.2,42.11,14.43,-15.72,7.483636363636363
7.5,16.22,-4.55,32.13,28.52,49.83,-118.19,45.03,-23.73,37.71,10.3,-11.33,5.630909090909092
7.515625,15.26,-12.76,28.11,25.89,48.45,-121.52,40.58,-14.94,33.85,5.43,-6.51,3.8036363636363646
7.53125,14.28,-17.75,23.38,23.16,46.99,-124.81,36.47,-6.79,30.55,0.01,-1.7,2.1627272727272735
7.546875,13.28,-18.7,18.12,20.48,45.37,-127.98,32.62,0.91,27.43,-5.67,2.84,0.7909090909090891
7.5625,12.3,-15.87,12.53,17.96,43.39,-131.12,28.85,8.25,24.02,-11.25,6.86,-0.370909090909091
7.578125,11.45,-10.45,6.85,15.59,40.87,-134.14,24.99,15.12,19.99,-16.35,10.13,-1.4499999999999988
7.59375,10.92,-4.03,1.31,13.27,37.67,-136.74,20.9,21.26,15.28,-20.78,12.46,-2.58909090909091
7.609375,10.84,2.13,-3.89,10.89,33.8,-138.58,16.5,26.4,10.11,-24.49,13.78,-3.8645454545454565
7.625,11.28,7.22,-8.56,8.44,29.29,-139.46,11.79,30.32,4.87,-27.72,14.15,-5.30727272727273
7.640625,12.11,11.17,-12.7,6.04,24.34,-139.43,6.92,33.06,-0.13,-30.87,13.79,-6.881818181818181
7.65625,13.08,14.44,-16.45,3.91,19.1,-138.75,2.1,34.82,-4.74,-34.46,12.97,-8.543636363636363
7.671875,13.89,17.67,-20.19,2.24,13.81,-137.65,-2.47,35.89,-9.06,-38.93,11.92,-10.261818181818184
7.6875,14.26,21.58,-24.4,1.09,8.68,-136.18,-6.7,36.52,-13.38,-44.54,10.83,-12.02181818181818
7.703125,14.02,27.0,-29.59,0.34,3.92,-134.15,-10.72,36.81,-18.13,-51.15,9.82,-13.802727272727275
7.71875,13.15,34.72,-36.11,-0.27,-0.31,-131.15,-14.84,36.72,-23.77,-58.19,9.01,-15.54909090909091
7.734375,11.75,44.95,-43.83,-1.05,-3.98,-126.77,-19.35,36.19,-30.7,-64.58,8.49,-17.170909090909092
7.75,10.02,56.46,-52.11,-2.2,-7.3,-120.76,-24.36,35.24,-39.07,-68.94,8.28,-18.612727272727273
7.765625,8.19,66.22,-59.64,-3.75,-10.66,-113.11,-29.74,34.04,-48.56,-69.92,8.31,-19.874545454545455
7.78125,6.46,70.15,-64.73,-5.61,-14.47,-104.05,-35.13,32.89,-58.3,-66.62,8.33,-21.007272727272724
7.796875,4.96,64.89,-65.74,-7.61,-19.04,-94.01,-40.17,32.02,-66.86,-59.04,8.06,-22.049090909090907
7.8125,3.75,49.71,-61.61,-9.63,-24.38,-83.51,-44.68,31.45,-72.58,-48.15,7.27,-22.94181818181818
7.828125,2.8,27.44,-52.3,-11.6,-30.2,-73.02,-48.76,30.93,-73.95,-35.64,5.89,-23.49181818181818
7.84375,2.07,3.53,-38.89,-13.57,-36.11,-62.92,-52.72,30.07,-70.13,-23.39,4.06,-23.454545454545453
7.859375,1.49,-16.2,-23.28,-15.64,-41.7,-53.34,-56.99,28.51,-61.21,-12.87,2.02,-22.655454545454546
7.875,0.97,-27.95,-7.63,-17.9,-46.81,-44.12,-61.95,26.11,-48.25,-4.76,-0.02,-21.11909090909091
7.890625,0.41,-31.25,6.27,-20.38,-51.51,-34.82,-67.87,23.01,-33.01,1.1,-1.95,-19.09090909090909
7.90625,-0.33,-28.43,17.42,-23.08,-56.06,-24.93,-74.75,19.57,-17.5,5.4,-3.78,-16.951818181818183
7.921875,-1.32,-22.8,25.58,-25.94,-60.81,-14.04,-82.22,16.19,-3.47,8.93,-5.63,-15.048181818181819
7.9375,-2.64,-16.79,31.04,-28.87,-66.14,-2.09,-89.48,13.18,8.03,12.22,-7.56,-13.554545454545456
7.953125,-4.24,-11.2,34.28,-31.8,-72.45,10.49,-95.32,10.61,16.74,15.38,-9.6,-12.464545454545453
7.96875,-6.0,-5.61,35.77,-34.66,-80.03,22.87,-98.34,8.36,23.07,18.26,-11.74,-11.640909090909089
7.984375,-7.75,0.48,35.87,-37.43,-88.8,33.93,-97.35,6.17,27.78,20.62,-13.92,-10.945454545454545
8.0,-9.33,6.84,35.0,-40.17,-98.03,42.57,-91.8,3.77,31.6,22.3,-16.08,-10.302727272727275
8.015625,-10.73,12.49,33.64,-43.04,-106.24,47.88,-81.95,0.88,34.97,23.35,-18.09,-9.712727272727273
8.03125,-11.99,16.43,32.25,-46.3,-111.43,49.24,-68.89,-2.58,37.98,23.95,-19.8,-9.194545454545453
8.046875,-13.31,18.42,31.17,-50.21,-111.62,46.41,-54.08,-6.54,40.54,24.29,-20.93,-8.714545454545458
8.0625,-14.85,19.33,30.43,-54.84,-105.65,39.57,-38.93,-10.7,42.54,24.6,-21.14,-8.149090909090912
8.078125,-16.69,20.66,29.78,-59.94,-93.6,29.5,-24.41,-14.65,44.05,24.97,-20.16,-7.3172727272727265
8.09375,-18.79,23.82,28.76,-64.84,-76.96,17.63,-10.95,-18.04,45.22,25.45,-17.88,-6.052727272727271
8.109375,-20.99,29.62,26.96,-68.53,-57.99,6.0,1.43,-20.74,46.25,25.94,-14.44,-4.226363636363636
8.125,-23.13,37.72,24.3,-69.88,-39.02,-3.17,12.79,-22.9,47.19,26.29,-10.23,-1.8218181818181827
8.140625,-25.08,46.95,21.04,-68.0,-21.71,-8.06,23.13,-25.01,47.97,26.26,-5.76,1.0663636363636362
8.15625,-26.86,55.76,17.8,-62.5,-6.73,-7.8,32.26,-27.63,48.44,25.68,-1.55,4.26090909090909
8.171875,-28.51,62.91,15.22,-53.63,6.1,-2.79,39.96,-31.25,48.51,24.43,2.04,7.544545454545454
8.1875,-30.15,68.14,13.7,-42.21,17.3,5.49,46.03,-36.09,48.24,22.53,4.79,10.706363636363635
8.203125,-31.9,72.24,13.16,-29.41,27.26,15.12,50.39,-42.01,47.83,20.12,6.65,13.586363636363636
8.21875,-33.94,76.85,13.02,-16.46,36.03,24.37,53.13,-48.46,47.58,17.37,7.63,16.10181818181818
8.234375,-36.5,83.77,12.45,-4.38,43.38,32.17,54.47,-54.55,47.62,14.38,7.83,18.240000000000002
8.25,-39.78,94.08,10.65,6.11,49.04,38.22,54.7,-59.26,47.86,11.16,7.4,20.016363636363636
8.265625,-43.81,107.7,7.26,14.62,52.96,42.63,54.14,-61.6,47.95,7.61,6.54,21.454545454545453
8.28125,-48.22,123.47,2.4,21.03,55.37,45.6,53.17,-60.92,47.4,3.66,5.49,22.58636363636364
8.296875,-52.14,139.74,-3.3,25.37,56.66,47.13,52.09,-57.1,45.79,-0.67,4.49,23.46
8.3125,-54.43,155.02,-9.05,27.84,57.26,47.06,51.13,-50.61,42.96,-5.22,3.72,24.152727272727272
8.328125,-53.98,168.62,-14.13,28.69,57.42,45.31,50.38,-42.36,39.09,-9.74,3.22,24.774545454545457
8.34375,-50.18,180.61,-18.22,28.31,57.28,42.08,49.77,-33.45,34.66,-13.96,3.0,25.44545454545455
8.359375,-43.19,191.66,-21.42,27.13,56.86,37.87,49.15,-24.77,30.23,-17.74,3.0,26.25272727272727
8.375,-33.94,202.81,-24.17,25.6,56.22,33.39,48.34,-16.86,26.21,-21.08,3.13,27.24090909090909
8.390625,-23.79,215.3,-27.1,24.1,55.44,29.24,47.15,-9.81,22.75,-24.13,3.27,28.40181818181818
8.40625,-14.09,230.32,-30.91,22.87,54.65,25.84,45.47,-3.46,19.69,-27.13,3.25,29.681818181818183
8.421875,-5.82,248.56,-36.09,22.04,53.88,23.26,43.25,2.37,16.75,-30.47,2.89,30.965454545454545
8.4375,0.61,269.55,-42.81,21.66,53.08,21.44,40.48,7.79,13.62,-34.57,2.11,32.08727272727273
8.453125,5.28,291.17,-50.61,21.76,52.1,20.28,37.18,12.7,10.2,-39.78,0.95,32.839090909090906
8.46875,8.6,309.82,-58.27,22.36,50.71,19.74,33.47,16.95,6.55,-46.19,-0.42,33.02909090909091
8.484375,11.02,321.47,-64.01,23.5,48.7,19.82,29.56,20.37,2.89,-53.39,-1.74,32.56272727272728
8.5,12.96,323.16,-65.87,25.15,45.95,20.47,25.71,22.9,-0.54,-60.36,-2.8,31.520909090909083
8.515625,14.73,314.26,-62.47,27.17,42.5,21.57,22.17,24.6,-3.66,-65.57,-3.56,30.158181818181813
8.53125,16.42,296.71,-53.52,29.34,38.5,22.83,19.11,25.62,-6.58,-67.47,-4.19,28.79727272727273
8.546875,18.02,274.14,-40.11,31.36,34.17,23.9,16.5,26.16,-9.62,-65.02,-4.99,27.682727272727274
8.5625,19.33,250.27,-24.28,32.93,29.67,24.47,14.16,26.4,-13.2,-58.11,-6.24,26.854545454545452
8.578125,20.13,227.6,-8.41,33.89,25.1,24.34,11.8,26.5,-17.69,-47.75,-8.09,26.12909090909091
8.59375,20.26,206.94,5.6,34.16,20.49,23.43,9.19,26.55,-23.23,-35.68,-10.46,25.204545454545453
8.609375,19.73,187.9,16.8,33.72,15.85,21.78,6.16,26.57,-29.71,-23.79,-13.1,23.81
8.625,18.73,169.87,25.17,32.6,11.26,19.51,2.72,26.55,-36.66,-13.52,-15.68,21.86818181818182
8.640625,17.55,152.74,31.24,30.84,6.88,16.8,-0.95,26.47,-43.31,-5.49,-17.84,19.539090909090906
8.65625,16.46,136.89,35.61,28.56,2.83,13.94,-4.61,26.32,-48.63,0.42,-19.23,17.14181818181818
8.671875,15.65,122.82,38.67,25.94,-0.85,11.27,-7.99,26.08,-51.54,4.88,-19.52,15.037272727272724
8.6875,15.2,110.6,40.51,23.23,-4.36,9.11,-11.0,25.75,-51.05,8.58,-18.46,13.464545454545457
8.703125,15.1,99.66,41.16,20.7,-8.04,7.68,-13.68,25.24,-46.56,11.99,-15.91,12.485454545454546
8.71875,15.36,89.09,40.72,18.5,-12.22,7.01,-16.28,24.46,-38.11,15.22,-12.03,11.974545454545456
8.734375,15.93,78.13,39.52,16.62,-17.06,6.9,-19.12,23.28,-26.45,18.13,-7.26,11.692727272727273
8.75,16.7,66.58,37.96,14.92,-22.39,7.05,-22.44,21.62,-12.93,20.49,-2.28,11.389090909090909
8.765625,17.48,54.83,36.41,13.22,-27.83,7.04,-26.28,19.49,0.82,22.17,2.22,10.87
8.78125,17.99,43.67,34.99,11.42,-32.96,6.55,-30.45,17.02,13.29,23.2,5.72,10.04
8.796875,18.01,33.86,33.58,9.57,-37.6,5.37,-34.63,14.5,23.51,23.77,8.01,8.904545454545454
8.8125,17.49,25.72,31.94,7.83,-41.84,3.44,-38.53,12.21,31.1,24.1,9.18,7.512727272727272
8.828125,16.59,19.13,29.82,6.4,-46.08,0.81,-42.01,10.37,36.31,24.4,9.46,5.927272727272728
8.84375,15.56,13.58,27.14,5.31,-50.84,-2.33,-45.16,8.98,39.69,24.77,9.11,4.164545454545455
8.859375,14.64,8.53,24.1,4.44,-56.59,-5.72,-48.2,7.8,41.81,25.28,8.32,2.2190909090909092
8.875,13.87,3.69,21.05,3.54,-63.67,-9.11,-51.5,6.43,43.05,25.89,7.21,0.040909090909091735
8.890625,13.14,-0.83,18.35,2.37,-72.16,-12.22,-55.4,4.52,43.55,26.5,5.88,-2.39090909090909
8.90625,12.29,-4.71,16.25,0.79,-81.66,-14.89,-60.16,1.93,43.29,26.99,4.46,-5.038181818181819
8.921875,11.2,-7.49,14.74,-1.15,-91.25,-17.07,-65.82,-1.24,42.3,27.16,3.11,-7.773636363636363
8.9375,9.88,-9.01,13.53,-3.28,-99.41,-18.92,-72.1,-4.61,40.76,26.79,1.92,-10.404545454545454
8.953125,8.46,-9.45,12.14,-5.34,-104.35,-20.68,-78.22,-7.77,39.04,25.76,0.92,-12.680909090909092
8.96875,7.06,-9.3,10.02,-7.17,-104.4,-22.64,-83.08,-10.45,37.53,24.02,0.06,-14.395454545454545
8.984375,5.69,-9.19,6.79,-8.71,-98.63,-24.9,-85.41,-12.63,36.47,21.7,-0.76,-15.416363636363634
9.0,4.29,-9.64,2.32,-10.05,-87.24,-27.25,-84.25,-14.47,35.8,18.98,-1.62,-15.739090909090912
9.015625,2.72,-10.83,-3.1,-11.4,-71.49,-29.13,-79.23,-16.29,35.27,16.01,-2.53,-15.454545454545455
9.03125,0.92,-12.63,-8.91,-12.99,-53.34,-29.72,-70.75,-18.39,34.58,12.88,-3.45,-14.70909090909091
9.046875,-1.08,-14.66,-14.42,-15.05,-34.8,-28.18,-59.84,-20.99,33.6,9.61,-4.34,-13.65
9.0625,-3.14,-16.49,-19.12,-17.66,-17.36,-24.04,-47.8,-24.3,32.44,6.14,-5.19,-12.410909090909092
9.078125,-5.13,-17.86,-22.79,-20.75,-1.79,-17.44,-35.79,-28.43,31.39,2.45,-6.03,-11.106363636363637
9.09375,-6.94,-18.77,-25.64,-24.12,11.79,-9.15,-24.57,-33.39,30.65,-1.39,-6.83,-9.85090909090909
9.109375,-8.58,-19.4,-28.15,-27.48,23.58,-0.4,-14.43,-38.8,30.17,-5.3,-7.55,-8.758181818181816
9.125,-10.15,-20.04,-30.88,-30.58,33.77,7.57,-5.37,-43.96,29.57,-9.12,-8.11,-7.9363636363636365
9.140625,-11.8,-20.85,-34.41,-33.28,42.38,13.84,2.72,-47.84,28.33,-12.72,-8.5,-7.466363636363638
9.15625,-13.65,-21.82,-39.15,-35.67,49.33,18.02,9.89,-49.44,26.0,-16.07,-8.82,-7.3981818181818175
9.171875,-15.68,-22.77,-45.29,-37.98,54.57,20.18,16.14,-48.14,22.4,-19.2,-9.33,-7.736363636363635
9.1875,-17.81,-23.49,-52.63,-40.6,58.19,20.7,21.4,-44.0,17.72,-22.25,-10.28,-8.45909090909091
9.203125,-19.89,-23.85,-60.37,-43.89,60.54,20.09,25.66,-37.68,12.45,-25.46,-11.84,-9.476363636363637
9.21875,-21.81,-23.89,-67.03,-47.99,62.11,18.84,28.94,-30.28,7.18,-29.18,-13.86,-10.633636363636368
9.234375,-23.57,-23.75,-70.77,-52.68,63.35,17.33,31.35,-22.8,2.37,-33.67,-15.94,-11.707272727272725
9.25,-25.27,-23.56,-69.89,-57.25,64.57,15.89,33.0,-15.95,-1.76,-39.1,-17.49,-12.43727272727273
9.265625,-27.09,-23.41,-63.53,-60.69,65.84,14.68,34.01,-9.96,-5.3,-45.28,-18.01,-12.612727272727271
9.28125,-29.19,-23.31,-52.1,-61.85,67.13,13.79,34.5,-4.81,-8.6,-51.59,-17.19,-12.110909090909091
9.296875,-31.66,-23.22,-37.28,-59.91,68.37,13.2,34.58,-0.35,-11.99,-56.92,-15.07,-10.93181818181818
9.3125,-34.55,-23.12,-21.35,-54.54,69.63,12.88,34.39,3.46,-15.68,-59.95,-11.93,-9.160000000000002
9.328125,-37.85,-23.02,-6.47,-46.12,71.05,12.84,34.04,6.62,-19.6,-59.52,-8.14,-6.924545454545456
9.34375,-41.51,-22.93,6.01,-35.51,72.8,13.09,33.65,9.06,-23.44,-55.05,-4.07,-4.3545454545454545
9.359375,-45.3,-22.82,15.7,-23.8,74.93,13.66,33.24,10.79,-26.8,-46.87,-0.01,-1.5709090909090904
9.375,-48.8,-22.65,22.93,-12.07,77.33,14.47,32.81,11.92,-29.48,-36.19,3.74,1.2736363636363646
9.390625,-51.26,-22.37,28.29,-1.18,79.73,15.36,32.31,12.65,-31.62,-24.74,6.91,4.007272727272729
9.40625,-51.83,-22.0,32.29,8.28,81.77,16.17,31.65,13.18,-33.7,-14.15,9.26,6.447272727272726
9.421875,-49.82,-21.59,35.24,15.93,83.21,16.75,30.71,13.71,-36.39,-5.52,10.61,8.44
9.4375,-44.99,-21.26,37.37,21.59,83.96,16.99,29.38,14.36,-40.28,0.91,10.94,9.906363636363634
9.453125,-37.7,-21.1,38.91,25.26,84.13,16.84,27.61,15.12,-45.58,5.55,10.35,10.853636363636362
9.46875,-28.82,-21.12,40.14,27.09,84.02,16.15,25.38,15.86,-52.03,9.15,9.11,11.357272727272727
9.484375,-19.42,-21.31,41.24,27.38,84.02,14.8,22.79,16.4,-58.86,12.31,7.46,11.528181818181816
9.5,-10.48,-21.56,42.19,26.53,84.57,12.75,20.0,16.61,-64.95,15.25,5.66,11.506363636363638
9.515625,-2.62,-21.69,42.76,24.9,86.02,10.08,17.19,16.49,-69.03,17.85,3.86,11.437272727272726
9.53125,3.89,-21.56,42.61,22.85,88.63,7.07,14.51,16.16,-69.93,19.84,2.26,11.484545454545454
9.546875,9.07,-21.03,41.49,20.69,92.51,4.05,11.99,15.81,-66.9,21.05,1.01,11.794545454545455
9.5625,13.11,-20.07,39.36,18.76,97.59,1.3,9.55,15.5,-59.85,21.59,0.27,12.464545454545457
9.578125,16.15,-18.73,36.44,17.37,103.6,-1.04,7.07,15.15,-49.42,21.81,0.16,13.505454545454542
9.59375,18.39,-17.18,33.21,16.76,110.1,-2.92,4.42,14.53,-36.95,22.12,0.6,14.825454545454546
9.609375,19.97,-15.63,30.26,17.08,116.55,-4.31,1.54,13.41,-24.05,22.8,1.36,16.270909090909093
9.625,21.02,-14.29,28.08,18.33,122.44,-5.17,-1.55,11.71,-12.18,23.9,2.11,17.672727272727272
9.640625,21.69,-13.29,26.92,20.35,127.36,-5.42,-4.74,9.58,-2.28,25.22,2.56,18.904545454545453
9.65625,22.06,-12.63,26.63,22.88,131.15,-5.12,-7.87,7.33,5.43,26.43,2.53,19.892727272727274
9.671875,22.18,-12.24,26.67,25.61,133.96,-4.51,-10.76,5.25,11.31,27.21,2.05,20.611818181818187
9.6875,22.06,-12.07,26.29,28.24,136.06,-4.08,-13.3,3.48,15.96,27.35,1.24,21.020909090909093
9.703125,21.67,-12.09,24.82,30.51,137.59,-4.43,-15.54,1.9,19.9,26.81,0.21,21.031818181818185
9.71875,20.98,-12.34,21.95,32.18,138.22,-6.1,-17.65,0.28,23.46,25.66,-1.0,20.512727272727272
9.734375,20.05,-12.81,17.85,33.12,137.06,-9.4,-19.93,-1.6,26.66,24.04,-2.45,19.326363636363638
9.75,18.99,-13.47,13.12,33.23,132.86,-14.23,-22.68,-3.78,29.43,22.1,-4.19,17.398181818181822
9.765625,18.03,-14.17,8.5,32.5,124.41,-20.12,-26.03,-6.12,31.69,19.91,-6.22,14.761818181818182
9.78125,17.44,-14.74,4.62,31.06,111.03,-26.3,-29.86,-8.41,33.43,17.46,-8.5,11.566363636363638
9.796875,17.35,-15.04,1.69,29.05,93.01,-31.88,-33.85,-10.52,34.68,14.69,-10.89,8.026363636363637
9.8125,17.76,-15.05,-0.53,26.73,71.62,-36.1,-37.65,-12.46,35.51,11.54,-13.26,4.373636363636364
9.828125,18.47,-14.85,-2.58,24.35,48.81,-38.53,-41.04,-14.34,35.94,7.99,-15.45,0.7972727272727279
9.84375,19.19,-14.62,-5.06,22.1,26.81,-39.14,-44.12,-16.29,35.96,4.15,-17.29,-2.5736363636363624
9.859375,19.62,-14.48,-8.39,20.05,7.64,-38.33,-47.2,-18.43,35.58,0.23,-18.49,-5.654545454545455
9.875,19.6,-14.47,-12.57,18.16,-7.23,-36.85,-50.74,-20.81,34.84,-3.55,-18.77,-8.399090909090908
9.890625,19.13,-14.51,-17.29,16.33,-17.08,-35.55,-55.05,-23.55,33.83,-7.01,-17.86,-10.782727272727273
9.90625,18.3,-14.45,-22.04,14.4,-22.03,-35.22,-60.09,-26.79,32.71,-10.08,-15.59,-12.807272727272725
9.921875,17.2,-14.14,-26.35,12.3,-22.96,-36.34,-65.4,-30.62,31.56,-12.86,-12.04,-14.513636363636364
9.9375,15.92,-13.55,-29.94,10.09,-21.42,-38.9,-70.1,-34.78,30.44,-15.49,-7.52,-15.931818181818185
9.953125,14.51,-12.8,-32.86,7.91,-19.25,-42.27,-73.13,-38.67,29.27,-18.09,-2.53,-17.082727272727272
9.96875,13.03,-12.09,-35.38,5.97,-18.24,-45.31,-73.55,-41.33,27.91,-20.75,2.39,-17.94090909090909
9.984375,11.58,-11.67,-37.92,4.38,-19.63,-46.59,-70.81,-41.79,26.16,-23.51,6.74,-18.459999999999997
10.0,10.17,-11.68,-40.96,3.16,-23.9,-44.86,-64.95,-39.51,23.89,-26.45,10.24,-18.62272727272727
10.015625,8.84,-12.2,-44.97,2.15,-30.83,-39.5,-56.57,-34.61,21.05,-29.76,12.74,-18.514545454545452
10.03125,7.51,-13.18,-50.24,1.11,-39.96,-30.74,-46.63,-27.89,17.71,-33.61,14.24,-18.334545454545456
10.046875,6.07,-14.49,-56.62,-0.18,-51.01,-19.62,-36.2,-20.46,14.1,-37.97,14.82,-18.323636363636364
10.0625,4.45,-16.02,-63.27,-1.83,-64.26,-7.68,-26.12,-13.34,10.47,-42.37,14.6,-18.67
10.078125,2.66,-17.63,-68.67,-3.77,-80.29,3.51,-16.96,-7.14,7.16,-45.87,13.78,-19.383636363636363
10.09375,0.73,-19.21,-70.97,-5.82,-99.55,12.83,-8.92,-1.98,4.41,-47.28,12.63,-20.284545454545455
10.109375,-1.24,-20.63,-68.51,-7.77,-121.68,19.69,-2.02,2.27,2.38,-45.58,11.43,-21.060000000000002
10.125,-3.2,-21.68,-60.66,-9.52,-145.19,24.11,3.81,5.75,1.0,-40.42,10.44,-21.414545454545454
10.140625,-5.11,-22.15,-48.07,-11.13,-167.67,26.46,8.64,8.49,0.03,-32.3,9.73,-21.18909090909091
10.15625,-6.93,-21.9,-32.66,-12.75,-186.44,27.21,12.53,10.36,-0.9,-22.52,9.24,-20.432727272727274
10.171875,-8.65,-20.89,-16.88,-14.59,-199.41,26.82,15.59,11.31,-2.19,-12.65,8.82,-19.33818181818182
10.1875,-10.29,-19.27,-2.86,-16.77,-205.64,25.68,17.97,11.38,-4.03,-3.98,8.36,-18.13181818181818
10.203125,-11.88,-17.27,8.17,-19.36,-205.41,24.11,19.84,10.82,-6.35,2.78,7.9,-16.96818181818182
10.21875,-13.49,-15.2,16.08,-22.34,-199.84,22.47,21.38,9.98,-8.82,7.64,7.57,-15.87
10.234375,-15.25,-13.28,21.51,-25.61,-190.36,21.04,22.7,9.23,-11.03,11.03,7.46,-14.77818181818182
10.25,-17.23,-11.71,25.33,-29.04,-178.38,20.01,23.87,8.9,-12.73,13.5,7.54,-13.63090909090909
10.265625,-19.4,-10.57,28.21,-32.43,-165.13,19.44,24.84,9.12,-14.03,15.39,7.58,-12.452727272727271
10.28125,-21.65,-9.92,30.47,-35.56,-151.77,19.27,25.57,9.87,-15.34,16.81,7.3,-11.35909090909091
10.296875,-23.82,-9.76,32.2,-38.29,-139.37,19.38,25.96,10.94,-17.28,17.74,6.53,-10.524545454545454
10.3125,-25.78,-10.05,33.38,-40.63,-128.82,19.67,26.0,11.95,-20.39,18.12,5.27,-10.116363636363635
10.328125,-27.54,-10.65,34.1,-42.79,-120.58,20.1,25.73,12.56,-24.91,18.07,3.72,-10.19909090909091
10.34375,-29.22,-11.4,34.48,-45.18,-114.56,20.65,25.25,12.54,-30.68,17.86,2.04,-10.747272727272728
10.359375,-31.07,-12.07,34.62,-48.23,-110.16,21.27,24.66,11.9,-37.09,17.83,0.25,-11.644545454545458
10.375,-33.25,-12.48,34.54,-52.22,-106.48,21.8,24.0,10.86,-43.16,18.24,-1.75,-12.718181818181819
10.390625,-35.83,-12.56,34.12,-57.02,-102.7,22.04,23.22,9.74,-47.69,19.18,-4.16,-13.787272727272727
10.40625,-38.74,-12.43,33.21,-62.04,-98.29,21.81,22.22,8.73,-49.53,20.54,-7.01,-14.684545454545455
10.421875,-41.71,-12.31,31.7,-66.26,-93.07,21.0,20.93,7.82,-47.88,21.97,-10.12,-15.266363636363637
10.4375,-44.33,-12.44,29.62,-68.49,-87.18,19.7,19.31,6.83,-42.54,23.13,-13.08,-15.406363636363636
10.453125,-46.04,-12.97,27.18,-67.72,-80.91,18.02,17.41,5.46,-34.06,23.76,-15.44,-15.02818181818182
10.46875,-46.18,-13.87,24.77,-63.38,-74.64,16.07,15.37,3.57,-23.61,23.77,-16.81,-14.085454545454542
10.484375,-44.18,-14.93,22.76,-55.58,-68.77,13.82,13.3,1.17,-12.65,23.28,-16.96,-12.612727272727273
10.5,-39.75,-15.89,21.45,-45.0,-63.7,11.24,11.26,-1.54,-2.47,22.47,-15.85,-10.707272727272727
10.515625,-33.03,-16.5,20.84,-32.71,-59.73,8.33,9.28,-4.28,6.11,21.5,-13.6,-8.526363636363637
10.53125,-24.68,-16.69,20.62,-19.95,-57.05,5.27,7.29,-6.83,12.91,20.42,-10.4,-6.280909090909092
10.546875,-15.71,-16.52,20.25,-7.8,-55.65,2.37,5.18,-9.08,18.23,19.11,-6.56,-4.198181818181819
10.5625,-7.12,-16.2,19.17,2.94,-55.37,-0.04,2.87,-11.06,22.59,17.36,-2.44,-2.4818181818181806
10.578125,0.36,-15.94,17.08,11.75,-55.91,-1.8,0.31,-12.94,26.48,15.02,1.5,-1.2809090909090899
10.59375,6.42,-15.93,14.04,18.46,-56.95,-3.01,-2.46,-14.92,30.16,11.99,4.9,-0.6636363636363637
10.609375,11.11,-16.23,10.48,23.14,-58.24,-3.94,-5.3,-17.23,33.63,8.4,7.48,-0.6090909090909095
10.625,14.66,-16.76,7.03,26.08,-59.66,-4.92,-8.04,-20.03,36.77,4.48,9.16,-1.0209090909090912
10.640625,17.24,-17.34,4.19,27.64,-61.23,-6.07,-10.56,-23.4,39.41,0.56,10.0,-1.7781818181818174
10.65625,18.92,-17.71,2.17,28.17,-63.13,-7.31,-12.8,-27.32,41.47,-3.07,10.09,-2.774545454545454
10.671875,19.76,-17.59,0.8,27.93,-65.69,-8.41,-14.87,-31.66,43.0,-6.25,9.54,-3.9490909090909083
10.6875,19.84,-16.76,-0.36,27.09,-69.32,-9.12,-16.95,-36.08,44.16,-8.98,8.42,-5.278181818181818
10.703125,19.39,-15.13,-1.85,25.81,-74.47,-9.46,-19.25,-40.07,45.11,-11.39,6.88,-6.766363636363637
10.71875,18.7,-12.75,-4.07,24.28,-81.44,-9.68,-21.9,-42.97,45.87,-13.72,5.11,-8.415454545454546
10.734375,18.07,-9.83,-7.16,22.8,-90.13,-10.17,-24.9,-44.05,46.22,-16.23,3.42,-10.17818181818182
10.75,17.69,-6.67,-10.94,21.71,-99.73,-11.28,-28.14,-42.79,45.7,-19.2,2.11,-11.958181818181817
10.765625,17.63,-3.65,-14.99,21.3,-108.65,-13.16,-31.45,-39.05,43.76,-22.88,1.35,-13.617272727272729
10.78125,17.85,-1.07,-18.77,21.73,-114.74,-15.7,-34.68,-33.19,39.91,-27.41,1.16,-14.991818181818182
10.796875,18.26,0.84,-21.82,22.99,-115.79,-18.56,-37.75,-26.0,33.98,-32.64,1.32,-15.924545454545456
10.8125,18.77,1.96,-23.98,24.95,-110.27,-21.42,-40.73,-18.48,26.18,-38.0,1.55,-16.315454545454543
10.828125,19.31,2.32,-25.46,27.44,-98.0,-23.98,-43.82,-11.53,17.15,-42.48,1.61,-16.13090909090909
10.84375,19.83,2.03,-26.81,30.23,-80.18,-26.15,-47.31,-5.68,7.74,-44.8,1.39,-15.428181818181821
10.859375,20.3,1.27,-28.79,33.09,-59.12,-27.91,-51.48,-1.02,-1.16,-43.9,0.92,-14.345454545454546
10.875,20.69,0.2,-32.04,35.77,-37.44,-29.42,-56.45,2.73,-8.89,-39.36,0.34,-13.07909090909091
10.890625,20.94,-1.06,-36.9,37.94,-17.2,-30.97,-61.89,5.95,-15.07,-31.67,-0.23,-11.832727272727272
10.90625,21.0,-2.41,-43.15,39.28,0.51,-32.98,-67.09,8.94,-19.6,-22.12,-0.72,-10.758181818181818
10.921875,20.86,-3.79,-50.0,39.57,15.67,-35.91,-70.98,11.74,-22.57,-12.4,-1.22,-9.911818181818182
10.9375,20.5,-5.13,-56.12,38.74,28.76,-40.05,-72.49,14.16,-24.16,-3.93,-1.87,-9.235454545454544
10.953125,20.0,-6.33,-59.95,36.98,40.33,-45.33,-70.91,15.92,-24.53,2.51,-2.83,-8.558181818181819
10.96875,19.39,-7.35,-60.05,34.67,50.54,-51.06,-66.14,16.81,-23.94,6.97,-4.2,-7.669090909090909
10.984375,18.65,-8.23,-55.55,32.21,59.2,-55.96,-58.77,16.88,-22.74,10.0,-5.95,-6.387272727272727
11.0,17.76,-9.06,-46.52,29.9,65.99,-58.47,-49.81,16.42,-21.39,12.31,-7.93,-4.618181818181818
11.015625,16.69,-9.94,-33.98,27.84,70.75,-57.19,-40.35,15.89,-20.37,14.37,-9.91,-2.381818181818182
11.03125,15.41,-10.89,-19.66,25.88,73.64,-51.44,-31.24,15.65,-20.01,16.22,-11.65,0.17363636363636348
11.046875,13.96,-11.82,-5.44,23.78,75.12,-41.57,-22.97,15.86,-20.43,17.64,-12.95,2.834545454545455
11.0625,12.35,-12.54,7.09,21.38,75.7,-28.91,-15.61,16.31,-21.44,18.32,-13.67,5.361818181818182
11.078125,10.67,-12.88,17.04,18.67,75.82,-15.37,-9.05,16.67,-22.64,18.17,-13.65,7.586363636363635
11.09375,8.93,-12.8,24.22,15.87,75.75,-2.86,-3.17,16.6,-23.61,17.37,-12.75,9.413636363636364
11.109375,7.16,-12.46,28.94,13.26,75.62,7.26,2.14,15.98,-24.05,16.36,-10.85,10.850909090909095
11.125,5.35,-12.15,31.7,11.1,75.52,14.35,6.88,14.92,-23.96,15.65,-7.96,11.945454545454544
11.140625,3.54,-12.16,33.03,9.47,75.57,18.56,11.03,13.65,-23.61,15.56,-4.27,12.760909090909088
11.15625,1.79,-12.67,33.33,8.24,75.87,20.48,14.58,12.31,-23.47,16.13,-0.16,13.311818181818182
11.171875,0.15,-13.61,32.92,7.16,76.32,20.83,17.56,10.9,-23.98,17.1,3.85,13.563636363636363
11.1875,-1.35,-14.76,32.03,5.94,76.68,20.34,20.01,9.24,-25.45,17.97,7.27,13.447272727272725
11.203125,-2.77,-15.78,30.86,4.43,76.5,19.52,21.99,7.19,-27.96,18.33,9.75,12.914545454545454
11.21875,-4.21,-16.35,29.49,2.66,75.34,18.77,23.57,4.72,-31.3,17.91,11.12,11.974545454545455
11.234375,-5.78,-16.28,27.99,0.79,72.94,18.37,24.8,1.93,-35.02,16.73,11.4,10.715454545454547
11.25,-7.63,-15.46,26.33,-0.98,69.28,18.43,25.69,-1.0,-38.45,15.02,10.74,9.269999999999998
11.265625,-9.86,-13.94,24.52,-2.53,64.63,18.93,26.26,-3.96,-40.78,13.05,9.34,7.787272727272727
11.28125,-12.51,-11.84,22.56,-3.9,59.34,19.7,26.53,-6.92,-41.25,11.03,7.49,6.384545454545455
11.296875,-15.55,-9.3,20.57,-5.3,53.72,20.5,26.56,-9.92,-39.27,8.97,5.49,5.133636363636364
11.3125,-18.82,-6.52,18.69,-6.98,47.91,21.18,26.46,-12.96,-34.69,6.7,3.66,4.0572727272727285
11.328125,-22.05,-3.69,17.12,-9.13,41.91,21.71,26.24,-15.94,-27.88,3.98,2.26,3.139090909090909
11.34375,-24.93,-1.04,15.99,-11.77,35.68,22.18,25.89,-18.75,-19.68,0.62,1.41,2.3272727272727276
11.359375,-27.25,1.25,15.3,-14.77,29.27,22.75,25.3,-21.33,-11.19,-3.38,1.06,1.5463636363636362
11.375,-28.98,2.99,14.86,-17.92,22.83,23.51,24.32,-23.85,-3.39,-7.8,1.02,0.6899999999999998
11.390625,-30.37,4.04,14.35,-21.06,16.61,24.45,22.85,-26.63,3.09,-12.29,1.05,-0.35545454545454525
11.40625,-31.85,4.37,13.4,-24.1,10.76,25.44,20.9,-30.11,8.08,-16.47,0.94,-1.6945454545454544
11.421875,-33.88,4.03,11.74,-27.01,5.27,26.3,18.63,-34.63,11.8,-20.1,0.5,-3.3954545454545464
11.4375,-36.81,3.21,9.34,-29.8,-0.08,26.81,16.25,-40.21,14.6,-23.21,-0.28,-5.470909090909092
11.453125,-40.65,2.12,6.35,-32.47,-5.63,26.79,13.96,-46.4,16.79,-26.05,-1.34,-7.866363636363638
11.46875,-45.0,0.97,3.14,-35.06,-11.72,26.09,11.83,-52.36,18.51,-28.97,-2.5,-10.460909090909091
11.484375,-49.11,-0.08,0.03,-37.69,-18.48,24.65,9.78,-56.97,19.78,-32.36,-3.55,-13.090909090909092
11.5,-51.99,-0.98,-2.69,-40.61,-25.84,22.58,7.7,-59.19,20.59,-36.49,-4.36,-15.57090909090909
11.515625,-52.69,-1.79,-4.97,-44.05,-33.52,20.08,5.53,-58.35,20.94,-41.58,-4.92,-17.756363636363634
11.53125,-50.47,-2.62,-6.94,-48.09,-41.18,17.5,3.29,-54.3,20.92,-47.66,-5.41,-19.54181818181818
11.546875,-45.1,-3.58,-8.85,-52.46,-48.57,15.17,1.12,-47.55,20.63,-54.49,-6.12,-20.89090909090909
11.5625,-36.94,-4.7,-11.01,-56.45,-55.67,13.35,-0.85,-39.03,20.25,-61.33,-7.34,-21.792727272727273
11.578125,-26.86,-5.95,-13.57,-59.05,-62.62,12.05,-2.6,-29.87,19.91,-67.0,-9.16,-22.247272727272726
11.59375,-16.07,-7.21,-16.53,-59.22,-69.75,11.11,-4.27,-21.06,19.8,-69.97,-11.47,-22.24
11.609375,-5.83,-8.35,-19.66,-56.24,-77.46,10.23,-6.1,-13.25,20.01,-68.96,-13.96,-21.77909090909091
11.625,2.96,-9.29,-22.61,-49.95,-86.28,9.14,-8.32,-6.66,20.51,-63.44,-16.3,-20.930909090909093
11.640625,9.84,-9.95,-25.1,-40.83,-96.76,7.7,-11.02,-1.17,21.14,-53.96,-18.16,-19.842727272727277
11.65625,14.89,-10.35,-27.05,-29.81,-109.33,5.97,-14.13,3.49,21.68,-42.05,-19.27,-18.723636363636363
11.671875,18.49,-10.55,-28.73,-18.02,-123.91,4.15,-17.41,7.61,21.9,-29.69,-19.44,-17.78181818181818
11.6875,21.07,-10.67,-30.72,-6.51,-139.56,2.47,-20.62,11.41,21.69,-18.61,-18.5,-17.14090909090909
11.703125,22.96,-10.89,-33.72,3.94,-154.33,1.09,-23.59,14.97,21.09,-9.72,-16.37,-16.77909090909091
11.71875,24.3,-11.39,-38.28,12.78,-165.59,0.0,-26.31,18.29,20.18,-3.03,-13.11,-16.560000000000002
11.734375,25.16,-12.32,-44.36,19.74,-170.71,-0.93,-28.9,21.33,19.06,2.11,-9.0,-16.256363636363634
11.75,25.57,-13.73,-51.19,24.69,-167.95,-1.9,-31.52,24.0,17.73,6.51,-4.52,-15.664545454545458
11.765625,25.66,-15.48,-57.31,27.67,-157.07,-3.11,-34.35,26.2,16.12,10.75,-0.21,-14.64818181818182
11.78125,25.64,-17.25,-60.88,28.85,-139.37,-4.62,-37.53,27.81,14.2,14.97,3.44,-13.158181818181822
11.796875,25.66,-18.64,-60.34,28.53,-117.16,-6.43,-41.2,28.73,11.98,18.96,6.19,-11.247272727272728
11.8125,25.74,-19.19,-54.95,27.12,-92.94,-8.43,-45.45,28.92,9.58,22.35,8.01,-9.021818181818182
11.828125,25.78,-18.59,-45.11,25.05,-68.6,-10.56,-50.22,28.52,7.11,24.8,9.04,-6.616363636363636
11.84375,25.67,-16.69,-32.18,22.71,-45.17,-12.7,-55.15,27.83,4.65,26.2,9.43,-4.127272727272726
11.859375,25.36,-13.63,-18.06,20.38,-22.97,-14.79,-59.54,27.18,2.15,26.68,9.28,-1.6327272727272735
11.875,25.03,-9.73,-4.53,18.33,-2.1,-16.76,-62.5,26.76,-0.47,26.62,8.62,0.8427272727272732
11.890625,24.91,-5.52,7.19,16.73,17.18,-18.59,-63.14,26.56,-3.38,26.51,7.45,3.263636363636365
11.90625,25.21,-1.56,16.55,15.73,34.32,-20.36,-60.91,26.33,-6.66,26.75,5.93,5.575454545454546
11.921875,25.94,1.68,23.53,15.44,48.7,-22.31,-55.87,25.72,-10.31,27.52,4.29,7.666363636363638
11.9375,26.89,3.96,28.32,15.9,60.02,-24.8,-48.56,24.49,-14.18,28.66,2.84,9.412727272727272
11.953125,27.75,5.3,31.18,17.09,68.56,-28.22,-39.91,22.61,-17.95,29.82,1.82,10.73181818181818
11.96875,28.22,5.93,32.39,18.92,75.18,-32.74,-30.88,20.28,-21.24,30.53,1.29,11.625454545454547
11.984375,28.15,6.12,32.29,21.28,81.09,-38.1,-22.19,17.78,-23.7,30.53,1.15,12.218181818181819
12.0,27.56,6.06,31.37,23.95,87.37,-43.45,-14.25,15.38,-25.18,29.73,1.19,12.702727272727271
12.015625,26.53,5.77,30.17,26.69,94.68,-47.5,-7.12,13.16,-25.79,28.26,1.19,13.276363636363635
12.03125,25.14,5.14,29.14,29.16,103.06,-48.82,-0.71,11.02,-25.95,26.29,1.04,14.046363636363635
12.046875,23.46,4.06,28.47,31.02,112.14,-46.31,5.12,8.73,-26.21,23.9,0.69,15.006363636363636
12.0625,21.55,2.55,28.08,32.0,121.38,-39.66,10.44,6.05,-27.13,21.09,0.15,16.045454545454547
12.078125,19.55,0.75,27.71,31.94,130.29,-29.46,15.24,2.78,-29.09,17.77,-0.54,16.994545454545456
12.09375,17.64,-1.07,27.06,30.89,138.45,-17.16,19.41,-1.09,-32.13,13.89,-1.36,17.684545454545454
12.109375,15.93,-2.67,25.92,29.07,145.4,-4.55,22.85,-5.38,-35.9,9.52,-2.27,17.992727272727272
12.125,14.43,-3.95,24.28,26.8,150.46,6.7,25.49,-9.81,-39.76,4.78,-3.21,17.83727272727273
12.140625,12.99,-4.92,22.34,24.4,152.71,15.44,27.36,-14.04,-42.83,-0.09,-4.15,17.20090909090909
12.15625,11.39,-5.72,20.38,22.06,151.34,21.21,28.57,-17.85,-44.19,-4.93,-5.12,16.10363636363636
12.171875,9.51,-6.48,18.74,19.82,145.97,24.16,29.29,-21.24,-43.16,-9.57,-6.27,14.615454545454547
12.1875,7.32,-7.29,17.67,17.64,136.89,24.73,29.66,-24.48,-39.47,-13.95,-7.81,12.81
12.203125,4.96,-8.1,17.21,15.41,125.11,23.59,29.79,-28.05,-33.4,-18.06,-9.88,10.780000000000001
12.21875,2.61,-8.85,17.12,13.1,111.97,21.43,29.7,-32.45,-25.74,-21.98,-12.49,8.583636363636362
12.234375,0.37,-9.45,16.94,10.68,98.74,18.91,29.42,-37.92,-17.57,-25.83,-15.37,6.265454545454546
12.25,-1.72,-9.9,16.13,8.18,86.16,16.64,29.01,-44.27,-9.93,-29.85,-18.07,3.8527272727272712
12.265625,-3.73,-10.28,14.34,5.64,74.4,15.02,28.56,-50.72,-3.54,-34.33,-20.05,1.3918181818181816
12.28125,-5.69,-10.73,11.58,3.14,63.19,14.18,28.13,-56.08,1.34,-39.6,-20.82,-1.0327272727272727
12.296875,-7.62,-11.38,8.23,0.77,52.24,13.97,27.71,-59.16,4.91,-45.88,-20.06,-3.2972727272727265
12.3125,-9.51,-12.29,4.89,-1.35,41.53,14.12,27.21,-59.09,7.62,-53.09,-17.69,-5.240909090909091
12.328125,-11.38,-13.45,2.04,-3.12,31.38,14.39,26.49,-55.74,9.96,-60.63,-13.9,-6.7236363636363645
12.34375,-13.3,-14.81,-0.23,-4.53,22.35,14.74,25.43,-49.67,12.25,-67.37,-9.07,-7.655454545454546
12.359375,-15.38,-16.28,-2.23,-5.64,14.91,15.33,24.01,-41.89,14.53,-71.85,-3.78,-8.024545454545454
12.375,-17.72,-17.74,-4.51,-6.68,9.14,16.33,22.28,-33.49,16.61,-72.67,1.34,-7.919090909090908
12.390625,-20.32,-19.02,-7.5,-7.87,4.63,17.79,20.36,-25.22,18.23,-69.06,5.7,-7.48
12.40625,-23.13,-19.84,-11.31,-9.43,0.55,19.58,18.32,-17.45,19.17,-61.15,8.87,-6.892727272727272
12.421875,-26.04,-19.83,-15.61,-11.43,-4.04,21.39,16.2,-10.25,19.47,-50.04,10.72,-6.314545454545455
12.4375,-28.93,-18.67,-19.9,-13.84,-9.8,22.88,13.97,-3.58,19.32,-37.44,11.38,-5.873636363636365
12.453125,-31.75,-16.15,-23.75,-16.51,-16.89,23.81,11.63,2.63,19.03,-25.09,11.14,-5.627272727272726
12.46875,-34.5,-12.37,-27.03,-19.29,-24.93,24.04,9.19,8.35,18.82,-14.25,10.35,-5.601818181818182
12.484375,-37.32,-7.68,-29.88,-22.1,-33.26,23.47,6.7,13.62,18.72,-5.41,9.27,-5.806363636363637
12.5,-40.43,-2.69,-32.61,-24.89,-41.24,22.11,4.23,18.51,18.62,1.64,8.05,-6.245454545454546
12.515625,-44.1,1.99,-35.56,-27.67,-48.55,20.03,1.85,23.07,18.37,7.47,6.75,-6.9409090909090905
12.53125,-48.49,5.93,-38.99,-30.44,-55.36,17.47,-0.42,27.26,17.94,12.62,5.48,-7.909090909090909
12.546875,-53.43,8.92,-43.17,-33.27,-62.19,14.83,-2.63,30.9,17.48,17.33,4.4,-9.166363636363634
12.5625,-58.25,11.01,-48.32,-36.27,-69.73,12.52,-4.87,33.77,17.24,21.59,3.66,-10.695454545454545
12.578125,-61.8,12.33,-54.38,-39.64,-78.57,10.9,-7.28,35.73,17.42,25.2,3.3,-12.435454545454547
12.59375,-62.78,13.0,-60.82,-43.57,-88.97,10.01,-9.98,36.79,17.99,28.02,3.26,-14.277272727272726
12.609375,-60.15,13.08,-66.43,-48.12,-100.61,9.6,-13.04,37.11,18.66,30.07,3.28,-16.05
12.625,-53.62,12.55,-69.53,-53.01,-112.44,9.25,-16.38,36.9,18.97,31.55,3.08,-17.516363636363632
12.640625,-43.82,11.43,-68.5,-57.53,-122.73,8.53,-19.82,36.36,18.5,32.69,2.49,-18.400000000000002
12.65625,-32.13,9.84,-62.43,-60.74,-129.33,7.26,-23.14,35.64,17.07,33.67,1.53,-18.432727272727274
12.671875,-20.16,7.97,-51.56,-61.59,-130.19,5.48,-26.16,34.89,14.85,34.56,0.4,-17.41
12.6875,-9.29,6.03,-37.33,-59.35,-123.97,3.52,-28.88,34.25,12.22,35.38,-0.7,-15.283636363636363
12.703125,-0.23,4.23,-21.86,-53.77,-110.52,1.73,-31.43,33.81,9.64,36.12,-1.64,-12.17454545454545
12.71875,6.92,2.63,-7.27,-45.18,-91.02,0.32,-34.12,33.52,7.43,36.82,-2.46,-8.400909090909089
12.734375,12.47,1.25,4.97,-34.37,-67.69,-0.74,-37.28,33.21,5.63,37.51,-3.3,-4.3945454545454545
12.75,16.83,0.03,14.33,-22.39,-43.11,-1.75,-41.18,32.59,4.1,38.14,-4.31,-0.6109090909090905
12.765625,20.28,-1.04,21.03,-10.32,-19.53,-3.1,-45.87,31.35,2.53,38.47,-5.53,2.5700000000000003
12.78125,22.94,-1.98,25.69,0.92,1.52,-5.1,-51.07,29.34,0.63,38.17,-6.96,4.918181818181819
12.796875,24.9,-2.77,28.98,10.63,19.42,-7.78,-56.19,26.61,-1.78,36.92,-8.56,6.3981818181818175
12.8125,26.31,-3.45,31.38,18.39,34.18,-10.88,-60.29,23.43,-4.73,34.52,-10.37,7.135454545454544
12.828125,27.43,-4.16,33.14,24.04,46.13,-13.99,-62.44,20.14,-8.14,31.07,-12.48,7.34
12.84375,28.46,-5.06,34.39,27.62,55.58,-16.75,-61.85,17.08,-11.82,26.93,-14.88,7.245454545454547
12.859375,29.47,-6.28,35.19,29.36,62.77,-19.02,-58.26,14.4,-15.49,22.61,-17.39,7.032727272727272
12.875,30.32,-7.82,35.55,29.57,67.82,-20.91,-51.96,12.05,-18.88,18.55,-19.57,6.792727272727273
12.890625,30.73,-9.5,35.48,28.63,70.99,-22.7,-43.75,9.75,-21.77,14.98,-20.87,6.542727272727273
12.90625,30.54,-11.1,34.96,26.92,72.64,-24.69,-34.62,7.15,-24.2,11.82,-20.84,6.2345454545454535
12.921875,29.77,-12.38,34.04,24.84,73.26,-27.19,-25.48,3.95,-26.45,8.73,-19.27,5.801818181818183
12.9375,28.74,-13.26,32.76,22.73,73.43,-30.43,-16.89,0.09,-29.05,5.32,-16.29,5.195454545454545
12.953125,27.91,-13.86,31.25,20.85,73.59,-34.59,-9.07,-4.22,-32.56,1.34,-12.25,4.39909090909091
12.96875,27.65,-14.44,29.63,19.41,73.99,-39.64,-1.99,-8.56,-37.28,-3.2,-7.6,3.4518181818181812
12.984375,28.08,-15.27,28.08,18.56,74.55,-45.18,4.42,-12.52,-42.96,-8.02,-2.74,2.4545454545454546
13.0,28.98,-16.54,26.75,18.41,75.1,-50.27,10.2,-15.9,-48.77,-12.7,2.02,1.5709090909090897
13.015625,29.97,-18.28,25.72,19.03,75.41,-53.51,15.29,-18.82,-53.47,-16.9,6.36,0.9818181818181823
13.03125,30.65,-20.31,25.0,20.44,75.44,-53.46,19.63,-21.73,-55.77,-20.51,9.97,0.8499999999999993
13.046875,30.79,-22.29,24.51,22.54,75.36,-49.13,23.19,-25.19,-54.82,-23.78,12.53,1.2463636363636363
13.0625,30.4,-23.7,24.08,25.08,75.4,-40.58,26.03,-29.66,-50.45,-27.26,13.83,2.1063636363636373
13.078125,29.6,-23.95,23.5,27.69,75.62,-28.89,28.24,-35.28,-43.21,-31.63,13.87,3.232727272727273
13.09375,28.57,-22.56,22.55,30.01,75.77,-15.89,29.92,-41.74,-34.18,-37.46,12.92,4.355454545454545
13.109375,27.37,-19.33,21.1,31.77,75.31,-3.51,31.09,-48.27,-24.63,-44.94,11.39,5.213636363636365
13.125,26.0,-14.46,19.06,32.83,73.54,6.85,31.77,-53.79,-15.7,-53.57,9.7,5.657272727272727
13.140625,24.44,-8.59,16.48,33.2,70.04,14.58,31.98,-57.19,-8.14,-62.14,8.15,5.710000000000001
13.15625,22.75,-2.52,13.47,32.94,64.89,19.83,31.8,-57.59,-2.23,-68.92,6.92,5.576363636363635
13.171875,21.02,2.99,10.27,32.16,58.67,23.09,31.39,-54.68,2.16,-72.08,6.05,5.549090909090908
13.1875,19.41,7.51,7.17,30.94,52.28,24.92,30.93,-48.77,5.48,-70.35,5.54,5.914545454545456
13.203125,17.97,10.93,4.42,29.38,46.52,25.7,30.56,-40.71,8.25,-63.46,5.43,6.817272727272726
13.21875,16.64,13.4,2.13,27.53,41.77,25.58,30.31,-31.66,10.89,-52.33,5.73,8.180909090909092
13.234375,15.3,15.06,0.22,25.47,37.87,24.71,30.11,-22.63,13.62,-38.76,6.42,9.762727272727274
13.25,13.82,15.94,-1.63,23.2,34.23,23.26,29.81,-14.31,16.41,-24.88,7.4,11.204545454545455
13.265625,12.12,16.0,-3.86,20.71,30.17,21.61,29.22,-6.89,19.09,-12.44,8.46,12.19909090909091
13.28125,10.22,15.25,-6.88,17.99,25.22,20.22,28.27,-0.26,21.48,-2.37,9.34,12.589090909090908
13.296875,8.13,13.83,-10.83,15.08,19.33,19.48,26.98,5.87,23.44,5.23,9.8,12.394545454545455
13.3125,5.87,12.08,-15.5,12.08,12.84,19.58,25.48,11.68,24.97,10.97,9.73,11.798181818181819
13.328125,3.43,10.43,-20.4,9.17,6.33,20.44,23.92,17.15,26.13,15.61,9.14,11.031818181818181
13.34375,0.84,9.16,-24.89,6.51,0.36,21.76,22.39,22.13,26.99,19.75,8.2,10.290909090909091
13.359375,-1.78,8.27,-28.49,4.21,-4.75,23.16,20.83,26.41,27.56,23.63,7.07,9.647272727272725
13.375,-4.26,7.53,-31.09,2.29,-9.07,24.39,19.15,29.85,27.88,27.21,5.86,9.067272727272726
13.390625,-6.44,6.64,-32.94,0.69,-13.07,25.34,17.19,32.44,27.97,30.27,4.57,8.423636363636364
13.40625,-8.31,5.36,-34.68,-0.75,-17.47,26.09,14.87,34.32,27.91,32.65,3.12,7.5554545454545465
13.421875,-10.03,3.71,-37.05,-2.2,-23.08,26.75,12.23,35.68,27.77,34.31,1.42,6.319090909090909
13.4375,-11.85,1.94,-40.71,-3.77,-30.46,27.33,9.37,36.68,27.56,35.32,-0.57,4.621818181818181
13.453125,-14.0,0.41,-46.07,-5.52,-39.69,27.71,6.47,37.44,27.17,35.9,-2.83,2.453636363636363
13.46875,-16.57,-0.67,-53.01,-7.39,-50.13,27.63,3.64,37.94,26.42,36.25,-5.32,-0.11000000000000008
13.484375,-19.45,-1.29,-60.8,-9.29,-60.44,26.89,0.96,38.16,25.07,36.59,-7.98,-2.8709090909090897
13.5,-22.44,-1.69,-68.0,-11.16,-68.72,25.36,-1.65,38.09,23.0,37.07,-10.76,-5.536363636363634
13.515625,-25.32,-2.2,-72.74,-13.05,-72.96,23.12,-4.27,37.78,20.23,37.77,-13.47,-7.7372727272727255
13.53125,-27.98,-3.07,-73.17,-15.14,-71.61,20.35,-7.04,37.31,16.96,38.66,-15.72,-9.131818181818181
13.546875,-30.38,-4.31,-68.1,-17.6,-64.01,17.4,-10.06,36.71,13.51,39.63,-17.02,-9.475454545454543
13.5625,-32.58,-5.76,-57.58,-20.52,-50.71,14.57,-13.38,35.97,10.23,40.44,-16.87,-8.744545454545456
13.578125,-34.76,-7.21,-42.95,-23.78,-33.23,12.14,-16.98,34.95,7.38,40.82,-14.97,-7.1445454545454545
13.59375,-37.21,-8.51,-26.49,-27.12,-13.74,10.23,-20.8,33.53,5.03,40.46,-11.42,-5.094545454545455
13.609375,-40.29,-9.7,-10.61,-30.23,5.6,8.82,-24.75,31.62,3.08,39.1,-6.63,-3.0899999999999994
13.625,-44.29,-10.91,2.89,-32.92,23.02,7.73,-28.74,29.25,1.21,36.57,-1.27,-1.587272727272727
13.640625,-49.2,-12.28,13.27,-35.26,37.49,6.67,-32.73,26.51,-0.9,32.89,4.01,-0.866363636363635
13.65625,-54.47,-13.88,20.76,-37.49,48.66,5.34,-36.79,23.52,-3.54,28.31,8.67,-0.9918181818181814
13.671875,-59.0,-15.75,26.07,-40.03,56.7,3.57,-41.04,20.4,-6.74,23.23,12.37,-1.8381818181818188
13.6875,-61.4,-17.9,29.93,-43.25,61.99,1.37,-45.65,17.27,-10.3,18.2,14.85,-3.1718181818181814
13.703125,-60.44,-20.37,32.78,-47.35,64.95,-1.06,-50.71,14.28,-13.9,13.68,16.05,-4.7354545454545445
13.71875,-55.58,-23.12,34.78,-52.2,65.96,-3.45,-56.02,11.55,-17.22,9.92,16.02,-6.3054545454545465
13.734375,-47.18,-25.92,36.06,-57.3,65.37,-5.55,-61.11,9.17,-20.12,6.81,15.03,-7.703636363636362
13.75,-36.38,-28.29,36.78,-61.78,63.58,-7.26,-65.15,7.02,-22.75,3.93,13.56,-8.794545454545455
13.765625,-24.73,-29.53,37.19,-64.6,61.11,-8.67,-67.24,4.85,-25.5,0.78,12.14,-9.472727272727273
13.78125,-13.65,-29.0,37.45,-64.75,58.5,-10.0,-66.68,2.31,-28.87,-3.04,11.18,-9.686363636363637
13.796875,-4.04,-26.32,37.48,-61.59,56.25,-11.49,-63.17,-0.8,-33.29,-7.51,10.79,-9.426363636363636
13.8125,3.79,-21.6,37.08,-55.0,54.68,-13.29,-57.04,-4.44,-38.92,-12.27,10.82,-8.744545454545454
13.828125,10.0,-15.38,35.99,-45.5,53.85,-15.42,-49.01,-8.26,-45.54,-16.79,10.96,-7.736363636363635
13.84375,14.93,-8.52,34.18,-34.02,53.57,-17.75,-40.0,-11.84,-52.45,-20.65,10.98,-6.506363636363637
13.859375,18.89,-1.86,31.96,-21.72,53.53,-20.11,-30.81,-14.86,-58.54,-23.83,10.83,-5.138181818181818
13.875,22.05,3.98,29.82,-9.67,53.47,-22.33,-21.97,-17.36,-62.57,-26.76,10.59,-3.7045454545454546
13.890625,24.47,8.69,28.28,1.28,53.18,-24.4,-13.7,-19.69,-63.45,-30.17,10.42,-2.280909090909091
13.90625,26.21,12.3,27.6,10.58,52.55,-26.41,-6.07,-22.38,-60.66,-34.83,10.36,-0.9772727272727273
13.921875,27.32,14.99,27.7,17.92,51.44,-28.55,0.94,-25.84,-54.41,-41.18,10.36,0.06272727272727317
13.9375,27.91,16.97,28.18,23.16,49.61,-31.11,7.28,-30.27,-45.61,-49.1,10.25,0.6609090909090912
13.953125,28.07,18.34,28.56,26.33,46.79,-34.39,12.94,-35.55,-35.6,-57.77,9.9,0.6927272727272726
13.96875,27.88,19.09,28.43,27.62,42.82,-38.62,17.88,-41.2,-25.7,-65.79,9.24,0.1499999999999984
13.984375,27.42,19.11,27.6,27.41,37.75,-43.74,22.08,-46.49,-16.86,-71.47,8.25,-0.8127272727272725
14.0,26.82,18.36,26.1,26.16,31.89,-49.27,25.55,-50.51,-9.46,-73.21,6.95,-1.8745454545454547
14.015625,26.25,16.91,24.1,24.41,25.7,-54.25,28.26,-52.38,-3.41,-70.03,5.36,-2.6436363636363636
14.03125,25.89,15.03,21.8,22.64,19.56,-57.4,30.21,-51.49,1.67,-61.88,3.45,-2.7745454545454553
14.046875,25.93,13.05,19.37,21.15,13.68,-57.45,31.45,-47.7,6.21,-49.79,1.26,-2.076363636363637
14.0625,26.46,11.28,16.93,20.07,8.02,-53.64,32.16,-41.44,10.56,-35.59,-1.13,-0.5745454545454544
14.078125,27.47,9.84,14.44,19.37,2.42,-45.99,32.62,-33.57,14.93,-21.41,-3.58,1.5036363636363637
14.09375,28.83,8.73,11.81,18.99,-3.25,-35.34,33.09,-25.12,19.32,-8.97,-5.97,3.8290909090909087
14.109375,30.32,7.84,8.92,18.94,-8.99,-23.15,33.71,-16.93,23.64,0.8,-8.25,6.077272727272727
14.125,31.68,7.06,5.71,19.39,-14.59,-11.0,34.41,-9.46,27.64,7.93,-10.48,8.026363636363637
14.140625,32.67,6.34,2.27,20.5,-19.85,-0.19,34.98,-2.79,31.08,13.09,-12.74,9.578181818181818
14.15625,33.13,5.66,-1.14,22.35,-24.6,8.51,35.15,3.22,33.76,17.16,-15.04,10.741818181818182
14.171875,33.0,5.03,-4.21,24.83,-28.9,14.86,34.76,8.7,35.64,20.75,-17.25,11.564545454545453
14.1875,32.33,4.39,-6.8,27.58,-33.01,18.99,33.84,13.65,36.84,24.05,-19.13,12.066363636363638
14.203125,31.3,3.72,-9.0,30.13,-37.3,21.2,32.57,17.93,37.57,26.89,-20.35,12.241818181818182
14.21875,30.05,2.96,-11.22,32.11,-42.21,21.85,31.15,21.39,38.09,29.0,-20.61,12.05090909090909
14.234375,28.68,2.07,-13.93,33.28,-48.16,21.31,29.71,24.05,38.57,30.29,-19.75,11.465454545454547
14.25,27.24,0.97,-17.42,33.68,-55.41,20.03,28.25,26.06,39.08,30.96,-17.69,10.522727272727273
14.265625,25.64,-0.42,-21.6,33.43,-63.9,18.52,26.67,27.7,39.58,31.4,-14.53,9.317272727272728
14.28125,23.84,-2.26,-26.07,32.68,-73.03,17.28,24.91,29.16,39.9,32.02,-10.46,7.997272727272727
14.296875,21.85,-4.66,-30.22,31.49,-81.54,16.65,23.0,30.48,39.89,33.04,-5.79,6.744545454545453
14.3125,19.77,-7.58,-33.63,29.86,-87.62,16.74,21.03,31.48,39.4,34.46,-0.94,5.724545454545454
14.328125,17.74,-10.77,-36.26,27.79,-89.35,17.37,19.11,31.98,38.35,36.12,3.63,5.064545454545456
14.34375,15.85,-13.73,-38.46,25.34,-85.27,18.23,17.22,31.9,36.76,37.83,7.45,4.829090909090909
14.359375,14.06,-15.97,-40.84,22.68,-74.98,19.02,15.27,31.41,34.73,39.44,10.19,5.000909090909089
14.375,12.26,-17.12,-44.05,19.97,-59.34,19.64,13.08,30.83,32.37,40.85,11.75,5.476363636363636
14.390625,10.29,-17.21,-48.56,17.39,-40.23,20.21,10.56,30.46,29.76,41.94,12.21,6.074545454545454
14.40625,8.08,-16.62,-54.41,15.0,-19.99,20.97,7.71,30.39,26.9,42.5,11.84,6.579090909090909
14.421875,5.63,-16.0,-61.15,12.76,-0.7,22.15,4.66,30.43,23.76,42.3,10.94,6.798181818181818
14.4375,3.09,-15.99,-67.7,10.61,16.36,23.73,1.52,30.23,20.32,41.11,9.75,6.63909090909091
14.453125,0.61,-16.94,-72.52,8.46,30.72,25.51,-1.68,29.43,16.7,38.86,8.44,6.1445454545454545
14.46875,-1.68,-18.86,-73.95,6.29,42.5,27.09,-5.03,27.92,13.12,35.74,7.1,5.476363636363637
14.484375,-3.74,-21.35,-70.69,4.09,52.0,28.06,-8.64,25.8,9.78,32.16,5.84,4.846363636363637
14.5,-5.66,-23.81,-62.35,1.91,59.43,28.14,-12.55,23.3,6.81,28.62,4.8,4.421818181818181
14.515625,-7.65,-25.54,-49.68,-0.23,64.87,27.22,-16.68,20.69,4.15,25.52,4.17,4.25818181818182
14.53125,-9.93,-25.96,-34.4,-2.32,68.33,25.37,-20.82,18.14,1.53,23.03,4.05,4.274545454545455
14.546875,-12.7,-24.62,-18.68,-4.37,69.9,22.78,-24.72,15.76,-1.33,20.99,4.4,4.3100000000000005
14.5625,-15.94,-21.35,-4.41,-6.41,69.87,19.79,-28.3,13.59,-4.6,18.99,4.97,4.199999999999999
14.578125,-19.5,-16.27,7.25,-8.45,68.62,16.75,-31.65,11.63,-8.23,16.59,5.42,3.832727272727274
14.59375,-23.0,-9.8,16.09,-10.53,66.55,14.03,-35.07,9.81,-11.99,13.49,5.45,3.1845454545454555
14.609375,-26.04,-2.6,22.51,-12.7,64.01,11.84,-38.94,7.97,-15.57,9.73,4.95,2.2872727272727285
14.625,-28.33,4.61,27.17,-15.03,61.24,10.2,-43.58,5.83,-18.83,5.63,4.07,1.18
14.640625,-29.83,11.16,30.56,-17.57,58.46,8.9,-49.06,3.15,-21.87,1.72,3.07,-0.11909090909090958
14.65625,-30.87,16.6,32.91,-20.35,55.86,7.62,-55.05,-0.12,-24.98,-1.55,2.19,-1.612727272727273
14.671875,-32.03,20.72,34.29,-23.32,53.64,6.07,-60.9,-3.82,-28.56,-4.08,1.49,-3.3181818181818175
14.6875,-33.97,23.48,34.78,-26.35,51.9,4.2,-65.64,-7.6,-32.96,-6.15,0.86,-5.222727272727273
14.703125,-37.19,24.97,34.59,-29.29,50.59,2.15,-68.28,-11.01,-38.4,-8.36,0.12,-7.282727272727272
14.71875,-41.74,25.33,34.04,-32.04,49.45,0.26,-68.09,-13.77,-44.9,-11.39,-0.87,-9.42909090909091
14.734375,-47.12,24.75,33.43,-34.62,48.08,-1.23,-64.83,-15.87,-52.26,-15.74,-2.09,-11.59090909090909
14.75,-52.32,23.43,32.94,-37.21,46.02,-2.32,-58.81,-17.64,-60.03,-21.51,-3.43,-13.716363636363637
14.765625,-56.03,21.64,32.61,-40.13,42.94,-3.22,-50.76,-19.57,-67.33,-28.27,-4.8,-15.720000000000004
14.78125,-57.03,19.69,32.37,-43.68,38.76,-4.38,-41.58,-22.23,-72.95,-35.05,-6.24,-17.483636363636368
14.796875,-54.52,17.82,32.16,-48.02,33.67,-6.2,-32.03,-26.01,-75.55,-40.54,-7.87,-18.826363636363638
14.8125,-48.33,16.21,32.01,-52.96,28.1,-8.88,-22.63,-30.95,-74.08,-43.3,-9.89,-19.518181818181816
14.828125,-39.01,14.87,32.0,-57.89,22.49,-12.3,-13.62,-36.68,-68.19,-42.24,-12.29,-19.350909090909088
14.84375,-27.66,13.73,32.23,-61.85,17.17,-16.03,-5.07,-42.36,-58.52,-36.91,-14.87,-18.194545454545455
14.859375,-15.63,12.64,32.68,-63.78,12.18,-19.57,3.0,-46.85,-46.54,-27.78,-17.19,-16.076363636363638
14.875,-4.24,11.53,33.22,-62.78,7.34,-22.47,10.53,-49.02,-34.09,-16.18,-18.72,-13.170909090909094
14.890625,5.5,10.4,33.58,-58.39,2.3,-24.55,17.39,-48.11,-22.74,-3.97,-19.0,-9.780909090909091
14.90625,13.01,9.36,33.49,-50.76,-3.22,-25.97,23.47,-44.02,-13.33,7.08,-17.8,-6.244545454545454
14.921875,18.18,8.51,32.8,-40.55,-9.31,-27.11,28.65,-37.39,-5.91,15.79,-15.13,-2.860909090909092
14.9375,21.33,7.87,31.55,-28.8,-15.83,-28.49,32.89,-29.41,0.1,21.85,-11.28,0.1618181818181816
14.953125,23.01,7.36,29.88,-16.63,-22.43,-30.57,36.17,-21.35,5.39,25.78,-6.69,2.7200000000000006
14.96875,23.83,6.8,27.94,-5.06,-28.71,-33.66,38.58,-14.07,10.55,28.45,-1.88,4.797272727272728
14.984375,24.27,6.06,25.81,5.18,-34.36,-37.8,40.24,-7.84,15.84,30.62,2.66,6.425454545454546
15.0,24.54,5.09,23.44,13.62,-39.31,-42.71,41.33,-2.42,21.25,32.65,6.56,7.64
15.015625,24.68,3.95,20.76,20.07,-43.78,-47.71,42.08,2.61,26.56,34.38,9.59,8.47181818181818
15.03125,24.59,2.72,17.72,24.57,-48.32,-51.81,42.63,7.49,31.51,35.47,11.67,8.930909090909092
15.046875,24.26,1.41,14.42,27.28,-53.69,-53.8,43.1,12.09,35.8,35.7,12.78,9.031818181818183
15.0625,23.82,-0.06,10.98,28.47,-60.54,-52.58,43.51,16.1,39.21,35.22,13.06,8.835454545454546
15.078125,23.49,-1.78,7.62,28.46,-69.07,-47.51,43.81,19.19,41.65,34.48,12.65,8.453636363636365
15.09375,23.46,-3.82,4.43,27.61,-78.65,-38.69,43.93,21.29,43.17,34.06,11.76,8.049999999999999
15.109375,23.84,-6.1,1.42,26.26,-87.72,-27.0,43.76,22.62,44.0,34.27,10.61,7.814545454545454
15.125,24.56,-8.41,-1.48,24.68,-94.17,-13.94,43.2,23.54,44.42,35.06,9.41,7.897272727272727
15.140625,25.51,-10.56,-4.41,23.11,-95.88,-1.17,42.2,24.33,44.74,36.05,8.33,8.386363636363637
15.15625,26.53,-12.4,-7.45,21.7,-91.49,9.93,40.74,25.1,45.14,36.74,7.49,9.275454545454545
15.171875,27.5,-13.91,-10.66,20.61,-80.96,18.59,38.89,25.77,45.71,36.79,6.97,10.481818181818182
15.1875,28.35,-15.27,-13.98,20.0,-65.55,24.68,36.79,26.21,46.37,36.09,6.77,11.860000000000001
15.203125,28.97,-16.76,-17.34,20.04,-47.41,28.46,34.59,26.33,46.99,34.73,6.87,13.224545454545455
15.21875,29.22,-18.64,-20.63,20.89,-28.86,30.34,32.39,26.18,47.35,32.86,7.19,14.390000000000002
15.234375,29.0,-21.02,-23.78,22.56,-11.73,30.67,30.21,25.9,47.18,30.55,7.57,15.191818181818183
15.25,28.28,-23.69,-26.78,24.91,3.01,29.7,27.94,25.6,46.27,27.83,7.84,15.537272727272727
15.265625,27.15,-26.13,-29.64,27.66,15.22,27.75,25.41,25.37,44.48,24.69,7.76,15.429090909090906
15.28125,25.77,-27.57,-32.51,30.44,25.25,25.23,22.51,25.16,41.89,21.19,7.22,14.961818181818183
15.296875,24.28,-27.3,-35.56,32.87,33.66,22.72,19.25,24.84,38.72,17.46,6.22,14.287272727272727
15.3125,22.78,-24.85,-39.14,34.69,40.82,20.79,15.79,24.19,35.33,13.62,4.86,13.534545454545453
15.328125,21.27,-20.28,-43.6,35.74,46.93,19.84,12.34,23.05,32.08,9.69,3.31,12.760909090909092
15.34375,19.78,-14.1,-49.13,35.93,51.98,19.95,9.11,21.32,29.18,5.65,1.71,11.943636363636363
15.359375,18.29,-7.1,-55.44,35.27,55.9,20.92,6.17,19.04,26.61,1.38,0.09,11.011818181818184
15.375,16.83,-0.13,-61.51,33.84,58.66,22.41,3.44,16.43,24.22,-3.15,-1.56,9.952727272727271
15.390625,15.35,6.2,-65.67,31.84,60.27,24.18,0.72,13.83,21.72,-7.83,-3.27,8.84909090909091
15.40625,13.73,11.55,-66.07,29.48,60.82,26.11,-2.22,11.55,18.84,-12.44,-5.08,7.8427272727272745
15.421875,11.78,15.81,-61.31,26.99,60.42,28.16,-5.49,9.78,15.49,-16.75,-6.96,7.083636363636364
15.4375,9.45,18.99,-51.14,24.5,59.22,30.21,-9.1,8.48,11.78,-20.64,-8.94,6.619090909090909
15.453125,6.78,21.11,-36.66,22.05,57.44,31.99,-12.93,7.42,8.05,-24.15,-11.05,6.368181818181818
15.46875,4.04,22.16,-20.0,19.6,55.4,33.12,-16.79,6.24,4.66,-27.54,-13.36,6.139090909090908
15.484375,1.53,22.16,-3.6,17.11,53.44,33.24,-20.53,4.66,1.92,-31.21,-15.87,5.713636363636364
15.5,-0.54,21.19,10.49,14.54,51.9,32.29,-24.12,2.5,-0.18,-35.61,-18.48,4.907272727272726
15.515625,-2.14,19.43,21.22,11.95,51.01,30.46,-27.66,-0.14,-1.87,-41.11,-20.93,3.656363636363636
15.53125,-3.51,17.17,28.53,9.38,50.8,28.17,-31.44,-3.06,-3.61,-47.82,-22.81,1.9818181818181826
15.546875,-4.97,14.75,33.04,6.9,51.07,25.78,-35.75,-5.96,-5.79,-55.38,-23.73,-0.0036363636363658195
15.5625,-6.84,12.52,35.55,4.54,51.4,23.47,-40.88,-8.61,-8.62,-62.85,-23.35,-2.1518181818181814
15.578125,-9.27,10.68,36.69,2.36,51.23,21.15,-46.92,-10.86,-12.06,-68.83,-21.55,-4.3072727272727285
15.59375,-12.26,9.29,36.75,0.4,49.97,18.6,-53.66,-12.68,-15.89,-71.73,-18.46,-6.333636363636365
15.609375,-15.64,8.2,35.9,-1.29,47.2,15.67,-60.52,-14.17,-19.93,-70.33,-14.4,-8.11909090909091
15.625,-19.16,7.22,34.31,-2.73,42.78,12.4,-66.58,-15.56,-24.17,-64.21,-9.87,-9.597272727272726
15.640625,-22.61,6.16,32.31,-4.02,37.01,9.05,-70.8,-17.23,-28.84,-54.01,-5.33,-10.755454545454544
15.65625,-25.79,5.0,30.37,-5.36,30.51,5.95,-72.24,-19.61,-34.32,-41.31,-1.16,-11.632727272727271
15.671875,-28.6,3.83,28.95,-6.92,24.07,3.31,-70.37,-23.05,-40.95,-28.1,2.44,-12.30818181818182
15.6875,-31.01,2.79,28.25,-8.84,18.34,1.15,-65.24,-27.51,-48.82,-16.22,5.4,-12.882727272727273
15.703125,-33.13,1.96,28.16,-11.11,13.54,-0.77,-57.46,-32.47,-57.51,-6.72,7.75,-13.432727272727275
15.71875,-35.2,1.25,28.31,-13.61,9.42,-2.75,-48.0,-36.92,-66.14,0.23,9.47,-13.994545454545454
15.734375,-37.6,0.41,28.32,-16.11,5.36,-5.09,-37.89,-39.7,-73.4,5.22,10.51,-14.542727272727275
15.75,-40.78,-0.8,28.05,-18.45,0.72,-7.93,-27.9,-39.83,-77.87,9.12,10.85,-14.983636363636363
15.765625,-44.97,-2.58,27.63,-20.53,-4.9,-11.24,-18.45,-36.93,-78.34,12.65,10.53,-15.193636363636363
15.78125,-50.06,-4.9,27.32,-22.37,-11.38,-14.8,-9.56,-31.3,-74.26,16.1,9.71,-15.045454545454545
15.796875,-55.33,-7.58,27.34,-24.1,-18.25,-18.29,-1.07,-23.85,-65.91,19.31,8.72,-14.455454545454545
15.8125,-59.61,-10.29,27.6,-25.95,-24.87,-21.41,7.18,-15.75,-54.45,21.94,7.85,-13.432727272727275
15.828125,-61.53,-12.68,27.75,-28.2,-30.7,-23.96,15.17,-8.07,-41.48,23.69,7.34,-12.06090909090909
15.84375,-59.97,-14.57,27.37,-31.15,-35.54,-25.9,22.64,-1.48,-28.68,24.56,7.24,-10.498181818181818
15.859375,-54.46,-15.92,26.19,-35.0,-39.47,-27.44,29.22,3.79,-17.29,24.86,7.47,-8.913636363636364
15.875,-45.43,-16.92,24.24,-39.7,-42.89,-28.94,34.54,7.88,-7.91,25.04,7.84,-7.4772727272727275
15.890625,-34.05,-17.94,21.76,-44.85,-46.32,-30.9,38.44,11.08,-0.45,25.5,8.24,-6.317272727272728
15.90625,-21.85,-19.32,19.05,-49.66,-50.26,-33.8,41.03,13.66,5.63,26.44,8.57,-5.500909090909092
15.921875,-10.26,-21.36,16.22,-53.09,-55.16,-37.95,42.64,15.71,11.03,27.77,8.84,-5.055454545454546
15.9375,-0.27,-24.09,13.25,-54.11,-61.16,-43.29,43.68,17.23,16.26,29.19,9.0,-4.937272727272727
15.953125,7.76,-27.24,10.0,-51.98,-67.95,-49.31,44.48,18.19,21.6,30.33,8.96,-5.014545454545454
15.96875,13.93,-30.25,6.49,-46.46,-74.69,-54.95,45.18,18.64,26.98,30.88,8.59,-5.059999999999999
15.984375,18.64,-32.4,2.94,-37.93,-80.04,-58.76,45.78,18.78,32.09,30.69,7.78,-4.766363636363637
16.0,22.25,-32.97,-0.32,-27.25,-82.44,-59.32,46.21,18.87,36.54,29.75,6.57,-3.8281818181818186
16.015625,25.04,-31.46,-3.07,-15.6,-80.65,-55.68,46.46,19.15,39.99,28.16,5.11,-2.050000000000001
16.03125,27.09,-27.74,-5.4,-4.16,-74.13,-47.72,46.55,19.67,42.31,26.0,3.65,0.5563636363636376
16.046875,28.41,-22.09,-7.7,6.04,-63.33,-36.29,46.51,20.31,43.61,23.3,2.39,3.741818181818181
16.0625,29.04,-15.13,-10.47,14.33,-49.59,-22.9,46.31,20.83,44.16,20.02,1.37,7.088181818181817
16.078125,29.11,-7.66,-13.97,20.39,-34.73,-9.34,45.82,21.01,44.35,16.15,0.48,10.146363636363636
16.09375,28.84,-0.41,-18.09,24.27,-20.45,2.86,44.83,20.78,44.49,11.77,-0.55,12.576363636363636
16.109375,28.49,6.1,-22.36,26.25,-7.92,12.77,43.21,20.24,44.74,7.06,-1.97,14.237272727272728
16.125,28.27,11.6,-26.29,26.7,2.46,20.11,40.94,19.57,45.11,2.25,-3.92,15.163636363636364
16.140625,28.25,16.01,-29.58,25.96,10.93,25.13,38.2,18.92,45.54,-2.45,-6.43,15.49818181818182
16.15625,28.42,19.34,-32.33,24.34,18.06,28.3,35.3,18.33,45.9,-6.99,-9.32,15.395454545454545
16.171875,28.67,21.59,-34.94,22.08,24.36,30.12,32.55,17.67,46.06,-11.42,-12.33,14.946363636363639
16.1875,28.93,22.76,-37.93,19.5,30.09,30.97,30.12,16.78,45.87,-15.81,-15.07,14.200909090909091
16.203125,29.2,22.88,-41.75,17.0,35.19,31.1,27.99,15.51,45.19,-20.17,-17.17,13.179090909090906
16.21875,29.51,22.1,-46.75,15.0,39.38,30.71,25.93,13.87,43.96,-24.44,-18.24,11.911818181818182
16.234375,29.88,20.69,-53.08,13.86,42.42,30.0,23.62,12.01,42.16,-28.53,-18.03,10.454545454545455
16.25,30.29,18.97,-60.63,13.76,44.23,29.2,20.83,10.16,39.87,-32.47,-16.47,8.885454545454543
16.265625,30.61,17.25,-68.76,14.66,44.97,28.66,17.51,8.48,37.2,-36.53,-13.68,7.306363636363634
16.28125,30.7,15.7,-76.2,16.37,44.91,28.64,13.84,6.96,34.33,-41.19,-10.0,5.823636363636362
16.296875,30.45,14.28,-81.16,18.64,44.38,29.32,10.14,5.39,31.36,-46.93,-5.84,4.548181818181818
16.3125,29.81,12.84,-81.78,21.25,43.6,30.67,6.7,3.54,28.37,-53.99,-1.54,3.588181818181818
16.328125,28.81,11.21,-76.8,24.0,42.7,32.46,3.63,1.26,25.37,-61.98,2.6,3.023636363636364
16.34375,27.55,9.35,-66.17,26.67,41.71,34.43,0.76,-1.4,22.37,-69.81,6.43,2.89909090909091
16.359375,26.1,7.37,-51.17,29.0,40.7,36.29,-2.21,-4.18,19.34,-75.83,9.8,3.2009090909090916
16.375,24.52,5.51,-33.98,30.72,39.78,37.88,-5.56,-6.78,16.27,-78.22,12.59,3.8845454545454547
16.390625,22.81,3.99,-16.97,31.59,39.03,39.14,-9.41,-9.02,13.16,-75.7,14.64,4.841818181818181
16.40625,20.97,2.88,-1.98,31.54,38.5,40.04,-13.61,-10.91,9.96,-68.03,15.87,5.929999999999999
16.421875,19.01,2.03,10.1,30.66,38.05,40.54,-17.87,-12.65,6.64,-56.14,16.32,6.971818181818182
16.4375,16.98,1.13,19.24,29.15,37.48,40.55,-21.89,-14.51,3.1,-41.92,16.13,7.767272727272726
16.453125,14.92,-0.12,25.91,27.21,36.55,40.0,-25.52,-16.76,-0.67,-27.58,15.56,8.136363636363637
16.46875,12.91,-1.85,30.67,25.03,35.11,38.87,-28.84,-19.6,-4.68,-14.93,14.92,7.964545454545455
16.484375,10.98,-3.98,33.95,22.7,33.17,37.23,-32.05,-23.07,-8.81,-4.91,14.42,7.23909090909091
16.5,9.16,-6.27,36.05,20.29,30.85,35.25,-35.51,-27.02,-12.88,2.47,14.17,6.05090909090909
16.515625,7.39,-8.47,37.25,17.88,28.29,33.15,-39.53,-31.01,-16.74,7.92,14.17,4.572727272727271
16.53125,5.61,-10.49,37.82,15.56,25.57,31.15,-44.37,-34.32,-20.33,12.34,14.38,2.9927272727272727
16.546875,3.69,-12.43,38.07,13.38,22.64,29.38,-50.09,-36.04,-23.76,16.47,14.71,1.4563636363636363
16.5625,1.56,-14.49,38.19,11.33,19.47,27.84,-56.46,-35.42,-27.33,20.62,15.08,0.03545454545454599
16.578125,-0.75,-16.83,38.2,9.3,16.01,26.42,-62.9,-32.14,-31.48,24.7,15.44,-1.2754545454545445
16.59375,-3.11,-19.49,38.02,7.17,12.35,24.89,-68.44,-26.54,-36.59,28.42,15.76,-2.5054545454545436
16.609375,-5.35,-22.38,37.5,4.87,8.65,23.08,-71.96,-19.52,-42.85,31.43,15.93,-3.6909090909090905
16.625,-7.33,-25.41,36.65,2.47,5.07,20.92,-72.49,-12.22,-50.08,33.59,15.88,-4.813636363636362
16.640625,-9.11,-28.51,35.65,0.09,1.64,18.52,-69.53,-5.62,-57.64,34.94,15.51,-5.823636363636365
16.65625,-10.96,-31.62,34.84,-2.12,-1.77,16.12,-63.29,-0.23,-64.46,35.71,14.73,-6.640909090909088
16.671875,-13.21,-34.59,34.53,-4.04,-5.47,13.96,-54.55,3.95,-69.2,36.17,13.52,-7.175454545454546
16.6875,-16.11,-37.01,34.85,-5.74,-9.69,12.17,-44.41,7.2,-70.61,36.48,11.91,-7.36
16.703125,-19.67,-38.22,35.69,-7.33,-14.51,10.65,-33.9,9.83,-67.83,36.73,10.0,-7.141818181818182
16.71875,-23.58,-37.48,36.7,-8.96,-19.73,9.16,-23.71,11.94,-60.7,36.91,7.93,-6.501818181818183
16.734375,-27.38,-34.22,37.42,-10.75,-24.97,7.4,-14.16,13.47,-49.93,37.0,5.88,-5.476363636363636
16.75,-30.65,-28.38,37.44,-12.72,-29.82,5.14,-5.22,14.33,-36.91,37.03,3.94,-4.165454545454545
16.765625,-33.18,-20.48,36.58,-14.86,-34.06,2.33,3.17,14.52,-23.37,36.96,2.19,-2.745454545454546
16.78125,-35.13,-11.43,34.85,-17.16,-37.75,-0.94,11.01,14.26,-10.88,36.65,0.6,-1.4472727272727275
16.796875,-36.88,-2.32,32.43,-19.59,-41.19,-4.49,18.23,13.9,-0.49,35.85,-0.96,-0.5009090909090906
16.8125,-38.94,6.0,29.53,-22.13,-44.84,-8.04,24.66,13.76,7.52,34.23,-2.62,-0.07909090909090975
16.828125,-41.79,13.03,26.33,-24.74,-49.16,-11.39,30.18,14.0,13.52,31.59,-4.61,-0.2763636363636357
16.84375,-45.72,18.63,22.93,-27.38,-54.49,-14.35,34.73,14.59,18.3,27.96,-7.01,-1.073636363636364
16.859375,-50.72,22.87,19.38,-30.03,-60.94,-16.9,38.28,15.3,22.67,23.65,-9.79,-2.3845454545454547
16.875,-56.39,25.88,15.66,-32.81,-68.18,-19.22,40.91,15.89,27.1,19.14,-12.69,-4.064545454545456
16.890625,-61.92,27.71,11.79,-35.95,-75.41,-21.68,42.71,16.1,31.62,14.84,-15.33,-5.956363636363636
16.90625,-66.18,28.39,7.86,-39.67,-81.27,-24.84,43.85,15.83,35.94,10.94,-17.28,-7.857272727272728
16.921875,-67.93,28.0,4.06,-44.08,-84.18,-29.18,44.51,15.03,39.63,7.36,-18.16,-9.540000000000001
16.9375,-66.19,26.75,0.61,-48.96,-82.67,-34.94,44.93,13.79,42.35,3.86,-17.78,-10.750000000000002
16.953125,-60.55,24.89,-2.3,-53.68,-76.0,-41.93,45.25,12.27,44.03,0.23,-16.16,-11.268181818181818
16.96875,-51.32,22.75,-4.73,-57.32,-64.41,-49.43,45.54,10.66,44.77,-3.6,-13.5,-10.962727272727271
16.984375,-39.54,20.6,-6.95,-58.84,-49.19,-56.22,45.77,9.09,44.77,-7.46,-10.08,-9.82272727272727
17.0,-26.64,18.57,-9.42,-57.41,-32.23,-60.9,45.85,7.63,44.21,-11.11,-6.18,-7.966363636363636
17.015625,-14.12,16.69,-12.62,-52.66,-15.48,-62.14,45.65,6.19,43.26,-14.29,-2.08,-5.6000000000000005
17.03125,-3.13,14.87,-16.74,-44.8,-0.35,-59.13,45.09,4.58,42.07,-16.96,1.96,-2.958181818181818
17.046875,5.7,13.03,-21.61,-34.57,12.54,-51.89,44.07,2.58,40.82,-19.38,5.62,-0.2809090909090913
17.0625,12.36,11.13,-26.69,-23.06,23.29,-41.24,42.56,0.05,39.73,-22.1,8.61,2.2399999999999993
17.078125,17.24,9.18,-31.34,-11.4,32.39,-28.67,40.56,-2.95,38.93,-25.81,10.71,4.4399999999999995
17.09375,20.89,7.3,-35.13,-0.61,40.36,-15.9,38.14,-6.19,38.44,-31.11,11.86,6.1863636363636365
17.109375,23.81,5.61,-38.07,8.64,47.49,-4.42,35.46,-9.38,38.1,-38.14,12.15,7.386363636363638
17.125,26.3,4.22,-40.55,15.97,53.85,4.82,32.7,-12.21,37.59,-46.41,11.82,8.009090909090908
17.140625,28.43,3.11,-43.24,21.3,59.33,11.48,29.98,-14.51,36.63,-54.75,11.13,8.08090909090909
17.15625,30.14,2.15,-46.8,24.7,63.89,15.75,27.37,-16.32,34.99,-61.47,10.27,7.697272727272727
17.171875,31.36,1.06,-51.76,26.4,67.57,18.09,24.83,-17.77,32.63,-64.86,9.36,6.991818181818181
17.1875,32.07,-0.41,-58.36,26.71,70.56,19.01,22.27,-19.16,29.66,-63.68,8.5,6.106363636363638
17.203125,32.33,-2.42,-66.38,26.01,73.11,19.04,19.63,-20.81,26.27,-57.62,7.74,5.172727272727273
17.21875,32.23,-4.95,-75.04,24.69,75.42,18.58,16.93,-23.05,22.71,-47.41,7.15,4.296363636363635
17.234375,31.91,-7.77,-82.87,23.12,77.63,17.97,14.23,-26.08,19.23,-34.63,6.75,3.5900000000000003
17.25,31.43,-10.59,-87.94,21.58,79.84,17.44,11.63,-29.88,16.02,-21.19,6.49,3.166363636363636
17.265625,30.92,-13.15,-88.31,20.25,82.21,17.1,9.17,-34.09,13.22,-8.77,6.28,3.166363636363636
17.28125,30.48,-15.37,-82.74,19.24,84.91,17.05,6.83,-38.03,10.83,1.62,6.03,3.7136363636363625
17.296875,30.24,-17.33,-71.28,18.7,88.13,17.31,4.47,-40.76,8.68,9.77,5.69,4.874545454545455
17.3125,30.32,-19.25,-55.36,18.74,91.93,17.97,1.92,-41.37,6.51,16.05,5.3,6.614545454545455
17.328125,30.77,-21.36,-37.36,19.49,96.25,19.06,-0.99,-39.29,3.95,21.12,4.87,8.773636363636363
17.34375,31.53,-23.86,-19.83,20.94,100.84,20.58,-4.39,-34.5,0.76,25.56,4.38,11.091818181818182
17.359375,32.45,-26.82,-4.66,22.99,105.43,22.38,-8.35,-27.68,-3.11,29.69,3.78,13.281818181818183
17.375,33.28,-30.19,7.33,25.34,109.88,24.24,-12.81,-19.93,-7.45,33.49,2.96,15.103636363636365
17.390625,33.76,-33.7,16.3,27.66,114.2,25.95,-17.6,-12.43,-11.86,36.8,1.89,16.45181818181818
17.40625,33.71,-36.85,22.95,29.67,118.53,27.32,-22.42,-6.03,-15.93,39.39,0.62,17.36
17.421875,33.05,-38.9,28.02,31.19,122.99,28.3,-27.0,-1.02,-19.46,41.12,-0.75,17.958181818181817
17.4375,31.85,-39.04,32.06,32.17,127.6,28.85,-31.15,2.81,-22.62,42.04,-2.1,18.406363636363633
17.453125,30.28,-36.62,35.29,32.6,132.22,28.95,-34.9,5.86,-25.83,42.33,-3.41,18.797272727272727
17.46875,28.55,-31.4,37.78,32.51,136.66,28.5,-38.52,8.45,-29.66,42.26,-4.72,19.12818181818182
17.484375,26.75,-23.67,39.6,31.85,140.77,27.45,-42.45,10.62,-34.52,42.17,-6.1,19.315454545454546
17.5,24.87,-14.29,40.84,30.58,144.59,25.82,-47.14,12.23,-40.56,42.3,-7.6,19.240000000000002
17.515625,22.78,-4.38,41.59,28.71,148.23,23.8,-52.7,13.16,-47.49,42.79,-9.2,18.844545454545457
17.53125,20.39,4.97,41.93,26.31,151.84,21.68,-58.82,13.49,-54.64,43.62,-10.87,18.172727272727272
17.546875,17.75,12.98,41.91,23.53,155.45,19.71,-64.71,13.54,-60.99,44.59,-12.57,17.380909090909093
17.5625,15.07,19.3,41.6,20.59,158.86,17.98,-69.27,13.67,-65.32,45.4,-14.28,16.69090909090909
17.578125,12.66,23.95,41.1,17.63,161.54,16.4,-71.39,14.06,-66.44,45.66,-15.92,16.295454545454547
17.59375,10.74,27.12,40.54,14.8,162.66,14.75,-70.37,14.61,-63.51,45.03,-17.34,16.275454545454547
17.609375,9.3,29.05,40.06,12.21,161.09,12.93,-66.06,15.02,-56.38,43.25,-18.28,16.562727272727276
17.625,8.09,29.93,39.81,9.92,155.56,10.94,-58.94,14.95,-45.74,40.26,-18.43,16.940909090909088
17.640625,6.73,29.93,39.84,7.93,144.94,8.99,-49.92,14.3,-33.0,36.23,-17.54,17.13
17.65625,4.92,29.21,40.12,6.2,128.55,7.3,-40.02,13.16,-19.95,31.54,-15.56,16.860909090909093
17.671875,2.59,27.97,40.54,4.6,106.5,5.94,-30.11,11.84,-8.22,26.72,-12.6,15.97909090909091
17.6875,-0.11,26.44,40.86,3.0,79.84,4.78,-20.7,10.58,1.21,22.24,-9.02,14.465454545454547
17.703125,-2.91,24.88,40.74,1.3,50.41,3.52,-11.99,9.49,8.16,18.36,-5.18,12.434545454545452
17.71875,-5.55,23.42,39.85,-0.53,20.47,1.86,-3.92,8.52,13.12,15.04,-1.4,10.08
17.734375,-7.93,22.17,37.99,-2.41,-7.97,-0.24,3.62,7.45,16.86,11.91,2.07,7.592727272727271
17.75,-10.09,21.08,35.21,-4.27,-33.54,-2.64,10.75,6.04,20.02,8.52,5.08,5.1054545454545455
17.765625,-12.2,20.02,31.86,-6.07,-55.86,-4.97,17.47,4.11,22.92,4.49,7.52,2.662727272727273
17.78125,-14.44,18.83,28.47,-7.91,-75.31,-6.92,23.66,1.6,25.52,-0.28,9.22,0.22181818181818153
17.796875,-16.94,17.41,25.56,-9.93,-92.63,-8.42,29.11,-1.42,27.68,-5.53,10.03,-2.2800000000000007
17.8125,-19.77,15.76,23.36,-12.31,-108.21,-9.7,33.6,-4.78,29.29,-10.78,9.89,-4.877272727272729
17.828125,-22.88,13.97,21.71,-15.1,-121.62,-11.23,36.93,-8.24,30.45,-15.55,8.94,-7.51090909090909
17.84375,-26.17,12.21,20.09,-18.19,-131.54,-13.39,39.07,-11.59,31.38,-19.56,7.52,-10.015454545454546
17.859375,-29.47,10.59,17.89,-21.39,-136.18,-16.35,40.18,-14.66,32.28,-22.91,6.13,-12.171818181818184
17.875,-32.63,9.12,14.85,-24.43,-134.14,-19.82,40.58,-17.41,33.24,-26.02,5.17,-13.771818181818183
17.890625,-35.56,7.66,11.11,-27.15,-125.09,-23.28,40.66,-19.92,34.16,-29.54,4.83,-14.738181818181816
17.90625,-38.28,6.03,7.24,-29.54,-110.08,-26.19,40.76,-22.39,34.86,-34.14,5.04,-15.15363636363636
17.921875,-40.98,4.05,3.85,-31.77,-91.34,-28.26,40.98,-25.13,35.17,-40.24,5.52,-15.286363636363637
17.9375,-43.99,1.67,1.25,-34.1,-71.67,-29.63,41.3,-28.46,35.08,-47.77,6.02,-15.481818181818182
17.953125,-47.66,-1.06,-0.77,-36.82,-53.56,-30.79,41.6,-32.69,34.66,-56.04,6.39,-16.067272727272726
17.96875,-52.21,-4.01,-2.8,-40.21,-38.86,-32.38,41.73,-37.85,34.09,-63.75,6.65,-17.236363636363635
17.984375,-57.53,-7.02,-5.52,-44.41,-28.57,-34.96,41.65,-43.64,33.48,-69.24,6.85,-18.991818181818182
18.0,-62.98,-9.95,-9.35,-49.36,-23.05,-38.78,41.32,-49.29,32.83,-70.92,7.0,-21.13909090909091
18.015625,-67.45,-12.7,-14.19,-54.73,-22.34,-43.75,40.71,-53.74,31.99,-67.87,6.98,-23.37181818181818
18.03125,-69.59,-15.21,-19.56,-59.87,-26.28,-49.47,39.71,-55.89,30.67,-60.13,6.59,-25.36636363636364
18.046875,-68.21,-17.5,-24.77,-63.84,-34.39,-55.15,38.24,-55.03,28.55,-48.79,5.67,-26.838181818181816
18.0625,-62.76,-19.7,-29.29,-65.61,-45.76,-59.78,36.24,-51.09,25.44,-35.7,4.19,-27.62
18.078125,-53.53,-22.0,-32.86,-64.3,-59.07,-62.18,33.84,-44.67,21.37,-22.81,2.29,-27.629090909090905
18.09375,-41.6,-24.63,-35.59,-59.49,-72.8,-61.28,31.23,-36.85,16.68,-11.68,0.23,-26.889090909090907
18.109375,-28.5,-27.78,-37.87,-51.38,-85.61,-56.44,28.65,-28.74,11.92,-3.06,-1.79,-25.50909090909091
18.125,-15.75,-31.42,-40.27,-40.74,-96.72,-47.75,26.24,-21.17,7.63,3.11,-3.68,-23.683636363636367
18.140625,-4.48,-35.27,-43.42,-28.79,-105.95,-36.07,24.01,-14.46,4.18,7.41,-5.51,-21.668181818181818
18.15625,4.75,-38.78,-47.96,-16.77,-113.59,-22.88,21.81,-8.59,1.55,10.6,-7.47,-19.757272727272724
18.171875,11.9,-41.21,-54.28,-5.71,-120.03,-9.86,19.48,-3.33,-0.65,13.26,-9.79,-18.201818181818183
18.1875,17.21,-41.8,-62.23,3.73,-125.48,1.6,16.88,1.44,-3.02,15.67,-12.56,-17.141818181818184
18.203125,21.05,-39.97,-70.89,11.3,-129.79,10.59,14.04,5.75,-6.03,17.84,-15.72,-16.53
18.21875,23.74,-35.48,-78.49,17.03,-132.48,16.84,11.09,9.55,-9.83,19.66,-18.99,-16.123636363636365
18.234375,25.58,-28.5,-82.74,21.1,-133.03,20.57,8.2,12.82,-14.19,21.03,-21.92,-15.552727272727271
18.25,26.77,-19.69,-81.61,23.68,-131.05,22.27,5.47,15.65,-18.63,22.01,-24.08,-14.473636363636366
18.265625,27.5,-9.93,-74.04,24.98,-126.41,22.52,2.84,18.19,-22.71,22.77,-25.1,-12.671818181818184
18.28125,27.91,-0.19,-60.53,25.21,-119.32,21.86,0.08,20.52,-26.21,23.52,-24.8,-10.17727272727273
18.296875,28.06,8.71,-43.04,24.65,-110.33,20.75,-3.1,22.62,-29.32,24.4,-23.18,-7.252727272727273
18.3125,27.97,16.29,-24.36,23.59,-100.23,19.56,-6.87,24.34,-32.53,25.43,-20.44,-4.295454545454547
18.328125,27.62,22.37,-7.14,22.37,-89.97,18.59,-11.24,25.58,-36.45,26.56,-16.85,-1.6872727272727277
18.34375,27.02,26.99,6.91,21.27,-80.48,18.06,-15.89,26.28,-41.65,27.66,-12.73,0.3127272727272725
18.359375,26.28,30.28,17.35,20.5,-72.48,18.09,-20.42,26.52,-48.37,28.65,-8.4,1.6363636363636358
18.375,25.69,32.3,24.7,20.18,-66.26,18.71,-24.42,26.43,-56.45,29.4,-4.16,2.3745454545454527
18.390625,25.55,33.1,29.94,20.43,-61.67,19.83,-27.76,26.11,-65.2,29.81,-0.27,2.7154545454545453
18.40625,26.13,32.76,33.84,21.34,-58.22,21.26,-30.6,25.58,-73.54,29.7,3.05,2.8454545454545452
18.421875,27.4,31.47,36.82,22.98,-55.3,22.81,-33.31,24.77,-80.04,28.93,5.64,2.9245454545454526
18.4375,29.05,29.61,38.95,25.33,-52.46,24.31,-36.35,23.61,-83.34,27.36,7.39,3.041818181818181
18.453125,30.56,27.58,40.23,28.2,-49.37,25.73,-40.07,22.09,-82.41,25.01,8.28,3.2572727272727264
18.46875,31.45,25.75,40.75,31.26,-45.82,27.06,-44.63,20.28,-76.88,22.01,8.43,3.6054545454545464
18.484375,31.49,24.27,40.71,34.07,-41.56,28.34,-49.94,18.23,-67.24,18.64,8.07,4.098181818181818
18.5,30.79,23.04,40.34,36.22,-36.23,29.46,-55.64,15.99,-54.72,15.16,7.47,4.716363636363636
18.515625,29.69,21.85,39.82,37.43,-29.52,30.22,-61.08,13.46,-40.98,11.8,6.89,5.416363636363639
18.53125,28.52,20.48,39.24,37.62,-21.42,30.35,-65.42,10.56,-27.67,8.67,6.41,6.121818181818182
18.546875,27.49,18.87,38.62,36.93,-12.48,29.69,-67.75,7.23,-15.98,5.69,6.03,6.758181818181817
18.5625,26.56,17.13,37.99,35.58,-3.82,28.29,-67.3,3.56,-6.42,2.74,5.66,7.269999999999999
18.578125,25.58,15.49,37.4,33.84,3.11,26.37,-63.76,-0.24,1.15,-0.35,5.28,7.624545454545456
18.59375,24.38,14.21,36.93,31.92,7.1,24.31,-57.28,-3.95,7.28,-3.62,4.95,7.839090909090908
18.609375,22.9,13.38,36.66,29.9,7.61,22.46,-48.58,-7.43,12.68,-6.95,4.79,7.947272727272729
18.625,21.19,12.86,36.66,27.79,5.08,21.01,-38.61,-10.72,17.86,-10.09,4.89,7.992727272727271
18.640625,19.35,12.37,36.93,25.53,0.73,19.99,-28.35,-14.01,23.04,-12.81,5.18,7.995454545454547
18.65625,17.46,11.56,37.37,23.05,-3.94,19.3,-18.54,-17.56,28.1,-15.08,5.49,7.928181818181819
18.671875,15.57,10.14,37.75,20.38,-7.76,18.79,-9.58,-21.54,32.74,-17.13,5.55,7.71909090909091
18.6875,13.72,8.02,37.74,17.58,-10.36,18.37,-1.6,-26.1,36.63,-19.5,5.19,7.244545454545454
18.703125,11.95,5.29,36.94,14.81,-12.29,17.95,5.48,-31.29,39.53,-22.75,4.39,6.364545454545455
18.71875,10.29,2.16,35.08,12.25,-14.76,17.4,11.77,-37.15,41.43,-27.29,3.26,4.949090909090909
18.734375,8.77,-1.06,32.08,10.03,-19.14,16.57,17.38,-43.55,42.51,-33.09,1.97,2.9518181818181817
18.75,7.37,-4.11,28.16,8.15,-26.36,15.24,22.38,-50.1,43.11,-39.56,0.65,0.4481818181818177
18.765625,5.99,-6.85,23.77,6.55,-36.37,13.27,26.8,-55.97,43.55,-45.6,-0.67,-2.320909090909091
18.78125,4.53,-9.19,19.42,5.04,-47.93,10.73,30.6,-60.07,44.04,-49.84,-2.0,-4.970000000000001
18.796875,2.91,-11.19,15.53,3.48,-58.76,7.87,33.75,-61.26,44.62,-50.97,-3.32,-7.030909090909091
18.8125,1.08,-13.03,12.29,1.75,-66.21,5.12,36.19,-58.91,45.17,-48.22,-4.62,-8.126363636363637
18.828125,-1.0,-14.95,9.67,-0.17,-68.19,2.85,37.94,-53.15,45.54,-41.56,-5.88,-8.081818181818182
18.84375,-3.31,-17.25,7.49,-2.24,-63.99,1.24,39.07,-44.89,45.59,-31.85,-7.16,-7.027272727272726
18.859375,-5.84,-20.17,5.47,-4.4,-54.59,0.13,39.73,-35.48,45.28,-20.54,-8.6,-5.364545454545455
18.875,-8.56,-23.83,3.34,-6.62,-42.36,-0.8,40.11,-26.17,44.57,-9.31,-10.33,-3.632727272727273
18.890625,-11.47,-28.06,0.82,-8.92,-30.11,-2.0,40.4,-17.71,43.46,0.45,-12.38,-2.3200000000000003
18.90625,-14.56,-32.4,-2.33,-11.38,-20.04,-3.77,40.71,-10.21,41.86,8.04,-14.52,-1.6909090909090914
18.921875,-17.81,-36.07,-6.22,-14.09,-13.11,-6.15,41.07,-3.35,39.65,13.45,-16.36,-1.7263636363636363
18.9375,-21.18,-38.16,-10.81,-17.12,-9.07,-8.97,41.37,3.28,36.75,17.21,-17.39,-2.1899999999999995
18.953125,-24.56,-37.85,-15.79,-20.49,-6.96,-11.94,41.39,9.9,33.17,20.01,-17.16,-2.752727272727272
18.96875,-27.81,-34.69,-20.73,-24.1,-5.81,-14.81,40.93,16.45,29.11,22.35,-15.46,-3.1427272727272735
18.984375,-30.77,-28.7,-25.2,-27.74,-5.03,-17.5,39.9,22.69,24.89,24.4,-12.36,-3.2199999999999993
19.0,-33.4,-20.51,-28.95,-31.18,-4.47,-20.01,38.35,28.34,20.86,26.07,-8.17,-3.0063636363636363
19.015625,-35.81,-11.11,-32.03,-34.22,-4.07,-22.5,36.51,33.22,17.24,27.18,-3.35,-2.630909090909093
19.03125,-38.34,-1.62,-34.77,-36.84,-3.73,-25.2,34.63,37.22,14.0,27.64,1.6,-2.3100000000000027
19.046875,-41.41,6.95,-37.72,-39.28,-3.14,-28.39,32.85,40.29,10.89,27.6,6.23,-2.2845454545454538
19.0625,-45.36,13.98,-41.5,-42.01,-2.01,-32.32,31.14,42.42,7.56,27.37,10.18,-2.777272727272725
19.078125,-50.08,19.2,-46.62,-45.58,-0.27,-37.06,29.35,43.62,3.77,27.3,13.23,-3.921818181818182
19.09375,-54.9,22.65,-53.23,-50.32,1.88,-42.29,27.3,43.95,-0.5,27.65,15.29,-5.683636363636364
19.109375,-58.56,24.55,-60.92,-56.18,3.97,-47.28,24.89,43.61,-5.01,28.47,16.38,-7.825454545454547
19.125,-59.58,25.14,-68.49,-62.56,5.58,-50.84,22.15,42.86,-9.43,29.59,16.65,-9.902727272727274
19.140625,-56.81,24.66,-74.09,-68.39,6.52,-51.72,19.2,42.03,-13.51,30.7,16.34,-11.370000000000003
19.15625,-49.85,23.35,-75.66,-72.43,6.99,-49.0,16.18,41.33,-17.23,31.47,15.71,-11.739999999999998
19.171875,-39.35,21.49,-71.61,-73.55,7.55,-42.5,13.2,40.87,-20.74,31.65,14.98,-10.728181818181822
19.1875,-26.72,19.37,-61.56,-71.08,8.95,-32.91,10.36,40.53,-24.3,31.13,14.33,-8.354545454545454
19.203125,-13.71,17.28,-46.63,-64.93,11.85,-21.59,7.68,40.02,-28.1,29.92,13.83,-4.943636363636363
19.21875,-1.79,15.38,-29.11,-55.6,16.64,-10.16,5.17,39.01,-32.23,28.14,13.51,-1.003636363636364
19.234375,8.19,13.69,-11.71,-44.01,23.15,0.02,2.73,37.23,-36.73,25.95,13.35,2.8963636363636356
19.25,16.05,12.09,3.36,-31.29,30.63,8.17,0.15,34.61,-41.76,23.48,13.32,6.255454545454546
19.265625,22.04,10.41,15.0,-18.56,37.89,14.17,-2.82,31.35,-47.6,20.84,13.39,8.737272727272726
19.28125,26.5,8.57,23.21,-6.73,43.48,18.32,-6.39,27.83,-54.46,18.04,13.5,10.169999999999998
19.296875,29.64,6.67,28.74,3.55,46.2,20.99,-10.54,24.44,-62.18,15.04,13.57,10.556363636363635
19.3125,31.51,4.95,32.43,11.95,45.42,22.41,-15.04,21.42,-69.98,11.82,13.47,10.032727272727273
19.328125,32.18,3.66,34.9,18.39,41.45,22.56,-19.46,18.76,-76.48,8.37,13.11,8.858181818181817
19.34375,31.84,2.94,36.45,22.99,35.4,21.39,-23.4,16.22,-80.01,4.83,12.43,7.370909090909089
19.359375,30.81,2.67,37.25,26.02,28.98,19.02,-26.65,13.5,-79.2,1.43,11.45,5.934545454545454
19.375,29.49,2.49,37.5,27.79,23.89,15.89,-29.35,10.37,-73.49,-1.63,10.25,4.836363636363635
19.390625,28.15,1.96,37.53,28.62,21.27,12.75,-31.94,6.77,-63.44,-4.2,8.87,4.212727272727272
19.40625,26.92,0.73,37.65,28.76,21.38,10.33,-34.94,2.84,-50.5,-6.35,7.32,4.0127272727272745
19.421875,25.85,-1.34,38.01,28.46,23.53,9.16,-38.83,-1.22,-36.58,-8.32,5.57,4.026363636363637
19.4375,24.98,-4.09,38.53,27.87,26.41,9.28,-43.77,-5.21,-23.42,-10.47,3.59,3.972727272727273
19.453125,24.44,-7.16,38.98,27.18,28.45,10.4,-49.49,-9.05,-12.15,-13.17,1.44,3.6245454545454536
19.46875,24.4,-10.14,39.12,26.59,28.19,12.0,-55.34,-12.73,-3.11,-16.72,-0.73,2.8663636363636353
19.484375,24.93,-12.72,38.86,26.34,24.59,13.68,-60.31,-16.42,4.01,-21.31,-2.79,1.7145454545454535
19.5,25.96,-14.79,38.34,26.71,17.14,15.21,-63.4,-20.31,9.83,-26.98,-4.63,0.2800000000000017
19.515625,27.22,-16.44,37.74,27.84,6.03,16.56,-63.87,-24.69,14.99,-33.55,-6.27,-1.3127272727272723
19.53125,28.35,-17.91,37.31,29.78,-7.81,17.8,-61.42,-29.84,19.87,-40.46,-7.85,-2.925454545454546
19.546875,29.03,-19.45,37.14,32.39,-22.83,18.91,-56.33,-35.87,24.6,-46.72,-9.56,-4.426363636363636
