Timestamp,Participant_11,Participant_12,Participant_13,Participant_14,Participant_15,Participant_16,Participant_17,Participant_18,Participant_22,Participant_23,Participant_24,Average
0.0,2135132.0,1783547.0,2176291.0,2062920.0,1889653.0,2076413.0,2143658.0,1834238.0,2040808.0,1955915.0,1805437.0,1991273.8181818181
0.015625,2134428.0,1784299.0,2176178.0,2062924.0,1891322.0,2076871.0,2143597.0,1833131.0,2044011.0,1953205.0,1805120.0,1991371.4545454546
0.03125,2134094.0,1773944.0,2169771.0,2063166.0,1893158.0,2077032.0,2143609.0,1832114.0,2041596.0,1950925.0,1804985.0,1989490.3636363635
0.046875,2133525.0,1778244.0,2173139.0,2063119.0,1894614.0,2077582.0,2143709.0,1831430.0,2034786.0,1949040.0,1804862.0,1989459.0909090908
0.0625,2132808.0,1781905.0,2164170.0,2063141.0,1896242.0,2078086.0,2143548.0,1830826.0,2029053.0,1947674.0,1804410.0,1988351.1818181819
0.078125,2132751.0,1784023.0,2162148.0,2063089.0,1894070.0,2079211.0,2143547.0,1830385.0,2024722.0,1946235.0,1803946.0,1987647.9090909092
0.09375,2132458.0,1784265.0,2160860.0,2063542.0,1890271.0,2079622.0,2143519.0,1830185.0,2020744.0,1944891.0,1803169.0,1986684.1818181819
0.109375,2132157.0,1785528.0,2159885.0,2063826.0,1886568.0,2080288.0,2143535.0,1829951.0,2016346.0,1943998.0,1802334.0,1985856.0
0.125,2132493.0,1783308.0,2166751.0,2064677.0,1883502.0,2080889.0,2143546.0,1829658.0,2014209.0,1943647.0,1801762.0,1985858.3636363635
0.140625,2132206.0,1783781.0,2158192.0,2065445.0,1881460.0,2081906.0,2143625.0,1829738.0,2013810.0,1943819.0,1801543.0,1985047.7272727273
0.15625,2132319.0,1786754.0,2159126.0,2066168.0,1880220.0,2082832.0,2143613.0,1829796.0,2012736.0,1944032.0,1801254.0,1985350.0
0.171875,2132550.0,1788169.0,2157122.0,2066994.0,1880058.0,2083850.0,2143609.0,1829954.0,2012330.0,1944258.0,1800935.0,1985439.0
0.1875,2132898.0,1787622.0,2157474.0,2067866.0,1880024.0,2083869.0,2143508.0,1830287.0,2012788.0,1944547.0,1800726.0,1985600.8181818181
0.203125,2133206.0,1785098.0,2157306.0,2068547.0,1879961.0,2082687.0,2143605.0,1830600.0,2014202.0,1945087.0,1800530.0,1985529.9090909092
0.21875,2133597.0,1780483.0,2157104.0,2069504.0,1880386.0,2080287.0,2143585.0,1830956.0,2016103.0,1945551.0,1800169.0,1985247.7272727273
0.234375,2132460.0,1780811.0,2157959.0,2070282.0,1880863.0,2079049.0,2143589.0,1831248.0,2017952.0,1945928.0,1799905.0,1985458.7272727273
0.25,2130116.0,1781960.0,2157442.0,2071121.0,1881950.0,2077602.0,2143661.0,1831714.0,2020407.0,1943922.0,1800139.0,1985457.6363636365
0.265625,2128754.0,1781303.0,2158425.0,2071915.0,1883288.0,2076128.0,2143633.0,1832294.0,2022821.0,1939590.0,1799977.0,1985284.3636363635
0.28125,2127663.0,1780113.0,2159149.0,2073053.0,1884605.0,2075214.0,2143629.0,1832800.0,2025720.0,1935701.0,1799958.0,1985236.8181818181
0.296875,2126801.0,1782631.0,2160050.0,2073895.0,1886684.0,2074522.0,2143519.0,1832385.0,2028448.0,1932568.0,1799834.0,1985576.0909090908
0.3125,2126381.0,1782824.0,2160617.0,2075066.0,1888262.0,2073390.0,2143616.0,1831351.0,2031628.0,1929936.0,1799420.0,1985681.0
0.328125,2125849.0,1783713.0,2161354.0,2075478.0,1890127.0,2072368.0,2143547.0,1829615.0,2034988.0,1927533.0,1798928.0,1985772.7272727273
0.34375,2125517.0,1784712.0,2159386.0,2072418.0,1892024.0,2071255.0,2143554.0,1826641.0,2038502.0,1926188.0,1798369.0,1985324.1818181819
0.359375,2125193.0,1785977.0,2155413.0,2070729.0,1893690.0,2070643.0,2143590.0,1821857.0,2042105.0,1924905.0,1797712.0,1984710.3636363635
0.375,2124890.0,1787867.0,2151622.0,2069520.0,1895131.0,2070469.0,2143601.0,1816447.0,2045943.0,1923666.0,1797382.0,1984230.7272727273
0.390625,2124332.0,1789753.0,2148239.0,2074173.0,1892970.0,2070202.0,2143611.0,1812469.0,2048640.0,1922631.0,1797151.0,1984015.5454545454
0.40625,2124742.0,1791790.0,2145478.0,2068706.0,1889394.0,2070154.0,2143603.0,1808994.0,2046196.0,1922337.0,1797060.0,1982586.7272727273
0.421875,2124789.0,1793636.0,2143173.0,2068150.0,1885933.0,2070249.0,2143598.0,1806620.0,2039898.0,1922539.0,1796860.0,1981404.0909090908
0.4375,2124585.0,1795866.0,2140543.0,2068050.0,1883080.0,2070000.0,2143540.0,1804146.0,2035025.0,1922910.0,1796492.0,1980385.1818181819
0.453125,2124873.0,1797860.0,2141667.0,2067276.0,1881449.0,2070480.0,2143517.0,1801805.0,2031470.0,1923691.0,1796583.0,1980061.0
0.46875,2125280.0,1798138.0,2138809.0,2067642.0,1880830.0,2070169.0,2143537.0,1800199.0,2028239.0,1924924.0,1796223.0,1979453.6363636365
0.484375,2125951.0,1796149.0,2139661.0,2066108.0,1880802.0,2070896.0,2143523.0,1798319.0,2024860.0,1925990.0,1795955.0,1978928.5454545454
0.5,2126102.0,1793964.0,2137701.0,2066664.0,1880992.0,2072538.0,2143511.0,1797229.0,2023628.0,1928373.0,1795938.0,1978785.4545454546
0.515625,2126849.0,1792989.0,2138079.0,2065816.0,1881300.0,2073884.0,2143470.0,1796006.0,2023087.0,1931221.0,1795902.0,1978963.9090909092
0.53125,2127530.0,1792401.0,2137760.0,2065899.0,1881742.0,2071614.0,2143565.0,1796566.0,2023028.0,1934506.0,1795712.0,1979120.2727272727
0.546875,2128219.0,1792629.0,2137526.0,2066201.0,1882490.0,2072957.0,2143573.0,1795790.0,2023216.0,1936059.0,1795857.0,1979501.5454545454
0.5625,2127864.0,1793366.0,2138486.0,2066508.0,1883556.0,2074604.0,2143591.0,1796116.0,2024194.0,1934268.0,1795501.0,1979823.0909090908
0.578125,2126204.0,1794362.0,2138170.0,2066847.0,1884945.0,2075416.0,2143555.0,1798000.0,2025872.0,1931706.0,1795106.0,1980016.6363636365
0.59375,2124872.0,1795105.0,2139204.0,2067530.0,1886448.0,2071320.0,2143503.0,1799933.0,2027886.0,1929418.0,1794514.0,1979975.7272727273
0.609375,2124010.0,1796403.0,2139931.0,2068084.0,1888383.0,2075739.0,2143516.0,1804174.0,2030318.0,1927741.0,1793672.0,1981088.2727272727
0.625,2122962.0,1797121.0,2141028.0,2068507.0,1889856.0,2073918.0,2143638.0,1806256.0,2033037.0,1926359.0,1793308.0,1981453.6363636365
0.640625,2122923.0,1798619.0,2143411.0,2069048.0,1891501.0,2071873.0,2143607.0,1805792.0,2036029.0,1925132.0,1792852.0,1981889.7272727273
0.65625,2122730.0,1800220.0,2145296.0,2069581.0,1893336.0,2069531.0,2143592.0,1802910.0,2038711.0,1924295.0,1792716.0,1982083.4545454546
0.671875,2122614.0,1802562.0,2145052.0,2070268.0,1895479.0,2076164.0,2143487.0,1800312.0,2041865.0,1923493.0,1792449.0,1983067.7272727273
0.6875,2122400.0,1805348.0,2145259.0,2070709.0,1897398.0,2068330.0,2143591.0,1797300.0,2045386.0,1922258.0,1792213.0,1982744.7272727273
0.703125,2121970.0,1808019.0,2146371.0,2071194.0,1899601.0,2067372.0,2143605.0,1795447.0,2048832.0,1921425.0,1791765.0,1983236.4545454546
0.71875,2122224.0,1810590.0,2148200.0,2072025.0,1899105.0,2066273.0,2143602.0,1794322.0,2052658.0,1921655.0,1791644.0,1983845.2727272727
0.734375,2121763.0,1815311.0,2149752.0,2072684.0,1895382.0,2065109.0,2143651.0,1793188.0,2056172.0,1922347.0,1791447.0,1984255.0909090908
0.75,2121768.0,1818415.0,2152092.0,2073012.0,1892034.0,2064184.0,2143523.0,1792632.0,2060459.0,1923564.0,1791342.0,1984820.4545454546
0.765625,2122116.0,1817577.0,2154355.0,2071561.0,1889048.0,2063143.0,2143493.0,1792801.0,2064201.0,1924406.0,1790921.0,1984874.7272727273
0.78125,2122333.0,1811524.0,2155955.0,2068999.0,1887463.0,2062261.0,2143488.0,1793109.0,2064042.0,1925756.0,1790943.0,1984170.2727272727
0.796875,2122763.0,1807014.0,2157580.0,2066445.0,1886557.0,2061723.0,2143589.0,1793426.0,2058889.0,1929214.0,1791199.0,1983490.8181818181
0.8125,2122822.0,1803001.0,2159626.0,2064580.0,1887095.0,2060887.0,2143577.0,1793140.0,2054002.0,1932986.0,1791129.0,1982985.9090909092
0.828125,2123413.0,1805271.0,2166750.0,2063084.0,1887183.0,2060925.0,2143503.0,1793620.0,2051395.0,1938346.0,1790816.0,1984027.8181818181
0.84375,2123874.0,1811192.0,2163924.0,2062175.0,1887186.0,2061098.0,2143579.0,1793346.0,2048670.0,1942280.0,1790519.0,1984349.3636363635
0.859375,2124627.0,1821728.0,2161791.0,2061786.0,1887374.0,2060588.0,2143576.0,1793389.0,2046068.0,1943121.0,1789854.0,1984900.1818181819
0.875,2125140.0,1832073.0,2171163.0,2061317.0,1888071.0,2061131.0,2143536.0,1792769.0,2044704.0,1940630.0,1789412.0,1986358.7272727273
0.890625,2125371.0,1841392.0,2174982.0,2057572.0,1889052.0,2061266.0,2143478.0,1792458.0,2044802.0,1936640.0,1788525.0,1986867.0909090908
0.90625,2124531.0,1847706.0,2178749.0,2058933.0,1890212.0,2061265.0,2143497.0,1792135.0,2044668.0,1934052.0,1788007.0,1987614.0909090908
0.921875,2122759.0,1854432.0,2183932.0,2058367.0,1891497.0,2061281.0,2143594.0,1790745.0,2044506.0,1931545.0,1788128.0,1988253.2727272727
0.9375,2121406.0,1853755.0,2186464.0,2058699.0,1893295.0,2061862.0,2143553.0,1788816.0,2045483.0,1928724.0,1789400.0,1988314.2727272727
0.953125,2120733.0,1849607.0,2189964.0,2057433.0,1895198.0,2062369.0,2143496.0,1786438.0,2047323.0,1926563.0,1791491.0,1988237.7272727273
0.96875,2119969.0,1844165.0,2188297.0,2059204.0,1896874.0,2062825.0,2143499.0,1784555.0,2049366.0,1924493.0,1794001.0,1987931.6363636365
0.984375,2119413.0,1841624.0,2190185.0,2057596.0,1898679.0,2063741.0,2143521.0,1782841.0,2051679.0,1922400.0,1795935.0,1987964.9090909092
1.0,2119619.0,1844792.0,2181315.0,2058039.0,1900588.0,2064582.0,2143469.0,1781341.0,2054492.0,1920502.0,1796312.0,1987731.9090909092
1.015625,2119019.0,1848195.0,2188874.0,2057298.0,1902839.0,2065203.0,2143639.0,1780272.0,2057180.0,1919920.0,1798357.0,1989163.2727272727
1.03125,2119061.0,1849759.0,2179286.0,2057312.0,1904870.0,2065722.0,2143549.0,1779705.0,2059956.0,1919845.0,1801448.0,1989137.5454545454
1.046875,2118715.0,1850064.0,2184010.0,2058283.0,1906089.0,2066800.0,2143459.0,1778967.0,2062552.0,1920137.0,1803919.0,1990272.2727272727
1.0625,2118388.0,1851018.0,2172136.0,2057975.0,1903636.0,2064043.0,2143564.0,1778296.0,2065832.0,1920549.0,1807091.0,1989320.7272727273
1.078125,2118955.0,1852175.0,2169283.0,2060247.0,1900305.0,2066140.0,2143563.0,1777656.0,2069088.0,1920789.0,1809575.0,1989797.8181818181
1.09375,2119015.0,1853991.0,2167265.0,2059172.0,1897924.0,2061176.0,2143578.0,1777615.0,2072724.0,1921368.0,1812079.0,1989627.9090909092
1.109375,2119318.0,1856752.0,2175363.0,2059633.0,1897006.0,2058907.0,2143498.0,1777230.0,2076150.0,1921902.0,1815783.0,1991049.2727272727
1.125,2119735.0,1859794.0,2165337.0,2060095.0,1896393.0,2056822.0,2143562.0,1777249.0,2079905.0,1922336.0,1818960.0,1990926.1818181819
1.140625,2120251.0,1863374.0,2163518.0,2060736.0,1895506.0,2054694.0,2143566.0,1777489.0,2082893.0,1923141.0,1819406.0,1991324.9090909092
1.15625,2120563.0,1867582.0,2165982.0,2060598.0,1896169.0,2053594.0,2143459.0,1777522.0,2082111.0,1924209.0,1819362.0,1991922.8181818181
1.171875,2121340.0,1870700.0,2164373.0,2058849.0,1897158.0,2052008.0,2143534.0,1777647.0,2077091.0,1922838.0,1820597.0,1991466.8181818181
1.1875,2121656.0,1874546.0,2162870.0,2056159.0,1899204.0,2050564.0,2143597.0,1777648.0,2073498.0,1919446.0,1822602.0,1991071.8181818181
1.203125,2122596.0,1878364.0,2162779.0,2053157.0,1903032.0,2048992.0,2143485.0,1776296.0,2071751.0,1916472.0,1824653.0,1991052.4545454546
1.21875,2123446.0,1882493.0,2163161.0,2054244.0,1904904.0,2047538.0,2143557.0,1774896.0,2070327.0,1914565.0,1826332.0,1991405.7272727273
1.234375,2123738.0,1887949.0,2162871.0,2052747.0,1901084.0,2046682.0,2143543.0,1773845.0,2069239.0,1912899.0,1831438.0,1991457.7272727273
1.25,2123068.0,1892626.0,2163695.0,2052843.0,1897800.0,2045878.0,2143519.0,1773025.0,2069340.0,1911784.0,1833081.0,1991514.4545454546
1.265625,2122039.0,1896854.0,2164180.0,2052889.0,1909595.0,2045235.0,2143462.0,1772439.0,2069006.0,1911363.0,1834038.0,1992827.2727272727
1.28125,2120729.0,1900077.0,2164937.0,2052620.0,1913944.0,2045002.0,2143599.0,1772102.0,2068762.0,1910903.0,1836428.0,1993554.8181818181
1.296875,2119891.0,1902703.0,2163543.0,2052090.0,1906950.0,2044911.0,2143589.0,1772099.0,2069253.0,1910057.0,1839666.0,1993159.2727272727
1.3125,2118927.0,1903737.0,2166621.0,2051536.0,1916357.0,2044782.0,2143516.0,1772082.0,2070323.0,1909881.0,1842470.0,1994566.5454545454
1.328125,2118379.0,1904615.0,2165573.0,2051638.0,1911901.0,2044620.0,2143470.0,1771932.0,2071838.0,1910177.0,1842284.0,1994220.6363636365
1.34375,2118379.0,1906415.0,2168427.0,2051913.0,1919056.0,2044409.0,2143577.0,1771990.0,2074083.0,1910976.0,1841108.0,1995484.8181818181
1.359375,2118456.0,1909212.0,2162491.0,2052289.0,1922776.0,2044762.0,2143526.0,1772038.0,2076673.0,1911597.0,1840835.0,1995877.7272727273
1.375,2118223.0,1912458.0,2167463.0,2052813.0,1924947.0,2044229.0,2143565.0,1772417.0,2079208.0,1912797.0,1840778.0,1997172.5454545454
1.390625,2118390.0,1916868.0,2166603.0,2053570.0,1924401.0,2044395.0,2143481.0,1772750.0,2081704.0,1913770.0,1841859.0,1997981.0
1.40625,2118101.0,1921980.0,2154886.0,2054320.0,1923674.0,2044687.0,2143525.0,1772878.0,2084265.0,1914948.0,1845364.0,1998057.0909090908
1.421875,2118734.0,1926442.0,2151914.0,2055101.0,1923811.0,2045037.0,2143549.0,1773391.0,2086990.0,1915841.0,1850550.0,1999214.5454545454
1.4375,2118493.0,1931136.0,2158223.0,2055697.0,1921475.0,2045415.0,2143528.0,1773657.0,2089726.0,1917210.0,1856446.0,2001000.5454545454
1.453125,2119220.0,1935803.0,2149606.0,2056422.0,1908715.0,2046075.0,2143543.0,1773733.0,2093002.0,1918628.0,1863322.0,2000733.5454545454
1.46875,2119709.0,1940678.0,2148285.0,2057135.0,1889377.0,2045135.0,2143543.0,1772622.0,2096641.0,1918450.0,1870596.0,2000197.3636363635
1.484375,2119949.0,1944787.0,2146800.0,2057715.0,1874910.0,2042494.0,2143487.0,1771287.0,2099743.0,1915684.0,1877923.0,1999525.3636363635
1.5,2120797.0,1948255.0,2147818.0,2058665.0,1866385.0,2039976.0,2143504.0,1770479.0,2100329.0,1912838.0,1884649.0,1999426.8181818181
1.515625,2121251.0,1949777.0,2145298.0,2059435.0,1864654.0,2037987.0,2143577.0,1769501.0,2095199.0,1911017.0,1890339.0,1998912.2727272727
1.53125,2122164.0,1951576.0,2145817.0,2060209.0,1866098.0,2036424.0,2143508.0,1768857.0,2090349.0,1909781.0,1895731.0,1999137.6363636365
1.546875,2122985.0,1954076.0,2145521.0,2059025.0,1870960.0,2035543.0,2143524.0,1768635.0,2091637.0,1908720.0,1901629.0,2000205.0
1.5625,2123684.0,1956799.0,2146382.0,2056626.0,1876854.0,2033802.0,2143508.0,1768689.0,2090749.0,1908634.0,1907886.0,2001237.5454545454
1.578125,2124470.0,1961021.0,2146749.0,2054785.0,1884947.0,2031877.0,2143515.0,1768695.0,2092037.0,1908504.0,1911805.0,2002582.2727272727
1.59375,2125351.0,1964485.0,2147693.0,2053395.0,1893295.0,2029585.0,2143651.0,1768731.0,2092920.0,1908302.0,1912080.0,2003589.8181818181
1.609375,2126310.0,1967497.0,2148630.0,2052595.0,1901140.0,2027745.0,2143510.0,1768751.0,2093256.0,1908187.0,1910170.0,2004344.6363636365
1.625,2127241.0,1970282.0,2150110.0,2052388.0,1907931.0,2024960.0,2143546.0,1769048.0,2093915.0,1908539.0,1903780.0,2004703.6363636365
1.640625,2128489.0,1968149.0,2151786.0,2052543.0,1913633.0,2021763.0,2143553.0,1769301.0,2094406.0,1909431.0,1895321.0,2004397.7272727273
1.65625,2127875.0,1969432.0,2153464.0,2052284.0,1918901.0,2017858.0,2143534.0,1769782.0,2093947.0,1910578.0,1892381.0,2004548.7272727273
1.671875,2127328.0,1970850.0,2155535.0,2052165.0,1923962.0,2014157.0,2143423.0,1769820.0,2095047.0,1911826.0,1892789.0,2005172.9090909092
1.6875,2126575.0,1973647.0,2157634.0,2051785.0,1929242.0,2012131.0,2143507.0,1770403.0,2095687.0,1913014.0,1895824.0,2006313.5454545454
1.703125,2125790.0,1976796.0,2158859.0,2051569.0,1933888.0,2011084.0,2143582.0,1770766.0,2095021.0,1914364.0,1899724.0,2007403.9090909092
1.71875,2125661.0,1981068.0,2157935.0,2051655.0,1938264.0,2009409.0,2143550.0,1771016.0,2097086.0,1915617.0,1903032.0,2008572.0909090908
1.734375,2125328.0,1984131.0,2154671.0,2052147.0,1939927.0,2007679.0,2143489.0,1770598.0,2097781.0,1916880.0,1906573.0,2009018.5454545454
1.75,2125293.0,1990695.0,2151753.0,2052644.0,1939724.0,2005729.0,2143533.0,1769272.0,2095534.0,1918638.0,1909872.0,2009335.1818181819
1.765625,2125429.0,1998068.0,2149525.0,2053238.0,1939747.0,2005318.0,2143556.0,1767850.0,2096230.0,1919040.0,1913535.0,2010139.6363636365
1.78125,2125331.0,2001311.0,2147656.0,2054120.0,1940191.0,2007275.0,2143426.0,1766940.0,2098230.0,1916817.0,1916463.0,2010705.4545454546
1.796875,2125276.0,2015163.0,2146439.0,2054774.0,1940854.0,2012009.0,2143564.0,1765971.0,2098532.0,1914161.0,1919774.0,2012410.6363636365
1.8125,2125234.0,2018065.0,2146481.0,2055656.0,1941836.0,2017159.0,2143655.0,1765089.0,2101347.0,1912517.0,1923332.0,2013670.0909090908
1.828125,2125872.0,2025533.0,2145944.0,2056335.0,1943175.0,2022683.0,2143502.0,1765109.0,2106551.0,1911205.0,1926117.0,2015638.7272727273
1.84375,2125945.0,2028412.0,2145488.0,2057133.0,1945203.0,2027972.0,2143527.0,1764874.0,2113237.0,1910375.0,1928154.0,2017301.8181818181
1.859375,2126339.0,2025030.0,2145000.0,2057827.0,1946879.0,2032048.0,2143559.0,1764892.0,2117566.0,1910285.0,1929479.0,2018082.1818181819
1.875,2127016.0,2029412.0,2144914.0,2058702.0,1948376.0,2033323.0,2143510.0,1765025.0,2114484.0,1910336.0,1930058.0,2018650.5454545454
1.890625,2127467.0,2041715.0,2145247.0,2059504.0,1949931.0,2034769.0,2143544.0,1765104.0,2110601.0,1910138.0,1930371.0,2019853.7272727273
1.90625,2127983.0,2042782.0,2145029.0,2060616.0,1952014.0,2038441.0,2143516.0,1765529.0,2104975.0,1910296.0,1930959.0,2020194.5454545454
1.921875,2128418.0,2039500.0,2145411.0,2061213.0,1954127.0,2050423.0,2143534.0,1765858.0,2106223.0,1910741.0,1932251.0,2021609.0
1.9375,2129282.0,2039895.0,2146512.0,2060427.0,1956379.0,2047269.0,2143488.0,1766226.0,2100533.0,1911844.0,1933515.0,2021397.2727272727
1.953125,2129973.0,2043485.0,2147764.0,2058359.0,1958611.0,2053664.0,2143554.0,1766570.0,2097624.0,1912836.0,1934477.0,2022447.0
1.96875,2130704.0,2046682.0,2150945.0,2056802.0,1961084.0,2059239.0,2143550.0,1767205.0,2095595.0,1914138.0,1935298.0,2023749.2727272727
1.984375,2131515.0,2049405.0,2149667.0,2055532.0,1963055.0,2066285.0,2143479.0,1767719.0,2093051.0,1915479.0,1937494.0,2024789.1818181819
2.0,2132241.0,2052893.0,2153313.0,2054702.0,1963055.0,2071816.0,2143550.0,1768288.0,2094404.0,1916851.0,1940480.0,2026508.4545454546
2.015625,2133278.0,2056218.0,2151790.0,2054420.0,1965637.0,2076372.0,2143505.0,1768777.0,2096378.0,1918270.0,1944380.0,2028093.1818181819
2.03125,2133882.0,2058637.0,2154794.0,2054498.0,1967991.0,2082594.0,2143447.0,1769155.0,2098352.0,1919659.0,1950862.0,2030351.9090909092
2.046875,2134757.0,2061039.0,2154755.0,2054312.0,1970483.0,2088487.0,2143505.0,1768709.0,2100142.0,1921358.0,1960142.0,2032517.1818181819
2.0625,2135420.0,2063060.0,2149851.0,2053881.0,1972392.0,2094056.0,2143478.0,1767730.0,2100459.0,1922389.0,1965299.0,2033455.9090909092
2.078125,2136114.0,2065556.0,2147401.0,2053547.0,1975270.0,2099288.0,2143575.0,1766769.0,2102080.0,1920450.0,1970095.0,2034558.6363636365
2.09375,2135377.0,2068687.0,2152334.0,2053287.0,1976672.0,2104666.0,2143559.0,1765778.0,2104390.0,1917634.0,1973825.0,2036019.0
2.109375,2134425.0,2069672.0,2145364.0,2053173.0,1975197.0,2109459.0,2143502.0,1764955.0,2106878.0,1915919.0,1976193.0,2035885.1818181819
2.125,2133782.0,2069170.0,2143617.0,2053481.0,1973118.0,2114599.0,2143528.0,1764330.0,2108328.0,1914984.0,1976344.0,2035934.6363636365
2.140625,2133206.0,2069344.0,2143235.0,2054014.0,1971440.0,2119476.0,2143531.0,1764083.0,2110927.0,1914001.0,1968770.0,2035638.8181818181
2.15625,2132518.0,2070308.0,2143284.0,2054413.0,1970175.0,2123839.0,2143518.0,1764206.0,2115604.0,1913680.0,1954735.0,2035116.3636363635
2.171875,2132332.0,2070313.0,2145097.0,2054883.0,1969713.0,2128163.0,2143546.0,1764214.0,2116747.0,1914058.0,1948088.0,2035195.8181818181
2.1875,2132411.0,2069104.0,2143782.0,2055462.0,1969651.0,2131775.0,2143489.0,1764672.0,2116739.0,1913629.0,1954054.0,2035888.0
2.203125,2132368.0,2071034.0,2148245.0,2056000.0,1970221.0,2134397.0,2143477.0,1764545.0,2120165.0,1913561.0,1960663.0,2037697.8181818181
2.21875,2132368.0,2076736.0,2146461.0,2056507.0,1970884.0,2135636.0,2143559.0,1765018.0,2110123.0,1914041.0,1964809.0,2037831.0909090908
2.234375,2132094.0,2082332.0,2149877.0,2057034.0,1971272.0,2133730.0,2143517.0,1765329.0,2099007.0,1914730.0,1968043.0,2037905.9090909092
2.25,2132260.0,2081809.0,2153411.0,2057623.0,1972182.0,2130235.0,2143534.0,1765632.0,2119062.0,1915915.0,1970818.0,2040225.5454545454
2.265625,2131969.0,2078900.0,2156389.0,2058276.0,1972922.0,2128687.0,2143539.0,1766381.0,2092128.0,1917087.0,1974280.0,2038232.5454545454
2.28125,2132467.0,2076961.0,2159494.0,2058878.0,1974158.0,2131286.0,2143521.0,1766760.0,2087213.0,1918532.0,1977315.0,2038780.4545454546
2.296875,2132495.0,2075104.0,2160898.0,2059678.0,1975500.0,2135320.0,2143544.0,1767313.0,2082327.0,1919614.0,1980068.0,2039260.0909090908
2.3125,2132857.0,2071762.0,2162285.0,2060341.0,1976594.0,2139288.0,2143534.0,1767783.0,2078055.0,1920965.0,1982342.0,2039618.7272727273
2.328125,2133041.0,2060847.0,2161377.0,2060075.0,1978543.0,2143680.0,2143515.0,1768317.0,2074410.0,1922268.0,1984033.0,2039100.5454545454
2.34375,2133618.0,2051664.0,2158683.0,2058556.0,1979769.0,2145516.0,2143490.0,1769053.0,2071117.0,1923730.0,1985918.0,2038283.0909090908
2.359375,2134448.0,2046315.0,2156394.0,2056592.0,1981853.0,2152875.0,2143567.0,1769709.0,2068002.0,1925024.0,1988004.0,2038434.8181818181
2.375,2134963.0,2040753.0,2154305.0,2055542.0,1983518.0,2157768.0,2143517.0,1769940.0,2065523.0,1923740.0,1990182.0,2038159.1818181819
2.390625,2136040.0,2046606.0,2152852.0,2054666.0,1985281.0,2209639.0,2143577.0,1769522.0,2063981.0,1920791.0,1990858.0,2043073.9090909092
2.40625,2136522.0,2047635.0,2158058.0,2054392.0,1987135.0,2214454.0,2143544.0,1768528.0,2062132.0,1918930.0,1991114.0,2043858.5454545454
2.421875,2137028.0,2052261.0,2151780.0,2054280.0,1988833.0,2219535.0,2143577.0,1767780.0,2061186.0,1917881.0,1991302.0,2044131.1818181819
2.4375,2137411.0,2061675.0,2154830.0,2054345.0,1988106.0,2227610.0,2143543.0,1766847.0,2060333.0,1916932.0,1991885.0,2045774.2727272727
2.453125,2137916.0,2077871.0,2152056.0,2054089.0,1985131.0,2236915.0,2143498.0,1766442.0,2057937.0,1916428.0,1992798.0,2047371.0
2.46875,2138959.0,2080816.0,2152679.0,2053720.0,1982230.0,2242347.0,2143522.0,1766229.0,2063077.0,1916449.0,1993364.0,2048490.1818181819
2.484375,2139269.0,2084088.0,2153505.0,2053614.0,1980205.0,2247487.0,2143569.0,1766152.0,2058377.0,1916142.0,1994072.0,2048770.9090909092
2.5,2139930.0,2084524.0,2152047.0,2053650.0,1978309.0,2252582.0,2143532.0,1766129.0,2061543.0,1915693.0,1994827.0,2049342.3636363635
2.515625,2139712.0,2084126.0,2154383.0,2053862.0,1977634.0,2257794.0,2143573.0,1766499.0,2064557.0,1916059.0,1995826.0,2050365.9090909092
2.53125,2138463.0,2081091.0,2155531.0,2054330.0,1977377.0,2190227.0,2143549.0,1766812.0,2067767.0,1916620.0,1996594.0,2044396.4545454546
2.546875,2136957.0,2077346.0,2152993.0,2054845.0,1977525.0,2195434.0,2143578.0,1766975.0,2069980.0,1917728.0,1997584.0,2044631.3636363635
2.5625,2136152.0,2074424.0,2152252.0,2055424.0,1977144.0,2200092.0,2143471.0,1767311.0,2072692.0,1918693.0,1998069.0,2045065.8181818181
2.578125,2135090.0,2071420.0,2156529.0,2056381.0,1977382.0,2182924.0,2143598.0,1767864.0,2069994.0,1920103.0,1999526.0,2043710.0909090908
2.59375,2134452.0,2068329.0,2157753.0,2056899.0,1977756.0,2205051.0,2143507.0,1768080.0,2063818.0,1921251.0,2000976.0,2045261.0909090908
2.609375,2134105.0,2067624.0,2160464.0,2057521.0,1978082.0,2163586.0,2143505.0,1768482.0,2058775.0,1922431.0,2003078.0,2041604.8181818181
2.625,2133732.0,2066917.0,2163445.0,2058190.0,1979255.0,2261345.0,2143548.0,1769091.0,2055209.0,1923853.0,2004640.0,2050838.6363636365
2.640625,2133147.0,2067436.0,2160869.0,2059107.0,1980326.0,2173007.0,2143539.0,1769692.0,2052421.0,1925282.0,2006382.0,2042837.0909090908
2.65625,2132654.0,2067907.0,2158634.0,2059859.0,1981483.0,2265587.0,2143584.0,1770285.0,2049605.0,1926139.0,2007560.0,2051208.8181818181
2.671875,2132223.0,2070037.0,2162030.0,2060639.0,1982918.0,2268501.0,2143518.0,1771110.0,2048513.0,1923796.0,2008585.0,2051988.1818181819
2.6875,2132003.0,2080965.0,2159010.0,2061593.0,1984333.0,2270905.0,2143531.0,1771885.0,2047920.0,1920603.0,2009334.0,2052916.5454545454
2.703125,2131510.0,2089705.0,2162952.0,2062470.0,1985495.0,2273242.0,2143565.0,1772329.0,2046767.0,1918434.0,2010775.0,2054294.9090909092
2.71875,2131700.0,2091366.0,2157363.0,2063016.0,1987251.0,2280626.0,2143515.0,1772278.0,2046261.0,1917054.0,2011444.0,2054715.8181818181
2.734375,2131727.0,2087438.0,2156740.0,2062092.0,1988914.0,2284592.0,2143530.0,1771742.0,2046084.0,1915585.0,2011822.0,2054569.6363636365
2.75,2131632.0,2083549.0,2156704.0,2060449.0,1990257.0,2276476.0,2143484.0,1771066.0,2046735.0,1914741.0,2011631.0,2053338.5454545454
2.765625,2131934.0,2083432.0,2156360.0,2058807.0,1992177.0,2287743.0,2143506.0,1770413.0,2047997.0,1914571.0,2011549.0,2054408.0909090908
2.78125,2132011.0,2082816.0,2158044.0,2057738.0,1992171.0,2290893.0,2143635.0,1769641.0,2051444.0,1914185.0,2011365.0,2054903.9090909092
2.796875,2132189.0,2082686.0,2157340.0,2056897.0,1988533.0,2292872.0,2143523.0,1769366.0,2049597.0,1913797.0,2011538.0,2054394.3636363635
2.8125,2132481.0,2083159.0,2159125.0,2056553.0,1984248.0,2292133.0,2143488.0,1769722.0,2054143.0,1914045.0,2011888.0,2054635.0
2.828125,2132132.0,2084844.0,2160349.0,2056473.0,1980498.0,2146704.0,2143611.0,1769535.0,2056866.0,1914585.0,2012454.0,2041641.0
2.84375,2132629.0,2086819.0,2161363.0,2056310.0,1977053.0,2287783.0,2143530.0,1769832.0,2059807.0,1916644.0,2012775.0,2054958.6363636365
2.859375,2133674.0,2087135.0,2162658.0,2056034.0,1973912.0,2285182.0,2143507.0,1769835.0,2063491.0,1917822.0,2013531.0,2055161.9090909092
2.875,2134446.0,2087369.0,2163966.0,2055678.0,1972387.0,2284674.0,2143509.0,1770111.0,2066924.0,1915567.0,2013978.0,2055328.0909090908
2.890625,2133903.0,2087322.0,2165430.0,2055507.0,1971549.0,2284312.0,2143512.0,1770500.0,2070882.0,1918865.0,2014711.0,2056044.8181818181
2.90625,2132420.0,2085742.0,2166929.0,2055494.0,1970444.0,2286309.0,2143590.0,1771097.0,2070143.0,1920238.0,2015108.0,2056137.6363636365
2.921875,2133754.0,2083822.0,2167958.0,2056034.0,1969464.0,2287368.0,2143468.0,1771446.0,2059433.0,1921386.0,2015598.0,2055430.0909090908
2.9375,2133053.0,2081555.0,2166781.0,2056358.0,1969230.0,2286936.0,2143511.0,1771968.0,2065862.0,1922925.0,2016452.0,2055875.5454545454
2.953125,2130230.0,2079593.0,2164044.0,2056984.0,1968953.0,2286781.0,2143540.0,1772530.0,2055177.0,1923904.0,2016750.0,2054407.8181818181
2.96875,2128403.0,2078165.0,2161908.0,2057615.0,1969152.0,2286999.0,2143514.0,1772921.0,2052341.0,1922052.0,2016949.0,2053638.0909090908
2.984375,2126789.0,2077134.0,2160389.0,2058414.0,1969466.0,2286411.0,2143540.0,1773737.0,2049948.0,1918702.0,2017057.0,2052871.5454545454
3.0,2124108.0,2077230.0,2159446.0,2059230.0,1970575.0,2287533.0,2143520.0,1774058.0,2048704.0,1916495.0,2016988.0,2052535.1818181819
3.015625,2123068.0,2077866.0,2158993.0,2059906.0,1971324.0,2288208.0,2143591.0,1774740.0,2048650.0,1914836.0,2016460.0,2052512.9090909092
3.03125,2122081.0,2079107.0,2159413.0,2060785.0,1972075.0,2289747.0,2143502.0,1775429.0,2048368.0,1913265.0,2016488.0,2052750.9090909092
3.046875,2121016.0,2080525.0,2159847.0,2061637.0,1973064.0,2290589.0,2143518.0,1776294.0,2048195.0,1912442.0,2016561.0,2053062.5454545454
3.0625,2125076.0,2082848.0,2161214.0,2062627.0,1974300.0,2291515.0,2143568.0,1776393.0,2048293.0,1912351.0,2016935.0,2054101.8181818181
3.078125,2119970.0,2086269.0,2161917.0,2063535.0,1975484.0,2294353.0,2143523.0,1776102.0,2049645.0,1912197.0,2016942.0,2054539.7272727273
3.09375,2118920.0,2091066.0,2163051.0,2064616.0,1976546.0,2298748.0,2143574.0,1775731.0,2051967.0,1911727.0,2017168.0,2055737.6363636365
3.109375,2118299.0,2095968.0,2164236.0,2065501.0,1978279.0,2292544.0,2143567.0,1775414.0,2053922.0,1911546.0,2017563.0,2056076.2727272727
3.125,2117814.0,2099592.0,2165667.0,2066521.0,1979592.0,2300830.0,2143516.0,1775079.0,2056101.0,1912386.0,2017894.0,2057726.5454545454
3.140625,2116946.0,2102505.0,2166882.0,2067730.0,1979128.0,2296193.0,2143527.0,1774964.0,2058800.0,1915562.0,2018405.0,2058240.1818181819
3.15625,2116727.0,2104836.0,2168408.0,2068636.0,1974559.0,2301498.0,2143507.0,1774710.0,2061541.0,1916753.0,2018869.0,2059094.9090909092
3.171875,2116530.0,2106172.0,2160556.0,2069481.0,1970098.0,2303176.0,2143552.0,1774975.0,2064341.0,1919330.0,2019141.0,2058850.1818181819
3.1875,2116136.0,2105933.0,2158250.0,2068426.0,1965548.0,2305633.0,2143572.0,1775131.0,2066422.0,1920447.0,2019907.0,2058673.1818181819
3.203125,2115901.0,2106000.0,2169860.0,2066961.0,1961524.0,2308355.0,2143638.0,1775231.0,2070279.0,1922231.0,2019792.0,2059979.2727272727
3.21875,2115861.0,2105874.0,2171452.0,2065869.0,1958752.0,2309727.0,2143491.0,1775855.0,2074032.0,1914298.0,2017609.0,2059347.2727272727
3.234375,2115982.0,2106589.0,2171365.0,2065011.0,1957168.0,2312025.0,2143538.0,1775702.0,2077654.0,1917841.0,2019331.0,2060200.5454545454
3.25,2115924.0,2107315.0,2169024.0,2064369.0,1955974.0,2314502.0,2143610.0,1775974.0,2076230.0,1922482.0,2019328.0,2060430.1818181819
3.265625,2116115.0,2108525.0,2166849.0,2063983.0,1955116.0,2316707.0,2143527.0,1776288.0,2071513.0,1913188.0,2019494.0,2059209.5454545454
3.28125,2116009.0,2109447.0,2164835.0,2064119.0,1954064.0,2319139.0,2143497.0,1777071.0,2068527.0,1919957.0,2019818.0,2059680.2727272727
3.296875,2116689.0,2110894.0,2163321.0,2063962.0,1953817.0,2319479.0,2143610.0,1777198.0,2066921.0,1916942.0,2019673.0,2059318.7272727273
3.3125,2116578.0,2111469.0,2162337.0,2063722.0,1953565.0,2319434.0,2143560.0,1777577.0,2065848.0,1915294.0,2020162.0,2059049.6363636365
3.328125,2117166.0,2112350.0,2161755.0,2063505.0,1953484.0,2318662.0,2143469.0,1778042.0,2065217.0,1914008.0,2020702.0,2058941.8181818181
3.34375,2116396.0,2113112.0,2162153.0,2063449.0,1954037.0,2318969.0,2143576.0,1778238.0,2066256.0,1912514.0,2020850.0,2059050.0
3.359375,2114705.0,2114134.0,2162576.0,2063514.0,1954739.0,2318400.0,2143507.0,1778733.0,2067025.0,1912241.0,2020183.0,2059068.8181818181
3.375,2111526.0,2115272.0,2163702.0,2063843.0,1955535.0,2318807.0,2143513.0,1779152.0,2067748.0,1912784.0,2021022.0,2059354.9090909092
3.390625,2109394.0,2116558.0,2165668.0,2064238.0,1956568.0,2319639.0,2143543.0,1778872.0,2069123.0,1914949.0,2020927.0,2059952.6363636365
3.40625,2106840.0,2117585.0,2166776.0,2065038.0,1957533.0,2320749.0,2143489.0,1778376.0,2071227.0,1912268.0,2021573.0,2060132.1818181819
3.421875,2105187.0,2117824.0,2167968.0,2065463.0,1958552.0,2321924.0,2143540.0,1777407.0,2074755.0,1912749.0,2021824.0,2060653.9090909092
3.4375,2103176.0,2116582.0,2169488.0,2066098.0,1959692.0,2322790.0,2143509.0,1776818.0,2079849.0,1916352.0,2021853.0,2061473.3636363635
3.453125,2101856.0,2115180.0,2170878.0,2066816.0,1961224.0,2323951.0,2143558.0,1776647.0,2084975.0,1911746.0,2021747.0,2061688.9090909092
3.46875,2100571.0,2114401.0,2172568.0,2067443.0,1962817.0,2325036.0,2143534.0,1776571.0,2090770.0,1913782.0,2021332.0,2062620.4545454546
3.484375,2099388.0,2114142.0,2174206.0,2068192.0,1964360.0,2326290.0,2143486.0,1776716.0,2096378.0,1918743.0,2020790.0,2063881.0
3.5,2097995.0,2114336.0,2175951.0,2068913.0,1963693.0,2327765.0,2143583.0,1776688.0,2101625.0,1917435.0,2020570.0,2064414.0
3.515625,2096796.0,2114630.0,2177341.0,2069526.0,1959878.0,2329303.0,2143559.0,1776579.0,2106794.0,1919991.0,2020722.0,2065010.8181818181
3.53125,2095864.0,2115144.0,2178491.0,2070268.0,1955105.0,2331150.0,2143517.0,1776473.0,2112126.0,1921613.0,2020651.0,2065491.0909090908
3.546875,2094767.0,2115841.0,2164672.0,2071063.0,1950837.0,2333435.0,2143591.0,1776614.0,2117000.0,1911907.0,2021051.0,2063707.0909090908
3.5625,2093491.0,2116403.0,2177123.0,2071791.0,1947236.0,2335995.0,2143539.0,1776979.0,2121730.0,1922643.0,2021159.0,2066189.9090909092
3.578125,2094109.0,2116641.0,2175011.0,2072671.0,1944673.0,2337228.0,2143567.0,1777482.0,2121698.0,1921508.0,2021767.0,2066032.2727272727
3.59375,2093247.0,2117155.0,2173007.0,2073647.0,1943072.0,2338646.0,2143535.0,1778258.0,2118158.0,1918597.0,2021429.0,2065341.0
3.609375,2092678.0,2116632.0,2171817.0,2074506.0,1942246.0,2340243.0,2143529.0,1778344.0,2114912.0,1916658.0,2021925.0,2064862.7272727273
3.625,2092412.0,2116458.0,2170884.0,2074899.0,1941293.0,2341752.0,2143503.0,1779161.0,2112544.0,1915542.0,2022289.0,2064612.4545454546
3.640625,2092297.0,2115850.0,2170454.0,2073728.0,1940700.0,2343842.0,2143533.0,1777302.0,2110993.0,1914279.0,2022904.0,2064171.0909090908
3.65625,2091935.0,2115758.0,2170675.0,2072707.0,1940220.0,2345480.0,2143478.0,1778727.0,2108833.0,1914050.0,2023564.0,2064129.7272727273
3.671875,2092292.0,2115123.0,2163223.0,2071571.0,1940070.0,2344887.0,2143522.0,1777796.0,2108008.0,1914374.0,2023441.0,2063118.8181818181
3.6875,2091980.0,2113284.0,2171812.0,2070907.0,1940531.0,2344219.0,2143501.0,1778438.0,2109055.0,1913990.0,2023259.0,2063725.0909090908
3.703125,2092100.0,2111066.0,2172413.0,2070693.0,1941051.0,2342627.0,2143457.0,1777541.0,2109520.0,1914204.0,2023214.0,2063444.1818181819
3.71875,2092194.0,2109734.0,2171301.0,2070571.0,1941863.0,2341350.0,2143489.0,1776330.0,2110516.0,1914760.0,2022677.0,2063162.2727272727
3.734375,2092363.0,2108688.0,2174332.0,2070929.0,1942857.0,2341137.0,2143521.0,1776742.0,2112481.0,1915678.0,2022762.0,2063771.8181818181
3.75,2092792.0,2108414.0,2176742.0,2070701.0,1943648.0,2341148.0,2143581.0,1776204.0,2114838.0,1916777.0,2022896.0,2064340.0909090908
3.765625,2092425.0,2108458.0,2173172.0,2070495.0,1944809.0,2341734.0,2143487.0,1777849.0,2117597.0,1917989.0,2022822.0,2064621.5454545454
3.78125,2090767.0,2108621.0,2177950.0,2070478.0,1945739.0,2342119.0,2143522.0,1776225.0,2120632.0,1919038.0,2022888.0,2065270.8181818181
3.796875,2087454.0,2108722.0,2175475.0,2070472.0,1946949.0,2342006.0,2143563.0,1776442.0,2123531.0,1920211.0,2023156.0,2065271.0
3.8125,2085048.0,2108936.0,2181099.0,2070735.0,1947700.0,2342902.0,2143502.0,1776445.0,2125650.0,1921553.0,2023351.0,2066083.7272727273
3.828125,2082258.0,2108916.0,2184000.0,2071222.0,1949562.0,2342917.0,2143465.0,1776686.0,2129191.0,1922902.0,2023675.0,2066799.4545454546
3.84375,2080508.0,2108943.0,2185374.0,2071880.0,1950871.0,2344196.0,2143615.0,1777046.0,2132147.0,1914543.0,2024070.0,2066653.9090909092
3.859375,2078483.0,2109244.0,2179397.0,2072452.0,1950288.0,2345081.0,2143579.0,1777088.0,2135735.0,1921888.0,2024150.0,2067035.0
3.875,2076856.0,2109255.0,2182416.0,2073225.0,1946688.0,2345896.0,2143508.0,1777293.0,2139927.0,1923884.0,2025270.0,2067656.1818181819
3.890625,2075400.0,2109837.0,2187664.0,2074001.0,1942244.0,2346897.0,2143451.0,1777811.0,2143669.0,1918981.0,2025400.0,2067759.5454545454
3.90625,2074463.0,2108992.0,2184601.0,2074833.0,1938438.0,2348746.0,2143515.0,1778201.0,2147450.0,1917128.0,2024633.0,2067363.6363636365
3.921875,2072680.0,2107064.0,2183325.0,2075517.0,1935962.0,2349481.0,2143482.0,1778588.0,2147237.0,1916176.0,2025293.0,2066800.4545454546
3.9375,2071473.0,2104762.0,2186004.0,2076194.0,1934321.0,2350902.0,2143531.0,1779089.0,2143981.0,1915115.0,2025308.0,2066425.4545454546
3.953125,2070520.0,2103077.0,2187126.0,2076995.0,1933318.0,2352092.0,2143607.0,1779761.0,2141347.0,1914630.0,2024958.0,2066130.0909090908
3.96875,2069377.0,2101956.0,2182735.0,2077930.0,1932942.0,2353609.0,2143520.0,1780022.0,2139962.0,1914447.0,2024782.0,2065571.0909090908
3.984375,2068698.0,2101611.0,2183011.0,2078660.0,1932795.0,2354888.0,2143463.0,1779567.0,2138367.0,1914353.0,2024837.0,2065477.2727272727
4.0,2068097.0,2101559.0,2182707.0,2079654.0,1932746.0,2355962.0,2143548.0,1779127.0,2136413.0,1914226.0,2025047.0,2065371.4545454546
4.015625,2067575.0,2101599.0,2183760.0,2080402.0,1932972.0,2356991.0,2143480.0,1778235.0,2136152.0,1914299.0,2025217.0,2065516.5454545454
4.03125,2067226.0,2101546.0,2185041.0,2081365.0,1933336.0,2358472.0,2143546.0,1777423.0,2137328.0,1915112.0,2025293.0,2065971.6363636365
4.046875,2066926.0,2101364.0,2186686.0,2082387.0,1934101.0,2359554.0,2143461.0,1776704.0,2138827.0,1915976.0,2025810.0,2066526.9090909092
4.0625,2066598.0,2101298.0,2184647.0,2083452.0,1934983.0,2359731.0,2143469.0,1775902.0,2141050.0,1917218.0,2025549.0,2066717.9090909092
4.078125,2066577.0,2101536.0,2185733.0,2083700.0,1937191.0,2358416.0,2143545.0,1775777.0,2143567.0,1918471.0,2025893.0,2067309.6363636365
4.09375,2066498.0,2101711.0,2187543.0,2082540.0,1941570.0,2356756.0,2143506.0,1775886.0,2146156.0,1919509.0,2026156.0,2067984.6363636365
4.109375,2066208.0,2101653.0,2190057.0,2080761.0,1944448.0,2354517.0,2143507.0,1775887.0,2149883.0,1920978.0,2026924.0,2068620.2727272727
4.125,2066524.0,2101035.0,2188714.0,2079262.0,1942464.0,2353410.0,2143487.0,1775820.0,2152575.0,1922245.0,2027092.0,2068420.7272727273
4.140625,2066541.0,2098028.0,2191376.0,2078135.0,1938006.0,2351875.0,2143508.0,1776141.0,2155319.0,1923884.0,2027463.0,2068206.9090909092
4.15625,2063927.0,2094443.0,2193855.0,2077213.0,1934480.0,2351064.0,2143494.0,1776195.0,2157767.0,1923712.0,2027500.0,2067604.5454545454
4.171875,2066884.0,2091105.0,2196884.0,2076755.0,1934301.0,2350980.0,2143509.0,1775772.0,2159837.0,1920761.0,2027365.0,2067650.2727272727
4.1875,2066285.0,2088875.0,2198057.0,2076490.0,1938594.0,2350535.0,2143552.0,1776557.0,2162379.0,1917573.0,2026821.0,2067792.5454545454
4.203125,2066798.0,2087256.0,2192555.0,2076133.0,1946900.0,2349938.0,2143462.0,1777153.0,2165181.0,1915901.0,2027288.0,2068051.3636363635
4.21875,2060944.0,2086093.0,2197472.0,2075555.0,1955924.0,2349372.0,2143556.0,1777609.0,2167782.0,1914452.0,2026797.0,2068686.9090909092
4.234375,2056326.0,2085284.0,2195444.0,2075064.0,1963686.0,2349440.0,2143505.0,1777709.0,2171099.0,1913127.0,2027209.0,2068899.3636363635
4.25,2058529.0,2084733.0,2195378.0,2074580.0,1968661.0,2349452.0,2143505.0,1778289.0,2173812.0,1912418.0,2027397.0,2069704.9090909092
4.265625,2054559.0,2083941.0,2192225.0,2074546.0,1968048.0,2349589.0,2143537.0,1778941.0,2173358.0,1912081.0,2027739.0,2068960.3636363635
4.28125,2053483.0,2083167.0,2191492.0,2074481.0,1962334.0,2350276.0,2143513.0,1779108.0,2169071.0,1911774.0,2027768.0,2067860.6363636365
4.296875,2052344.0,2082753.0,2191379.0,2074873.0,1957559.0,2350560.0,2143573.0,1777028.0,2165233.0,1911695.0,2028011.0,2066818.9090909092
4.3125,2051327.0,2082094.0,2191796.0,2075027.0,1957073.0,2351006.0,2143489.0,1778739.0,2162748.0,1912032.0,2028315.0,2066695.0909090908
4.328125,2046139.0,2081605.0,2192137.0,2075501.0,1958367.0,2351713.0,2143472.0,1777787.0,2159998.0,1912479.0,2028492.0,2066153.6363636365
4.34375,2045823.0,2081253.0,2192701.0,2075998.0,1961078.0,2352493.0,2143598.0,1775862.0,2157503.0,1913466.0,2029066.0,2066258.2727272727
4.359375,2046880.0,2077503.0,2193068.0,2076392.0,1963166.0,2353177.0,2143452.0,1775199.0,2155779.0,1914839.0,2029200.0,2066241.3636363635
4.375,2045126.0,2072523.0,2194031.0,2076689.0,1964709.0,2353543.0,2143543.0,1774433.0,2154417.0,1915958.0,2029188.0,2065832.7272727273
4.390625,2045035.0,2067645.0,2198000.0,2076975.0,1966690.0,2354389.0,2143480.0,1774344.0,2153568.0,1917041.0,2029359.0,2066047.8181818181
4.40625,2044855.0,2063721.0,2196912.0,2077446.0,1968332.0,2355533.0,2143493.0,1774001.0,2152474.0,1918432.0,2028848.0,2065822.4545454546
4.421875,2045255.0,2060667.0,2199104.0,2077952.0,1968332.0,2356425.0,2143567.0,1774155.0,2152391.0,1919869.0,2028473.0,2066017.2727272727
4.4375,2045443.0,2058626.0,2195615.0,2078394.0,1970039.0,2357320.0,2143495.0,1774153.0,2152266.0,1921350.0,2028309.0,2065910.0
4.453125,2045491.0,2057237.0,2193515.0,2079075.0,1971657.0,2358538.0,2143539.0,1774335.0,2152317.0,1922111.0,2028468.0,2066025.7272727273
4.46875,2045476.0,2055781.0,2194651.0,2079530.0,1973501.0,2358122.0,2143535.0,1774336.0,2152417.0,1919835.0,2028491.0,2065970.4545454546
4.484375,2045914.0,2054472.0,2191085.0,2080217.0,1975453.0,2356396.0,2143508.0,1775048.0,2153115.0,1916558.0,2028466.0,2065475.6363636365
4.5,2045366.0,2052949.0,2200250.0,2080746.0,1977708.0,2354274.0,2143480.0,1775182.0,2155269.0,1914417.0,2028524.0,2066196.8181818181
4.515625,2048858.0,2051796.0,2202977.0,2081309.0,1979682.0,2351203.0,2143491.0,1774713.0,2158343.0,1912870.0,2028402.0,2066694.9090909092
4.53125,2046679.0,2050811.0,2204072.0,2080686.0,1980994.0,2348922.0,2143492.0,1775650.0,2160588.0,1910959.0,2028584.0,2066494.2727272727
4.546875,2047675.0,2050210.0,2203351.0,2078707.0,1981675.0,2347779.0,2143516.0,1775891.0,2163175.0,1910221.0,2028711.0,2066446.4545454546
4.5625,2046091.0,2041199.0,2201017.0,2076502.0,1982255.0,2347968.0,2143565.0,1776521.0,2165648.0,1909997.0,2028746.0,2065409.9090909092
4.578125,2049766.0,2046815.0,2201666.0,2074794.0,1980780.0,2347469.0,2143597.0,1776998.0,2168152.0,1909722.0,2029018.0,2066252.4545454546
4.59375,2045844.0,2049600.0,2198899.0,2073541.0,1975176.0,2347570.0,2143495.0,1777609.0,2169913.0,1909516.0,2029108.0,2065479.1818181819
4.609375,2043311.0,2035602.0,2197027.0,2072782.0,1965913.0,2346966.0,2143516.0,1778045.0,2166744.0,1909484.0,2029113.0,2062591.1818181819
4.625,2040494.0,2030408.0,2195610.0,2072564.0,1957308.0,2346877.0,2143553.0,1777815.0,2159727.0,1910079.0,2029009.0,2060313.0909090908
4.640625,2037641.0,2026899.0,2194525.0,2072151.0,1948657.0,2346784.0,2143512.0,1777063.0,2153519.0,1911095.0,2028571.0,2058219.7272727273
4.65625,2035822.0,2023947.0,2194271.0,2071450.0,1940136.0,2346908.0,2143517.0,1776298.0,2148874.0,1912138.0,2027957.0,2056483.4545454546
4.671875,2034114.0,2022097.0,2194289.0,2070551.0,1933476.0,2347881.0,2143520.0,1775275.0,2144681.0,1913397.0,2027618.0,2055172.6363636365
4.6875,2032218.0,2020620.0,2194301.0,2069934.0,1927948.0,2348402.0,2143617.0,1774867.0,2140141.0,1914786.0,2027552.0,2054035.0909090908
4.703125,2031184.0,2019132.0,2194273.0,2069368.0,1922789.0,2348614.0,2143488.0,1774156.0,2137574.0,1916049.0,2027335.0,2053087.4545454546
4.71875,2030152.0,2017784.0,2194761.0,2069196.0,1916596.0,2349221.0,2143524.0,1774056.0,2135232.0,1917339.0,2027326.0,2052289.7272727273
4.734375,2029117.0,2016299.0,2195094.0,2069343.0,1911203.0,2350090.0,2143444.0,1773966.0,2132517.0,1918833.0,2027520.0,2051584.1818181819
4.75,2028001.0,2015000.0,2195765.0,2069645.0,1908247.0,2350248.0,2143538.0,1773927.0,2130868.0,1920426.0,2027385.0,2051186.3636363635
4.765625,2026863.0,2013977.0,2196526.0,2069994.0,1905792.0,2351398.0,2143519.0,1774186.0,2129239.0,1921420.0,2027719.0,2050966.6363636365
4.78125,2026312.0,2013730.0,2197396.0,2070404.0,1905860.0,2352747.0,2143445.0,1774142.0,2128705.0,1919450.0,2027764.0,2050905.0
4.796875,2025758.0,2013441.0,2198358.0,2070798.0,1906629.0,2353617.0,2143516.0,1774259.0,2128561.0,1916385.0,2027293.0,2050783.1818181819
4.8125,2025312.0,2011086.0,2199286.0,2071231.0,1905968.0,2354856.0,2143522.0,1774700.0,2128817.0,1914346.0,2027635.0,2050614.4545454546
4.828125,2025247.0,2005651.0,2200407.0,2071827.0,1905190.0,2356184.0,2143442.0,1774842.0,2129682.0,1913060.0,2028140.0,2050333.8181818181
4.84375,2024775.0,1999536.0,2201579.0,2072185.0,1903919.0,2356968.0,2143529.0,1775255.0,2130015.0,1911542.0,2027714.0,2049728.8181818181
4.859375,2025004.0,1994645.0,2202583.0,2072787.0,1902916.0,2355807.0,2143517.0,1775656.0,2130261.0,1911006.0,2027418.0,2049236.3636363635
4.875,2024979.0,1990814.0,2203756.0,2073277.0,1902737.0,2353493.0,2143543.0,1775972.0,2131108.0,1910912.0,2026855.0,2048858.7272727273
4.890625,2024963.0,1988013.0,2204985.0,2073882.0,1903044.0,2349924.0,2143519.0,1776583.0,2132260.0,1910692.0,2026192.0,2048550.6363636365
4.90625,2025362.0,1984934.0,2204711.0,2074498.0,1902848.0,2346854.0,2143505.0,1777116.0,2133783.0,1910536.0,2025260.0,2048127.9090909092
4.921875,2025710.0,1983476.0,2202325.0,2075392.0,1903039.0,2345634.0,2143499.0,1777667.0,2135312.0,1910778.0,2024677.0,2047955.3636363635
4.9375,2026468.0,1986291.0,2199626.0,2075898.0,1903110.0,2344041.0,2143500.0,1778546.0,2135435.0,1911358.0,2024382.0,2048059.5454545454
4.953125,2026913.0,1980817.0,2197437.0,2075334.0,1902909.0,2343659.0,2143524.0,1778169.0,2130648.0,1912442.0,2024014.0,2046896.9090909092
4.96875,2027331.0,1979190.0,2195514.0,2073087.0,1899314.0,2343561.0,2143469.0,1778285.0,2123328.0,1913344.0,2023922.0,2045485.9090909092
4.984375,2028246.0,1979001.0,2194381.0,2070817.0,1893212.0,2343157.0,2143517.0,1777638.0,2117856.0,1914836.0,2023470.0,2044193.7272727273
5.0,2028537.0,1979090.0,2193818.0,2068781.0,1887089.0,2342635.0,2143541.0,1776486.0,2113190.0,1915987.0,2023241.0,2042945.0
5.015625,2027844.0,1979165.0,2193749.0,2067328.0,1881820.0,2342411.0,2143584.0,1776033.0,2107996.0,1917408.0,2023164.0,2041863.8181818181
5.03125,2025288.0,1978883.0,2193754.0,2066389.0,1877750.0,2341845.0,2143508.0,1775257.0,2103943.0,1918803.0,2023052.0,2040770.1818181819
5.046875,2022466.0,1979831.0,2193651.0,2065946.0,1875031.0,2342581.0,2143496.0,1775265.0,2101510.0,1920298.0,2022850.0,2040265.9090909092
5.0625,2020621.0,1982146.0,2194113.0,2065542.0,1873734.0,2343102.0,2143534.0,1775269.0,2099875.0,1921883.0,2023050.0,2040260.8181818181
5.078125,2018604.0,1969794.0,2195010.0,2064845.0,1872750.0,2344108.0,2143562.0,1775594.0,2097801.0,1923355.0,2022937.0,2038941.8181818181
5.09375,2016987.0,1962067.0,2196629.0,2064320.0,1871105.0,2344764.0,2143503.0,1775284.0,2095763.0,1923572.0,2023243.0,2037930.6363636365
5.109375,2015298.0,1965284.0,2194335.0,2063688.0,1870155.0,2345355.0,2143446.0,1775803.0,2094888.0,1920800.0,2022839.0,2037444.6363636365
5.125,2014760.0,1960045.0,2195845.0,2063420.0,1869553.0,2346110.0,2143503.0,1775578.0,2094416.0,1918356.0,2021652.0,2036658.0
5.140625,2013721.0,1975155.0,2198841.0,2063294.0,1872062.0,2347035.0,2143523.0,1776212.0,2094408.0,1916907.0,2020856.0,2038364.9090909092
5.15625,2012726.0,1958680.0,2197667.0,2063408.0,1869784.0,2348300.0,2143534.0,1777646.0,2094353.0,1915983.0,2020285.0,2036578.7272727273
5.171875,2011955.0,1957438.0,2199940.0,2063615.0,1872952.0,2349349.0,2143506.0,1776672.0,2094371.0,1914913.0,2019902.0,2036783.0
5.1875,2011712.0,1956266.0,2202456.0,2064152.0,1871204.0,2349996.0,2143570.0,1778085.0,2094457.0,1914923.0,2019690.0,2036955.5454545454
5.203125,2010961.0,1955905.0,2203751.0,2064820.0,1874010.0,2351345.0,2143425.0,1777097.0,2095006.0,1914838.0,2022453.0,2037601.0
5.21875,2010900.0,1956053.0,2205154.0,2065417.0,1875116.0,2352416.0,2143485.0,1775940.0,2095560.0,1914740.0,2019498.0,2037661.7272727273
5.234375,2010691.0,1956806.0,2206721.0,2066017.0,1875972.0,2353262.0,2143485.0,1778502.0,2096482.0,1914626.0,2018617.0,2038289.1818181819
5.25,2010762.0,1955980.0,2201149.0,2066624.0,1870556.0,2353263.0,2143501.0,1779963.0,2097209.0,1914899.0,2019136.0,2037549.2727272727
5.265625,2011242.0,1958053.0,2206575.0,2067162.0,1876824.0,2351783.0,2143499.0,1779688.0,2098166.0,1915870.0,2018266.0,2038829.8181818181
5.28125,2011103.0,1957205.0,2204354.0,2068001.0,1878247.0,2348585.0,2143400.0,1778906.0,2094487.0,1916997.0,2017979.0,2038114.9090909092
5.296875,2011600.0,1956478.0,2207811.0,2068724.0,1876874.0,2344576.0,2143495.0,1778907.0,2086008.0,1918345.0,2017948.0,2037342.3636363635
5.3125,2012242.0,1958716.0,2200437.0,2069551.0,1872401.0,2342006.0,2143523.0,1779509.0,2078302.0,1919533.0,2017774.0,2035817.6363636365
5.328125,2012711.0,1952280.0,2198503.0,2070119.0,1867190.0,2340018.0,2143511.0,1777713.0,2072443.0,1920766.0,2017878.0,2033921.0909090908
5.34375,2013258.0,1947802.0,2198111.0,2071164.0,1863500.0,2339263.0,2143531.0,1780090.0,2066724.0,1922210.0,2017576.0,2033020.8181818181
5.359375,2013971.0,1944332.0,2198315.0,2072019.0,1860535.0,2338824.0,2143446.0,1778369.0,2061742.0,1923518.0,2017332.0,2032036.6363636365
5.375,2014835.0,1956908.0,2198353.0,2072470.0,1858754.0,2337589.0,2143517.0,1778089.0,2058159.0,1925168.0,2017007.0,2032804.4545454546
5.390625,2015519.0,1941911.0,2199216.0,2071154.0,1858243.0,2336849.0,2143510.0,1777807.0,2055869.0,1926596.0,2015302.0,2031088.7272727273
5.40625,2016339.0,1958300.0,2202062.0,2068586.0,1857130.0,2335731.0,2143506.0,1777920.0,2053699.0,1928140.0,2014604.0,2032365.1818181819
5.421875,2017438.0,1940365.0,2198333.0,2066446.0,1855900.0,2334944.0,2143472.0,1778097.0,2051440.0,1926890.0,2014427.0,2029795.6363636365
5.4375,2018245.0,1939921.0,2198761.0,2064931.0,1854635.0,2334734.0,2143559.0,1778235.0,2049956.0,1924377.0,2018400.0,2029614.0
5.453125,2016601.0,1938855.0,2199053.0,2063992.0,1854443.0,2334594.0,2143406.0,1778570.0,2049181.0,1922819.0,2014190.0,2028700.3636363635
5.46875,2014321.0,1939682.0,2199814.0,2063303.0,1854944.0,2335035.0,2143495.0,1779844.0,2049249.0,1922056.0,2016194.0,2028903.3636363635
5.484375,2012473.0,1938833.0,2200655.0,2062859.0,1854716.0,2335099.0,2143507.0,1780556.0,2049494.0,1921392.0,2013666.0,2028477.2727272727
5.5,2010807.0,1938697.0,2201552.0,2062754.0,1856102.0,2335673.0,2143526.0,1780877.0,2049955.0,1921436.0,2013468.0,2028622.4545454546
5.515625,2009657.0,1939311.0,2203719.0,2062288.0,1857482.0,2336125.0,2143467.0,1781498.0,2050801.0,1921474.0,2013229.0,2029004.6363636365
5.53125,2008509.0,1939078.0,2205053.0,2061728.0,1860070.0,2336790.0,2143533.0,1779215.0,2051754.0,1921475.0,2013261.0,2029133.2727272727
5.546875,2007847.0,1939766.0,2207316.0,2061371.0,1862056.0,2337426.0,2143550.0,1778186.0,2052358.0,1921581.0,2012936.0,2029490.2727272727
5.5625,2007502.0,1940662.0,2205988.0,2061261.0,1863926.0,2337475.0,2143503.0,1779048.0,2053855.0,1921789.0,2012842.0,2029804.6363636365
5.578125,2006778.0,1941668.0,2208535.0,2061318.0,1863808.0,2338753.0,2143453.0,1782200.0,2055300.0,1922459.0,2012656.0,2030629.8181818181
5.59375,2006395.0,1942869.0,2209795.0,2061869.0,1860504.0,2339250.0,2143394.0,1782662.0,2056984.0,1923587.0,2012646.0,2030905.0
5.609375,2005850.0,1943809.0,2211093.0,2062323.0,1856569.0,2340264.0,2143497.0,1783200.0,2058572.0,1924837.0,2012909.0,2031174.8181818181
5.625,2005452.0,1944867.0,2210922.0,2063017.0,1853300.0,2340878.0,2143549.0,1783720.0,2059969.0,1926073.0,2012523.0,2031297.2727272727
5.640625,2005602.0,1939015.0,2208173.0,2063704.0,1850152.0,2341031.0,2143457.0,1783734.0,2054791.0,1927461.0,2012379.0,2029954.4545454546
5.65625,2005565.0,1932671.0,2206061.0,2064481.0,1847452.0,2339443.0,2143485.0,1783029.0,2047319.0,1928617.0,2011626.0,2028159.0
5.671875,2006204.0,1935480.0,2204426.0,2065074.0,1846031.0,2335777.0,2143538.0,1782740.0,2041206.0,1930193.0,2010412.0,2027371.0
5.6875,2006261.0,1931367.0,2203486.0,2065892.0,1845865.0,2332002.0,2143490.0,1782681.0,2036989.0,1931590.0,2009658.0,2026298.2727272727
5.703125,2006589.0,1930459.0,2202710.0,2066488.0,1845616.0,2328116.0,2143564.0,1782504.0,2032346.0,1933161.0,2008983.0,2025503.2727272727
5.71875,2007272.0,1930228.0,2202653.0,2067326.0,1844883.0,2326003.0,2143548.0,1782539.0,2027920.0,1933325.0,2008772.0,2024951.7272727273
5.734375,2007972.0,1930462.0,2202808.0,2068147.0,1844468.0,2324256.0,2143529.0,1782817.0,2025622.0,1930738.0,2008414.0,2024475.7272727273
5.75,2008795.0,1930624.0,2202695.0,2068961.0,1844515.0,2322846.0,2143481.0,1782856.0,2024078.0,1928500.0,2007962.0,2024119.3636363635
5.765625,2009556.0,1930459.0,2202935.0,2069882.0,1845694.0,2321339.0,2143533.0,1783325.0,2022797.0,1927447.0,2007367.0,2024030.3636363635
5.78125,2010244.0,1942748.0,2203053.0,2070898.0,1858912.0,2320071.0,2143482.0,1783526.0,2021411.0,1926400.0,2007030.0,2026161.3636363635
5.796875,2011271.0,1930508.0,2203246.0,2071800.0,1855324.0,2317496.0,2143472.0,1783932.0,2021163.0,1925874.0,2006894.0,2024634.5454545454
5.8125,2012186.0,1930785.0,2203554.0,2070824.0,1853535.0,2315853.0,2143473.0,1784417.0,2021742.0,1925791.0,2006652.0,2024437.4545454546
5.828125,2013193.0,1931436.0,2204449.0,2068887.0,1851753.0,2315104.0,2143538.0,1784809.0,2022750.0,1925847.0,2006331.0,2024372.4545454546
5.84375,2014232.0,1932349.0,2206297.0,2066912.0,1849517.0,2314773.0,2143493.0,1785130.0,2023869.0,1925535.0,2006079.0,2024380.5454545454
5.859375,2015260.0,1933341.0,2207388.0,2065386.0,1847522.0,2314725.0,2143479.0,1785505.0,2025224.0,1925698.0,2005997.0,2024502.2727272727
5.875,2014782.0,1934391.0,2208640.0,2064238.0,1857630.0,2314621.0,2143521.0,1786383.0,2026619.0,1926343.0,2005648.0,2025710.5454545454
5.890625,2012745.0,1935818.0,2205426.0,2063825.0,1860063.0,2315339.0,2143485.0,1786597.0,2027475.0,1927324.0,2005543.0,2025785.4545454546
5.90625,2010775.0,1936853.0,2209813.0,2063475.0,1861877.0,2315448.0,2143443.0,1787063.0,2028361.0,1928575.0,2004860.0,2026413.0
5.921875,2009650.0,1936274.0,2212357.0,2063416.0,1859111.0,2316178.0,2143447.0,1787685.0,2030237.0,1929966.0,2003692.0,2026546.6363636365
5.9375,2008564.0,1938176.0,2213715.0,2062860.0,1857630.0,2316400.0,2143482.0,1788104.0,2032888.0,1931160.0,2002593.0,2026870.1818181819
5.953125,2008259.0,1933321.0,2215091.0,2062329.0,1855158.0,2316747.0,2143516.0,1788286.0,2035855.0,1932443.0,2001623.0,2026602.5454545454
5.96875,2007909.0,1930240.0,2216109.0,2061967.0,1854731.0,2317808.0,2143561.0,1787514.0,2038621.0,1933961.0,2001117.0,2026685.2727272727
5.984375,2007865.0,1928071.0,2214528.0,2061904.0,1851278.0,2318411.0,2143532.0,1787147.0,2041504.0,1935403.0,2000164.0,2026346.0909090908
6.0,2007468.0,1926932.0,2211752.0,2062045.0,1848519.0,2319113.0,2143451.0,1786720.0,2043083.0,1937153.0,1999598.0,2025984.9090909092
6.015625,2007024.0,1926661.0,2209223.0,2062538.0,1846241.0,2315455.0,2143507.0,1786564.0,2039458.0,1938070.0,1999087.0,2024893.4545454546
6.03125,2006773.0,1926618.0,2207098.0,2062902.0,1845234.0,2318091.0,2143509.0,1786732.0,2033143.0,1936517.0,1998388.0,2024091.3636363635
6.046875,2007041.0,1926834.0,2205810.0,2063461.0,1845156.0,2310347.0,2143554.0,1786724.0,2028371.0,1933641.0,1997769.0,2022609.8181818181
6.0625,2006830.0,1927203.0,2210894.0,2064136.0,1845590.0,2305439.0,2143464.0,1786817.0,2024683.0,1931513.0,1997430.0,2022181.7272727273
6.078125,2007330.0,1927237.0,2204725.0,2064559.0,1846430.0,2301629.0,2143444.0,1787144.0,2020908.0,1930260.0,1997158.0,2020984.0
6.09375,2007470.0,1927369.0,2204425.0,2065236.0,1847181.0,2298451.0,2143579.0,1787126.0,2017321.0,1928892.0,1996690.0,2020340.0
6.109375,2007948.0,1927970.0,2204420.0,2065812.0,1848274.0,2296540.0,2143478.0,1787051.0,2015997.0,1927910.0,1996355.0,2020159.5454545454
6.125,2008822.0,1928863.0,2204281.0,2066455.0,1849821.0,2294869.0,2143451.0,1787663.0,2015358.0,1927892.0,1996291.0,2020342.3636363635
6.140625,2009170.0,1929901.0,2204045.0,2067130.0,1851636.0,2293354.0,2143493.0,1787622.0,2014512.0,1927705.0,1996286.0,2020441.2727272727
6.15625,2010191.0,1930961.0,2204130.0,2067709.0,1853394.0,2290657.0,2143507.0,1788125.0,2013669.0,1927602.0,1995896.0,2020531.0
6.171875,2010623.0,1932264.0,2204523.0,2068614.0,1855393.0,2289079.0,2143514.0,1788453.0,2013622.0,1927717.0,1995336.0,2020830.7272727273
6.1875,2011896.0,1934451.0,2205363.0,2069427.0,1857323.0,2287758.0,2143564.0,1788548.0,2014414.0,1928282.0,1994496.0,2021411.0909090908
6.203125,2012343.0,1929765.0,2205921.0,2070306.0,1859619.0,2287030.0,2143434.0,1788943.0,2017594.0,1929223.0,1993695.0,2021624.8181818181
6.21875,2013508.0,1927268.0,2206958.0,2070718.0,1861639.0,2286152.0,2143433.0,1789263.0,2016261.0,1930410.0,1993015.0,2021693.1818181819
6.234375,2014228.0,1925560.0,2207891.0,2069442.0,1863869.0,2284303.0,2143459.0,1789542.0,2019577.0,1931556.0,1992775.0,2022018.3636363635
6.25,2015492.0,1933521.0,2209176.0,2067432.0,1866113.0,2285131.0,2143541.0,1789342.0,2015187.0,1932812.0,1992631.0,2022761.6363636365
6.265625,2016259.0,1932877.0,2210219.0,2066027.0,1868736.0,2283900.0,2143471.0,1788653.0,2021240.0,1934121.0,1992889.0,2023490.1818181819
6.28125,2016619.0,1924399.0,2211251.0,2064753.0,1868784.0,2283920.0,2143465.0,1788013.0,2022975.0,1935335.0,1993064.0,2022961.6363636365
6.296875,2014549.0,1924241.0,2212392.0,2064366.0,1866236.0,2283358.0,2143545.0,1787600.0,2025001.0,1936643.0,1993047.0,2022816.1818181819
6.3125,2012065.0,1925097.0,2213788.0,2064320.0,1863711.0,2282573.0,2143516.0,1787310.0,2027800.0,1938257.0,1993025.0,2022860.1818181819
6.328125,2010618.0,1925256.0,2214997.0,2064368.0,1861382.0,2281748.0,2143506.0,1787191.0,2030233.0,1939227.0,1993685.0,2022928.2727272727
6.34375,2009113.0,1925678.0,2216438.0,2064114.0,1859964.0,2280492.0,2143405.0,1787230.0,2032949.0,1937587.0,1993691.0,2022787.3636363635
6.359375,2007639.0,1925791.0,2216861.0,2063721.0,1859024.0,2280073.0,2143539.0,1787184.0,2035153.0,1934678.0,1994026.0,2022517.1818181819
6.375,2007384.0,1926280.0,2214524.0,2063479.0,1858817.0,2279795.0,2143455.0,1787105.0,2032589.0,1933088.0,1994097.0,2021873.9090909092
6.390625,2006556.0,1926846.0,2211553.0,2063458.0,1859508.0,2280288.0,2143462.0,1787340.0,2027068.0,1931477.0,1994547.0,2021100.2727272727
6.40625,2005849.0,1927876.0,2208865.0,2063405.0,1860052.0,2280390.0,2143466.0,1787573.0,2022442.0,1930367.0,1995217.0,2020500.1818181819
6.421875,2005743.0,1929057.0,2206912.0,2063778.0,1860767.0,2277695.0,2143427.0,1787826.0,2020092.0,1929581.0,1995252.0,2020011.8181818181
6.4375,2004964.0,1930160.0,2204820.0,2064319.0,1861768.0,2272115.0,2143460.0,1788166.0,2015828.0,1929339.0,1995073.0,2019092.0
6.453125,2004703.0,1931331.0,2203602.0,2065002.0,1863011.0,2265267.0,2143566.0,1788346.0,2017873.0,1929086.0,1994810.0,2018781.5454545454
6.46875,2004675.0,1933009.0,2202567.0,2065573.0,1864349.0,2260491.0,2143520.0,1789152.0,2015310.0,1928953.0,1994319.0,2018356.1818181819
6.484375,2004533.0,1932838.0,2201964.0,2066252.0,1865928.0,2256291.0,2143454.0,1789286.0,2015342.0,1929164.0,1993782.0,2018075.8181818181
6.5,2004706.0,1930235.0,2202109.0,2067011.0,1867672.0,2253537.0,2143530.0,1789803.0,2014714.0,1929582.0,1993796.0,2017881.3636363635
6.515625,2005030.0,1926756.0,2202661.0,2067838.0,1869578.0,2251667.0,2143479.0,1790191.0,2014828.0,1930531.0,1993762.0,2017847.3636363635
6.53125,2005247.0,1923716.0,2202972.0,2068338.0,1871476.0,2250281.0,2143539.0,1789811.0,2015449.0,1931508.0,1993643.0,2017816.3636363635
6.546875,2005700.0,1921846.0,2203596.0,2068976.0,1873465.0,2248148.0,2143518.0,1789325.0,2016592.0,1932799.0,1993729.0,2017972.1818181819
6.5625,2006160.0,1920560.0,2204323.0,2070031.0,1876140.0,2245974.0,2143500.0,1788493.0,2018131.0,1934039.0,1993935.0,2018298.7272727273
6.578125,2006951.0,1920018.0,2205305.0,2070870.0,1878605.0,2244816.0,2143495.0,1787972.0,2019682.0,1935106.0,1993666.0,2018771.4545454546
6.59375,2007680.0,1919915.0,2206265.0,2071736.0,1881091.0,2243863.0,2143550.0,1787155.0,2021531.0,1936444.0,1994150.0,2019398.1818181819
6.609375,2007963.0,1920468.0,2207260.0,2072807.0,1884021.0,2244061.0,2143446.0,1786631.0,2023518.0,1937743.0,1994275.0,2020199.3636363635
6.625,2009008.0,1920277.0,2208286.0,2073479.0,1886633.0,2244057.0,2143461.0,1786531.0,2025407.0,1939272.0,1994309.0,2020974.5454545454
6.640625,2009867.0,1920332.0,2209441.0,2072591.0,1887916.0,2244649.0,2143449.0,1786373.0,2027203.0,1940715.0,1994663.0,2021563.5454545454
6.65625,2010641.0,1920711.0,2210718.0,2070872.0,1886593.0,2245350.0,2143526.0,1786505.0,2029604.0,1940766.0,1995252.0,2021867.0909090908
6.671875,2011629.0,1921336.0,2211652.0,2069335.0,1884940.0,2245622.0,2143506.0,1786714.0,2032341.0,1938096.0,1995632.0,2021891.1818181819
6.6875,2012591.0,1922084.0,2213089.0,2068054.0,1883410.0,2246319.0,2143482.0,1786371.0,2035309.0,1935593.0,1996044.0,2022031.4545454546
6.703125,2012681.0,1924030.0,2214256.0,2067257.0,1882394.0,2246614.0,2143464.0,1786585.0,2038302.0,1934266.0,1996166.0,2022365.0
6.71875,2010566.0,1926808.0,2203122.0,2066980.0,1882166.0,2247657.0,2143462.0,1786853.0,2033874.0,1933315.0,1996005.0,2020982.5454545454
6.734375,2007646.0,1925297.0,2202360.0,2067030.0,1882746.0,2248539.0,2143527.0,1787094.0,2030151.0,1932110.0,1995355.0,2020168.6363636365
6.75,2005602.0,1926898.0,2213014.0,2066914.0,1884326.0,2249593.0,2143427.0,1787571.0,2038203.0,1931881.0,1995197.0,2022056.9090909092
6.765625,2003332.0,1923233.0,2209684.0,2066544.0,1885909.0,2251214.0,2143522.0,1788125.0,2027892.0,1932016.0,1995005.0,2020588.7272727273
6.78125,2002056.0,1924067.0,2206985.0,2066309.0,1887463.0,2252569.0,2143412.0,1788269.0,2026562.0,1931631.0,1995015.0,2020394.3636363635
6.796875,2000560.0,1920359.0,2204421.0,2065795.0,1889268.0,2256590.0,2143457.0,1788801.0,2025345.0,1931802.0,1995290.0,2020153.4545454546
6.8125,1999417.0,1917466.0,2202720.0,2066064.0,1891095.0,2254777.0,2143447.0,1788978.0,2025161.0,1932055.0,1995534.0,2019701.2727272727
6.828125,1998725.0,1915449.0,2201251.0,2066230.0,1893435.0,2250548.0,2143532.0,1788358.0,2025452.0,1932827.0,1995534.0,2019212.8181818181
6.84375,1997800.0,1914008.0,2200576.0,2066637.0,1895562.0,2246555.0,2143536.0,1787326.0,2025712.0,1933552.0,1995303.0,2018778.8181818181
6.859375,1996827.0,1913809.0,2200123.0,2067106.0,1897671.0,2243436.0,2143551.0,1786620.0,2025431.0,1934787.0,1995579.0,2018630.9090909092
6.875,1995954.0,1913606.0,2199641.0,2067856.0,1901107.0,2241925.0,2143460.0,1785652.0,2026255.0,1935982.0,1995768.0,2018836.9090909092
6.890625,1995843.0,1913836.0,2199008.0,2068322.0,1906334.0,2241117.0,2143526.0,1784759.0,2027757.0,1936999.0,1996078.0,2019416.2727272727
6.90625,1995075.0,1914077.0,2198981.0,2069002.0,1905496.0,2240131.0,2143510.0,1783902.0,2029186.0,1938072.0,1996077.0,2019409.9090909092
6.921875,1994830.0,1913967.0,2199054.0,2069652.0,1895418.0,2237740.0,2143517.0,1783467.0,2030798.0,1939262.0,1996518.0,2018565.7272727273
6.9375,1995174.0,1914053.0,2199379.0,2070255.0,1879537.0,2239606.0,2143482.0,1783123.0,2032815.0,1940632.0,1996933.0,2017726.2727272727
6.953125,1995277.0,1915622.0,2199962.0,2070910.0,1865825.0,2236458.0,2143470.0,1782951.0,2034716.0,1942208.0,1997139.0,2016776.1818181819
6.96875,1995113.0,1914928.0,2200391.0,2071707.0,1856752.0,2235747.0,2143499.0,1782989.0,2036757.0,1942062.0,1997369.0,2016119.4545454546
6.984375,1995443.0,1916768.0,2201035.0,2072470.0,1851056.0,2255921.0,2143471.0,1782994.0,2038630.0,1939639.0,1997261.0,2017698.9090909092
7.0,1996130.0,1917793.0,2201640.0,2073292.0,1847776.0,2253845.0,2143492.0,1782965.0,2041076.0,1937322.0,1996599.0,2017448.1818181819
7.015625,1996098.0,1919212.0,2202576.0,2074093.0,1843485.0,2234237.0,2143509.0,1783090.0,2043157.0,1936190.0,1996057.0,2015609.4545454546
7.03125,1996728.0,1920313.0,2204475.0,2074987.0,1837083.0,2234303.0,2143495.0,1783313.0,2045873.0,1935208.0,1995747.0,2015593.1818181819
7.046875,1997241.0,1921894.0,2206562.0,2075614.0,1832448.0,2233624.0,2143478.0,1783910.0,2047907.0,1934448.0,1995476.0,2015691.0909090908
7.0625,1997747.0,1921590.0,2207414.0,2074589.0,1829446.0,2233109.0,2143519.0,1784093.0,2045034.0,1934269.0,1995219.0,2015093.5454545454
7.078125,1998366.0,1919166.0,2205114.0,2072413.0,1827736.0,2233195.0,2143549.0,1784551.0,2038853.0,1934242.0,1994875.0,2013823.6363636365
7.09375,1999339.0,1915918.0,2201719.0,2070311.0,1827231.0,2232395.0,2143549.0,1784922.0,2033973.0,1933621.0,1994696.0,2012515.8181818181
7.109375,1999791.0,1913583.0,2203585.0,2068464.0,1827848.0,2232621.0,2143590.0,1785472.0,2030588.0,1933667.0,1994520.0,2012157.1818181819
7.125,2000714.0,1910944.0,2198077.0,2067002.0,1829324.0,2232285.0,2143585.0,1785913.0,2027277.0,1934046.0,1994094.0,2011205.5454545454
7.140625,2000225.0,1911989.0,2205571.0,2065974.0,1830877.0,2231859.0,2143549.0,1786092.0,2023798.0,1934696.0,1994232.0,2011714.7272727273
7.15625,1997071.0,1910758.0,2195549.0,2065405.0,1835279.0,2231785.0,2143495.0,1785309.0,2021803.0,1935665.0,1994041.0,2010560.0
7.171875,1993786.0,1911679.0,2193479.0,2064713.0,1833088.0,2232807.0,2143490.0,1784186.0,2019733.0,1936644.0,1994205.0,2009800.9090909092
7.1875,1991070.0,1911531.0,2191974.0,2063897.0,1838034.0,2229070.0,2143436.0,1783245.0,2018969.0,1937889.0,1994328.0,2009403.9090909092
7.203125,1988565.0,1911013.0,2190956.0,2062703.0,1841551.0,2234099.0,2143510.0,1782374.0,2018972.0,1938666.0,1994806.0,2009746.8181818181
7.21875,1986551.0,1912237.0,2190190.0,2062078.0,1845052.0,2235284.0,2143567.0,1781784.0,2019684.0,1939877.0,1994789.0,2010099.3636363635
7.234375,1984953.0,1912198.0,2189049.0,2061417.0,1848839.0,2234661.0,2143473.0,1781413.0,2020783.0,1940900.0,1994824.0,2010228.1818181819
7.25,1983755.0,1913262.0,2188068.0,2061017.0,1853553.0,2223129.0,2143439.0,1781084.0,2022277.0,1942103.0,1994783.0,2009679.0909090908
7.265625,1982681.0,1914127.0,2187223.0,2061060.0,1858107.0,2218716.0,2143544.0,1781031.0,2020569.0,1942900.0,1994467.0,2009493.1818181819
7.28125,1981231.0,1915209.0,2186912.0,2061129.0,1862753.0,2212614.0,2143483.0,1781292.0,2023751.0,1940856.0,1994086.0,2009392.3636363635
7.296875,1979871.0,1916740.0,2187139.0,2061329.0,1868354.0,2215346.0,2143495.0,1781463.0,2025714.0,1938341.0,1994332.0,2010193.0909090908
7.3125,1978801.0,1917898.0,2187186.0,2061555.0,1875194.0,2235370.0,2143476.0,1781219.0,2027475.0,1936722.0,1994338.0,2012657.6363636365
7.328125,1977817.0,1919416.0,2187382.0,2061826.0,1882301.0,2234020.0,2143524.0,1781668.0,2029018.0,1935911.0,1994526.0,2013400.8181818181
7.34375,1977089.0,1920759.0,2187847.0,2062301.0,1890381.0,2211259.0,2143465.0,1781805.0,2031071.0,1935035.0,1995203.0,2012383.1818181819
7.359375,1976844.0,1920669.0,2188373.0,2061967.0,1896616.0,2209950.0,2143456.0,1782312.0,2033435.0,1934544.0,1995478.0,2013058.5454545454
7.375,1976104.0,1918523.0,2187644.0,2062618.0,1900200.0,2208221.0,2143479.0,1782682.0,2036108.0,1934592.0,1995920.0,2013281.0
7.390625,1975901.0,1916495.0,2188616.0,2063000.0,1900896.0,2207184.0,2143494.0,1783291.0,2038628.0,1934038.0,1996162.0,2013427.7272727273
7.40625,1976005.0,1914653.0,2189209.0,2063414.0,1900794.0,2206896.0,2143497.0,1783408.0,2039142.0,1933992.0,1996780.0,2013435.4545454546
7.421875,1975960.0,1914269.0,2191461.0,2064378.0,1901903.0,2206799.0,2143512.0,1783940.0,2034225.0,1934185.0,1997554.0,2013471.4545454546
7.4375,1975986.0,1914282.0,2185010.0,2063948.0,1903440.0,2207662.0,2143491.0,1784673.0,2028265.0,1934729.0,1997929.0,2012674.0909090908
7.453125,1976392.0,1915045.0,2189621.0,2065744.0,1905334.0,2208428.0,2143525.0,1785292.0,2023965.0,1936611.0,1998693.0,2013513.6363636365
7.46875,1976375.0,1916000.0,2190716.0,2065161.0,1908070.0,2210011.0,2143485.0,1785338.0,2020700.0,1937732.0,1999463.0,2013913.7272727273
7.484375,1976872.0,1918352.0,2189863.0,2065545.0,1910396.0,2211684.0,2143469.0,1785752.0,2017290.0,1938688.0,2000159.0,2014370.0
7.5,1977266.0,1917458.0,2180621.0,2063085.0,1912760.0,2213619.0,2143519.0,1784419.0,2014556.0,1939661.0,1999903.0,2013351.5454545454
7.515625,1977521.0,1916618.0,2176273.0,2059943.0,1915691.0,2215825.0,2143533.0,1783786.0,2013248.0,1940965.0,2000271.0,2013061.2727272727
7.53125,1977945.0,1920464.0,2172726.0,2056906.0,1918897.0,2217230.0,2143490.0,1782832.0,2012326.0,1935544.0,2000075.0,2012585.0
7.546875,1978715.0,1919435.0,2169346.0,2054148.0,1922139.0,2218902.0,2143456.0,1782382.0,2011846.0,1942942.0,1999852.0,2013014.8181818181
7.5625,1978053.0,1922367.0,2166941.0,2051794.0,1925297.0,2220439.0,2143507.0,1782038.0,2011371.0,1940514.0,1999927.0,2012931.6363636365
7.578125,1974500.0,1923765.0,2165236.0,2049993.0,1928313.0,2222506.0,2143473.0,1781839.0,2011969.0,1937737.0,2000266.0,2012690.6363636365
7.59375,1970391.0,1925403.0,2163699.0,2048769.0,1931345.0,2223462.0,2143506.0,1782188.0,2012842.0,1935602.0,2000404.0,2012510.0909090908
7.609375,1966913.0,1929197.0,2162235.0,2047324.0,1933002.0,2225126.0,2143498.0,1782166.0,2014562.0,1942227.0,2000703.0,2013359.3636363635
7.625,1964784.0,1927250.0,2161017.0,2045645.0,1936723.0,2224818.0,2143489.0,1782369.0,2015785.0,1934141.0,2000807.0,2012438.9090909092
7.640625,1962658.0,1927802.0,2160266.0,2043814.0,1940472.0,2218284.0,2143487.0,1782524.0,2017359.0,1932827.0,2001143.0,2011876.0
7.65625,1960800.0,1926173.0,2160068.0,2042509.0,1942416.0,2207292.0,2143402.0,1782498.0,2019459.0,1931816.0,2001672.0,2010736.8181818181
7.671875,1959809.0,1925029.0,2159966.0,2041612.0,1944619.0,2226144.0,2143494.0,1783268.0,2021351.0,1931484.0,2001745.0,2012592.8181818181
7.6875,1958219.0,1929540.0,2160460.0,2040821.0,1947272.0,2223671.0,2143546.0,1783443.0,2023442.0,1931117.0,2002225.0,2013068.7272727273
7.703125,1956446.0,1925108.0,2160003.0,2040534.0,1951110.0,2212071.0,2143475.0,1783967.0,2025491.0,1931014.0,2002724.0,2011994.8181818181
7.71875,1955253.0,1925918.0,2160693.0,2040363.0,1954416.0,2203268.0,2143483.0,1784344.0,2027847.0,1930649.0,2003247.0,2011771.0
7.734375,1953975.0,1927062.0,2161618.0,2040333.0,1957777.0,2198636.0,2143498.0,1785202.0,2030361.0,1931201.0,2003735.0,2012127.0909090908
7.75,1952808.0,1927818.0,2163198.0,2040274.0,1960608.0,2196701.0,2143485.0,1785388.0,2033155.0,1932212.0,2004183.0,2012711.8181818181
7.765625,1952290.0,1924912.0,2165103.0,2040398.0,1960348.0,2200593.0,2143491.0,1786086.0,2035038.0,1932971.0,2004313.0,2013231.1818181819
7.78125,1951649.0,1929889.0,2164102.0,2040354.0,1960163.0,2194995.0,2143433.0,1786553.0,2032606.0,1934986.0,2004112.0,2012985.6363636365
7.796875,1951109.0,1929085.0,2166290.0,2040508.0,1961500.0,2193164.0,2143419.0,1787228.0,2026328.0,1936027.0,2003652.0,2012573.6363636365
7.8125,1951105.0,1932429.0,2167366.0,2040761.0,1963238.0,2190727.0,2143437.0,1787569.0,2021162.0,1933976.0,2003852.0,2012329.2727272727
7.828125,1950924.0,1933972.0,2166770.0,2041041.0,1965671.0,2188314.0,2143492.0,1787168.0,2017984.0,1937178.0,2003904.0,2012401.6363636365
7.84375,1950967.0,1935546.0,2162258.0,2041488.0,1968104.0,2192148.0,2143415.0,1786698.0,2014694.0,1938377.0,2003890.0,2012507.7272727273
7.859375,1951160.0,1931142.0,2168751.0,2042040.0,1970987.0,2189252.0,2143460.0,1786023.0,2011568.0,1939670.0,2004300.0,2012577.5454545454
7.875,1951271.0,1937240.0,2157888.0,2042520.0,1973735.0,2189064.0,2143481.0,1785772.0,2009798.0,1936708.0,2004378.0,2011986.8181818181
7.890625,1951739.0,1939015.0,2153942.0,2043252.0,1975715.0,2190449.0,2143502.0,1785474.0,2008804.0,1933845.0,2004777.0,2011864.9090909092
7.90625,1952240.0,1940698.0,2150925.0,2043639.0,1976575.0,2191616.0,2143467.0,1785469.0,2008174.0,1939581.0,2004904.0,2012480.7272727273
7.921875,1952636.0,1942300.0,2148181.0,2044435.0,1977419.0,2193208.0,2143429.0,1785537.0,2007324.0,1932084.0,2005272.0,2011984.0909090908
7.9375,1952942.0,1942368.0,2146100.0,2044732.0,1977970.0,2194641.0,2143413.0,1785448.0,2007427.0,1930589.0,2005510.0,2011921.8181818181
7.953125,1953931.0,1939716.0,2145430.0,2042647.0,1981752.0,2196442.0,2143503.0,1785690.0,2007895.0,1929024.0,2005889.0,2011992.6363636365
7.96875,1954477.0,1940932.0,2144095.0,2038451.0,1984375.0,2198249.0,2143495.0,1786093.0,2009265.0,1928363.0,2006262.0,2012187.0
7.984375,1953543.0,1939290.0,2143052.0,2034258.0,1986505.0,2200004.0,2143558.0,1786478.0,2010471.0,1928064.0,2006838.0,2012005.5454545454
8.0,1948901.0,1939892.0,2142359.0,2030851.0,1989446.0,2201892.0,2143491.0,1787255.0,2012132.0,1928087.0,2006796.0,2011918.3636363635
8.015625,1943778.0,1942165.0,2142136.0,2027760.0,1992277.0,2203978.0,2143482.0,1786925.0,2013386.0,1928934.0,2006934.0,2011977.7272727273
8.03125,1939382.0,1943058.0,2142364.0,2025599.0,1995010.0,2205698.0,2143491.0,1787631.0,2015252.0,1929922.0,2006354.0,2012160.0909090908
8.046875,1935830.0,1939472.0,2142906.0,2024054.0,1998078.0,2204788.0,2143489.0,1788209.0,2016925.0,1927723.0,2005894.0,2011578.9090909092
8.0625,1932342.0,1940984.0,2143576.0,2022781.0,2001441.0,2200581.0,2143485.0,1788812.0,2018417.0,1927339.0,2005578.0,2011394.1818181819
8.078125,1930009.0,1945343.0,2144052.0,2021186.0,2004687.0,2196069.0,2143461.0,1789244.0,2020411.0,1927632.0,2005550.0,2011604.0
8.09375,1927908.0,1944373.0,2146072.0,2019250.0,2007942.0,2193479.0,2143450.0,1789749.0,2022856.0,1930979.0,2005418.0,2011952.3636363635
8.109375,1925919.0,1946575.0,2146999.0,2018105.0,2010172.0,2191788.0,2143528.0,1790325.0,2025289.0,1931945.0,2005491.0,2012376.0
8.125,1923990.0,1948274.0,2148506.0,2017149.0,2009680.0,2192083.0,2143477.0,1790906.0,2027501.0,1933052.0,2005420.0,2012730.7272727273
8.140625,1921812.0,1954943.0,2149556.0,2016693.0,2008534.0,2192510.0,2143508.0,1791576.0,2026761.0,1934306.0,2005511.0,2013246.3636363635
8.15625,1919727.0,1951487.0,2162280.0,2016612.0,2008057.0,2192179.0,2143519.0,1791716.0,2021226.0,1935657.0,2005471.0,2013448.2727272727
8.171875,1918507.0,1949641.0,2150874.0,2016442.0,2010018.0,2192146.0,2143490.0,1791805.0,2015985.0,1937061.0,2005698.0,2011969.7272727273
8.1875,1917378.0,1953018.0,2152601.0,2016846.0,2012407.0,2191614.0,2143515.0,1791079.0,2012473.0,1937728.0,2005735.0,2012217.6363636365
8.203125,1916481.0,1956828.0,2153960.0,2017031.0,2015173.0,2191872.0,2143521.0,1790990.0,2009971.0,1932753.0,2005848.0,2012220.7272727273
8.21875,1916156.0,1959555.0,2153937.0,2017461.0,2017580.0,2193643.0,2143408.0,1790795.0,2007164.0,1930658.0,2006216.0,2012415.7272727273
8.234375,1915767.0,1958432.0,2149880.0,2017719.0,2020023.0,2195224.0,2143582.0,1790813.0,2005785.0,1935609.0,2006508.0,2012667.4545454546
8.25,1915506.0,1958863.0,2145514.0,2017980.0,2023257.0,2197293.0,2143453.0,1791143.0,2005419.0,1929513.0,2006656.0,2012236.0909090908
8.265625,1915278.0,1957862.0,2141985.0,2018529.0,2028119.0,2199291.0,2143487.0,1791579.0,2004371.0,1928105.0,2006124.0,2012248.1818181819
8.28125,1915466.0,1957270.0,2145004.0,2018933.0,2032041.0,2200879.0,2143484.0,1791816.0,2004009.0,1927384.0,2005342.0,2012875.2727272727
8.296875,1915388.0,1957277.0,2139043.0,2019779.0,2033448.0,2202657.0,2143514.0,1791931.0,2003821.0,1927051.0,2004918.0,2012620.6363636365
8.3125,1915832.0,1958049.0,2136467.0,2020470.0,2034752.0,2204962.0,2143496.0,1792795.0,2004881.0,1926865.0,2004852.0,2013038.2727272727
8.328125,1916376.0,1958901.0,2134947.0,2021320.0,2034752.0,2207571.0,2143518.0,1792209.0,2006179.0,1926483.0,2004556.0,2013346.5454545454
8.34375,1916826.0,1960090.0,2134082.0,2022292.0,2036130.0,2209800.0,2143515.0,1793080.0,2007446.0,1926435.0,2004535.0,2014021.0
8.359375,1917444.0,1962552.0,2133051.0,2023107.0,2037588.0,2211817.0,2143453.0,1793663.0,2009246.0,1927865.0,2004142.0,2014902.5454545454
8.375,1918028.0,1961365.0,2133565.0,2023996.0,2039480.0,2214080.0,2143497.0,1794111.0,2010800.0,1926943.0,2003869.0,2015430.3636363635
8.390625,1918785.0,1963866.0,2132576.0,2024862.0,2041621.0,2216006.0,2143481.0,1794742.0,2012486.0,1929813.0,2003935.0,2016561.1818181819
8.40625,1919509.0,1965378.0,2132891.0,2025853.0,2043842.0,2217730.0,2143484.0,1795229.0,2014230.0,1932041.0,2004090.0,2017661.5454545454
8.421875,1916672.0,1967265.0,2133102.0,2026840.0,2046141.0,2218096.0,2143477.0,1795924.0,2016224.0,1932971.0,2004083.0,2018254.0909090908
8.4375,1911414.0,1969425.0,2134162.0,2026235.0,2048514.0,2215215.0,2143514.0,1796324.0,2018437.0,1934428.0,2003828.0,2018317.8181818181
8.453125,1905796.0,1970916.0,2135148.0,2022231.0,2050084.0,2210631.0,2143454.0,1796773.0,2020871.0,1930901.0,2004133.0,2017358.0
8.46875,1901573.0,1973037.0,2136156.0,2017516.0,2051667.0,2206993.0,2143449.0,1797564.0,2023232.0,1928875.0,2004089.0,2016741.0
8.484375,1898064.0,1974947.0,2137479.0,2013696.0,2054480.0,2205188.0,2143451.0,1797697.0,2025677.0,1935896.0,2003820.0,2017308.6363636365
8.5,1898064.0,1977102.0,2138669.0,2010950.0,2054475.0,2204100.0,2143497.0,1797409.0,2026550.0,1937380.0,2003194.0,2017399.0909090908
8.515625,1895161.0,1979154.0,2139998.0,2008830.0,2051686.0,2204564.0,2143460.0,1797145.0,2021611.0,1938033.0,2002418.0,2016550.9090909092
8.53125,1892723.0,1981422.0,2141085.0,2007841.0,2048616.0,2204527.0,2143511.0,1796956.0,2015179.0,1935899.0,2001259.0,2015365.2727272727
8.546875,1891018.0,1983233.0,2142786.0,2007082.0,2046293.0,2203746.0,2143499.0,1796915.0,2010574.0,1933212.0,2000553.0,2014446.4545454546
8.5625,1889161.0,1984076.0,2144202.0,2006184.0,2045204.0,2202440.0,2143494.0,1796688.0,2007085.0,1931337.0,1999938.0,2013619.0
8.578125,1887340.0,1984560.0,2145549.0,2005020.0,2044674.0,2202394.0,2143508.0,1797036.0,2003458.0,1930391.0,1999688.0,2013056.1818181819
8.59375,1885633.0,1985751.0,2147214.0,2003921.0,2045100.0,2202780.0,2143394.0,1797210.0,1999933.0,1929123.0,1999175.0,2012657.6363636365
8.609375,1884098.0,1987032.0,2149404.0,2003370.0,2046058.0,2203638.0,2143502.0,1797508.0,1998660.0,1928772.0,1998650.0,2012790.1818181819
8.625,1883299.0,1987874.0,2149046.0,2003332.0,2046388.0,2204299.0,2143506.0,1797912.0,1997496.0,1928565.0,1998137.0,2012714.0
8.640625,1882472.0,1988987.0,2140208.0,2003707.0,2046835.0,2205233.0,2143441.0,1797965.0,1996546.0,1928150.0,1997869.0,2011946.6363636365
8.65625,1882314.0,1990316.0,2145278.0,2004492.0,2047250.0,2205981.0,2143444.0,1798398.0,1995602.0,1927975.0,1997575.0,2012602.2727272727
8.671875,1882282.0,1990990.0,2135897.0,2005227.0,2046767.0,2206432.0,2143513.0,1798876.0,1995847.0,1928030.0,1997230.0,2011917.3636363635
8.6875,1882167.0,1991874.0,2132344.0,2006073.0,2045051.0,2206250.0,2143501.0,1798876.0,1996864.0,1928478.0,1997064.0,2011685.6363636365
8.703125,1882434.0,1992799.0,2128757.0,2006958.0,2043622.0,2206823.0,2143479.0,1799389.0,1997893.0,1929485.0,1997368.0,2011727.9090909092
8.71875,1882983.0,1994042.0,2126568.0,2007906.0,2043936.0,2207432.0,2143449.0,1800159.0,1999532.0,1930421.0,1997422.0,2012168.1818181819
8.734375,1883150.0,1994913.0,2125174.0,2008744.0,2049374.0,2208716.0,2143530.0,1800386.0,2000957.0,1931526.0,1997123.0,2013053.9090909092
8.75,1884161.0,1996527.0,2124001.0,2009654.0,2054618.0,2209302.0,2143463.0,1800918.0,2002589.0,1932606.0,1996665.0,2014045.8181818181
8.765625,1884689.0,1999187.0,2123236.0,2010586.0,2057618.0,2209979.0,2143452.0,1801497.0,2004599.0,1933641.0,1995243.0,2014884.2727272727
8.78125,1885720.0,2000754.0,2122141.0,2011683.0,2060658.0,2211967.0,2143492.0,1801823.0,2006605.0,1934865.0,1995053.0,2015887.3636363635
8.796875,1886935.0,2002371.0,2122276.0,2012932.0,2063960.0,2211506.0,2143440.0,1801516.0,2008285.0,1936213.0,1996104.0,2016867.0909090908
8.8125,1887919.0,2004021.0,2122925.0,2014268.0,2066621.0,2208350.0,2143511.0,1800855.0,2010669.0,1937579.0,1997207.0,2017629.5454545454
8.828125,1889198.0,1997897.0,2123657.0,2015538.0,2069160.0,2204263.0,2143438.0,1800727.0,2013000.0,1938940.0,1997692.0,2017591.8181818181
8.84375,1890461.0,2003652.0,2124588.0,2016781.0,2069127.0,2200931.0,2143457.0,1800477.0,2015706.0,1938179.0,1997949.0,2018300.7272727273
8.859375,1891083.0,2002642.0,2125722.0,2018196.0,2066511.0,2199319.0,2143503.0,1800374.0,2018009.0,1935843.0,1998543.0,2018158.6363636365
8.875,1888088.0,2002092.0,2122304.0,2019522.0,2063832.0,2197934.0,2143464.0,1800515.0,2016635.0,1933753.0,1998409.0,2016958.9090909092
8.890625,1882954.0,2001907.0,2126943.0,2021024.0,2061191.0,2198416.0,2143387.0,1800570.0,2010452.0,1932667.0,1999613.0,2016284.0
8.90625,1878950.0,2002092.0,2129730.0,2021707.0,2059062.0,2198208.0,2143523.0,1800780.0,2004645.0,1932007.0,2000832.0,2015594.1818181819
8.921875,1876047.0,2002723.0,2133013.0,2019531.0,2058252.0,2198485.0,2143461.0,1800830.0,2001093.0,1931603.0,2001584.0,2015147.4545454546
8.9375,1873912.0,2005025.0,2134700.0,2015291.0,2057854.0,2197877.0,2143452.0,1800498.0,1997746.0,1931647.0,2002234.0,2014566.9090909092
8.953125,1872584.0,2004045.0,2136577.0,2012098.0,2056983.0,2198299.0,2143502.0,1801154.0,1994304.0,1931333.0,2002763.0,2013967.4545454546
8.96875,1871475.0,2005793.0,2138292.0,2009978.0,2056247.0,2199924.0,2143526.0,1801874.0,1992173.0,1930997.0,2001717.0,2013817.8181818181
8.984375,1870729.0,2006748.0,2140227.0,2008634.0,2054908.0,2201195.0,2143522.0,1802734.0,1991255.0,1931101.0,2000589.0,2013785.6363636365
9.0,1869804.0,2009129.0,2140913.0,2008404.0,2055268.0,2202687.0,2143517.0,1803551.0,1990304.0,1931499.0,1998975.0,2014004.6363636365
9.015625,1868861.0,2008050.0,2137191.0,2008587.0,2055256.0,2203650.0,2143447.0,1803969.0,1989813.0,1932357.0,1997307.0,2013498.9090909092
9.03125,1868305.0,2010136.0,2132830.0,2008808.0,2055228.0,2205356.0,2143507.0,1802125.0,1989297.0,1933232.0,1995522.0,2013122.3636363635
9.046875,1867756.0,2011316.0,2129552.0,2008214.0,2055740.0,2206567.0,2143443.0,1801508.0,1990457.0,1934257.0,1994406.0,2013019.6363636365
9.0625,1868096.0,2014058.0,2131297.0,2007870.0,2056144.0,2208523.0,2143528.0,1802950.0,1991353.0,1935286.0,1993515.0,2013874.5454545454
9.078125,1868129.0,2012783.0,2126961.0,2007783.0,2056713.0,2210077.0,2143560.0,1803898.0,1992535.0,1936320.0,1993065.0,2013802.1818181819
9.09375,1868707.0,2015570.0,2124671.0,2008206.0,2057654.0,2211492.0,2143471.0,1803493.0,1994164.0,1937486.0,1992735.0,2014331.7272727273
9.109375,1869390.0,2017125.0,2128184.0,2008992.0,2058548.0,2214073.0,2143538.0,1802902.0,1995640.0,1940007.0,1992389.0,2015526.1818181819
9.125,1871430.0,2017890.0,2123053.0,2010058.0,2059739.0,2216393.0,2143491.0,1802139.0,1997228.0,1938503.0,1992477.0,2015672.8181818181
9.140625,1870266.0,2016900.0,2123138.0,2011577.0,2062586.0,2218686.0,2143555.0,1801737.0,1998530.0,1940804.0,1992848.0,2016420.6363636365
9.15625,1872399.0,2015993.0,2122348.0,2012936.0,2065440.0,2221233.0,2143477.0,1801178.0,1999804.0,1938903.0,1993210.0,2016992.8181818181
9.171875,1873771.0,2015009.0,2121844.0,2014266.0,2068900.0,2223911.0,2143500.0,1800849.0,2001569.0,1936293.0,1993689.0,2017600.0909090908
9.1875,1875252.0,2014460.0,2121741.0,2015725.0,2070452.0,2225801.0,2143510.0,1800725.0,2003780.0,1934630.0,1993966.0,2018185.6363636365
9.203125,1876565.0,2014372.0,2122412.0,2017147.0,2067401.0,2225708.0,2143481.0,1800770.0,2006092.0,1933891.0,1993946.0,2018344.0909090908
9.21875,1878236.0,2015101.0,2123314.0,2018341.0,2062981.0,2222864.0,2143448.0,1800564.0,2008518.0,1932716.0,1993846.0,2018175.3636363635
9.234375,1879707.0,2015873.0,2124399.0,2020012.0,2058725.0,2218113.0,2143472.0,1800647.0,2010829.0,1932430.0,1993497.0,2017973.0909090908
9.25,1883482.0,2016616.0,2125680.0,2021530.0,2055112.0,2214089.0,2143495.0,1800455.0,2008218.0,1932132.0,1992894.0,2017609.3636363635
9.265625,1881510.0,2017342.0,2127020.0,2023056.0,2051770.0,2211517.0,2143550.0,1800775.0,2002602.0,1932394.0,1992279.0,2016710.4545454546
9.28125,1883404.0,2018085.0,2128401.0,2024750.0,2050339.0,2210792.0,2143507.0,1800914.0,1997883.0,1931656.0,1992279.0,2016546.3636363635
9.296875,1879763.0,2018821.0,2121517.0,2026441.0,2049673.0,2211816.0,2143462.0,1801142.0,1995392.0,1931889.0,1991481.0,2015581.5454545454
9.3125,1876157.0,2019570.0,2131852.0,2028250.0,2049347.0,2211969.0,2143441.0,1801613.0,1993207.0,1932536.0,1990398.0,2016212.7272727273
9.328125,1873930.0,2020426.0,2130076.0,2030199.0,2048751.0,2211247.0,2143446.0,1801800.0,1991074.0,1933320.0,1989794.0,2015823.9090909092
9.34375,1872644.0,2023615.0,2135478.0,2031467.0,2048941.0,2211010.0,2143484.0,1802158.0,1990750.0,1934201.0,1990097.0,2016713.1818181819
9.359375,1871610.0,2022740.0,2133807.0,2030430.0,2048849.0,2211047.0,2143490.0,1802325.0,1990460.0,1935242.0,1990059.0,2016369.0
9.375,1871595.0,2021718.0,2137690.0,2027813.0,2049408.0,2211958.0,2143398.0,1801800.0,1989953.0,1936191.0,1990185.0,2016519.0
9.390625,1871450.0,2025864.0,2139641.0,2025626.0,2049808.0,2213252.0,2143450.0,1801016.0,1990777.0,1937169.0,1990519.0,2017142.9090909092
9.40625,1871718.0,2025022.0,2140619.0,2024428.0,2050134.0,2214190.0,2143513.0,1800238.0,1992075.0,1938511.0,1990787.0,2017385.0
9.421875,1871400.0,2026344.0,2133122.0,2023839.0,2050704.0,2215887.0,2143461.0,1799147.0,1993852.0,1939583.0,1990967.0,2017118.7272727273
9.4375,1871518.0,2024667.0,2137313.0,2025025.0,2051218.0,2217591.0,2143494.0,1798714.0,1995594.0,1939999.0,1991297.0,2017857.2727272727
9.453125,1872166.0,2023002.0,2130431.0,2024186.0,2051739.0,2218642.0,2143500.0,1797899.0,1997777.0,1937607.0,1990983.0,2017084.7272727273
9.46875,1872460.0,2021898.0,2128074.0,2025582.0,2052578.0,2220220.0,2143469.0,1797379.0,2000015.0,1934800.0,1990610.0,2017007.7272727273
9.484375,1873855.0,2020974.0,2126423.0,2025893.0,2053851.0,2221987.0,2143482.0,1797096.0,2002223.0,1932807.0,1990089.0,2017152.7272727273
9.5,1874938.0,2020924.0,2125578.0,2026019.0,2055111.0,2224633.0,2143498.0,1796984.0,2004523.0,1931258.0,1989495.0,2017541.9090909092
9.515625,1876033.0,2021031.0,2125455.0,2026633.0,2056449.0,2227343.0,2143460.0,1796864.0,2006383.0,1930003.0,1989302.0,2018086.9090909092
9.53125,1877767.0,2021125.0,2125713.0,2027366.0,2057640.0,2229616.0,2143460.0,1796953.0,2009136.0,1929089.0,1989390.0,2018841.3636363635
9.546875,1879536.0,2021712.0,2125782.0,2028399.0,2057607.0,2232119.0,2143503.0,1797138.0,2011837.0,1928855.0,1989140.0,2019602.5454545454
9.5625,1881325.0,2021681.0,2125766.0,2029742.0,2053248.0,2232626.0,2143441.0,1796979.0,2014235.0,1928290.0,1988475.0,2019618.9090909092
9.578125,1883122.0,2022069.0,2126606.0,2031452.0,2046990.0,2233211.0,2143462.0,1797263.0,2017275.0,1927848.0,1987592.0,2019717.2727272727
9.59375,1885165.0,2022535.0,2127830.0,2032923.0,2041469.0,2233564.0,2143462.0,1797414.0,2017626.0,1928022.0,1986325.0,2019666.8181818181
9.609375,1887243.0,2023106.0,2129260.0,2034609.0,2037155.0,2232798.0,2143510.0,1797722.0,2012217.0,1928479.0,1985476.0,2019234.0909090908
9.625,1889398.0,2022239.0,2130639.0,2036212.0,2033229.0,2228116.0,2143459.0,1797978.0,2005651.0,1929002.0,1984936.0,2018259.9090909092
9.640625,1891548.0,2024513.0,2132143.0,2037757.0,2029548.0,2222544.0,2143515.0,1798382.0,2001723.0,1929823.0,1984668.0,2017833.0909090908
9.65625,1893923.0,2023777.0,2134230.0,2039206.0,2030816.0,2219036.0,2143438.0,1798883.0,1997966.0,1931032.0,1983928.0,2017839.5454545454
9.671875,1896102.0,2025360.0,2135811.0,2040749.0,2027827.0,2216196.0,2143464.0,1798860.0,1994051.0,1931954.0,1983716.0,2017644.5454545454
9.6875,1898677.0,2026341.0,2137834.0,2042397.0,2025964.0,2214023.0,2143488.0,1797896.0,1990550.0,1932800.0,1983365.0,2017575.9090909092
9.703125,1899996.0,2025970.0,2139662.0,2044097.0,2024261.0,2212789.0,2143402.0,1797194.0,1989128.0,1934187.0,1983149.0,2017621.3636363635
9.71875,1898154.0,2024333.0,2141767.0,2044097.0,2023454.0,2212147.0,2143436.0,1796118.0,1988287.0,1935259.0,1983405.0,2017314.2727272727
9.734375,1895101.0,2022070.0,2143793.0,2045469.0,2023068.0,2212417.0,2143481.0,1795475.0,1987046.0,1935816.0,1984175.0,2017082.8181818181
9.75,1893329.0,2020026.0,2146111.0,2047373.0,2022839.0,2212122.0,2143535.0,1794744.0,1986457.0,1933876.0,1985630.0,2016912.9090909092
9.765625,1892437.0,2018478.0,2148168.0,2049043.0,2022958.0,2211034.0,2143503.0,1794413.0,1986344.0,1930726.0,1986163.0,2016660.6363636365
9.78125,1891650.0,2017508.0,2151375.0,2050923.0,2023233.0,2210538.0,2143464.0,1794314.0,1987185.0,1928562.0,1986565.0,2016847.0
9.796875,1891362.0,2017477.0,2150386.0,2052442.0,2023743.0,2210239.0,2143453.0,1794353.0,1988768.0,1926899.0,1986377.0,2016863.5454545454
9.8125,1891672.0,2017252.0,2148120.0,2052052.0,2024187.0,2210444.0,2143475.0,1794138.0,1990098.0,1925382.0,1986138.0,2016632.5454545454
9.828125,1892270.0,2017644.0,2143977.0,2050317.0,2024647.0,2210161.0,2143441.0,1794238.0,1991498.0,1924084.0,1984987.0,2016114.9090909092
9.84375,1892919.0,2017368.0,2138144.0,2048782.0,2025245.0,2210717.0,2143460.0,1794440.0,1993212.0,1923926.0,1983067.0,2015570.9090909092
9.859375,1892870.0,2017135.0,2136035.0,2048012.0,2025662.0,2211724.0,2143493.0,1794431.0,1994929.0,1923537.0,1981946.0,2015434.0
9.875,1893758.0,2017270.0,2140750.0,2047665.0,2026192.0,2212566.0,2143456.0,1794883.0,1997074.0,1922994.0,1980300.0,2016082.5454545454
9.890625,1894263.0,2017314.0,2134177.0,2047880.0,2027068.0,2214066.0,2143543.0,1795784.0,1998846.0,1922930.0,1979003.0,2015897.6363636365
9.90625,1895482.0,2017457.0,2134473.0,2048514.0,2027984.0,2215321.0,2143450.0,1795318.0,2001202.0,1923358.0,1978244.0,2016436.6363636365
9.921875,1897041.0,2018113.0,2134134.0,2049148.0,2028110.0,2216445.0,2143474.0,1796436.0,2003725.0,1923931.0,1977826.0,2017125.7272727273
9.9375,1898614.0,2018670.0,2134028.0,2049353.0,2023572.0,2217737.0,2143485.0,1796004.0,2006122.0,1924950.0,1977466.0,2017272.8181818181
9.953125,1900239.0,2019446.0,2133943.0,2049375.0,2017362.0,2219345.0,2143525.0,1796692.0,2008830.0,1925980.0,1977427.0,2017469.4545454546
9.96875,1902032.0,2019964.0,2134599.0,2049661.0,2011208.0,2221587.0,2143395.0,1797367.0,2011414.0,1926950.0,1977132.0,2017755.3636363635
9.984375,1903885.0,2018586.0,2135557.0,2050194.0,2006378.0,2223346.0,2143486.0,1797551.0,2010943.0,1927739.0,1977032.0,2017699.7272727273
10.0,1905690.0,2012153.0,2136671.0,2051031.0,2002647.0,2225200.0,2143451.0,1797415.0,2004700.0,1928905.0,1977906.0,2016888.0909090908
10.015625,1907798.0,2015371.0,2138198.0,2052021.0,2000138.0,2226962.0,2143484.0,1796825.0,1998536.0,1930348.0,1977725.0,2017036.9090909092
10.03125,1909818.0,2009804.0,2139831.0,2053161.0,1998577.0,2229324.0,2143461.0,1795936.0,1994028.0,1931392.0,1977498.0,2016620.9090909092
10.046875,1911771.0,2007761.0,2141383.0,2054348.0,1997715.0,2232287.0,2143464.0,1794551.0,1990698.0,1931155.0,1978692.0,2016711.3636363635
10.0625,1914209.0,2005901.0,2143045.0,2055501.0,1996553.0,2234035.0,2143436.0,1795299.0,1986666.0,1928056.0,1976940.0,2016331.0
10.078125,1916475.0,2005002.0,2144827.0,2056547.0,1995143.0,2236114.0,2143482.0,1794504.0,1983317.0,1925651.0,1976763.0,2016165.9090909092
10.09375,1918480.0,2003815.0,2146630.0,2057619.0,1994721.0,2236047.0,2143512.0,1794301.0,1982030.0,1924225.0,1975807.0,2016107.9090909092
10.109375,1921209.0,2005402.0,2148515.0,2058710.0,1994414.0,2233656.0,2143437.0,1794401.0,1980850.0,1922861.0,1974634.0,2016189.9090909092
10.125,1923364.0,2004339.0,2150491.0,2059609.0,1994864.0,2231777.0,2143540.0,1794395.0,1979747.0,1921561.0,1974199.0,2016171.4545454546
10.140625,1924687.0,2003603.0,2152370.0,2060679.0,1995024.0,2230251.0,2143453.0,1794290.0,1979128.0,1921155.0,1973547.0,2016198.8181818181
10.15625,1923299.0,2003887.0,2156488.0,2061983.0,1995367.0,2230159.0,2143463.0,1794521.0,1979357.0,1920945.0,1973135.0,2016600.3636363635
10.171875,1921075.0,2006293.0,2156322.0,2063039.0,1995790.0,2230212.0,2143449.0,1795113.0,1980349.0,1920592.0,1973631.0,2016896.8181818181
10.1875,1919439.0,2004056.0,2152547.0,2064147.0,1996255.0,2229987.0,2143475.0,1795001.0,1981537.0,1920447.0,1974568.0,2016496.2727272727
10.203125,1918806.0,2004234.0,2149614.0,2065373.0,1994562.0,2230809.0,2143424.0,1795738.0,1983234.0,1920494.0,1975700.0,2016544.3636363635
10.21875,1918675.0,2005368.0,2147363.0,2066409.0,1996999.0,2230529.0,2143464.0,1795365.0,1984338.0,1921275.0,1976471.0,2016932.3636363635
10.234375,1918706.0,2005727.0,2159561.0,2065856.0,1997800.0,2229941.0,2143505.0,1796256.0,1986128.0,1922251.0,1976135.0,2018351.4545454546
10.25,1919453.0,2005011.0,2158549.0,2064148.0,1998708.0,2229892.0,2143450.0,1796747.0,1987783.0,1923188.0,1974555.0,2018316.7272727273
10.265625,1920028.0,2004566.0,2154597.0,2062771.0,1999827.0,2229791.0,2143395.0,1797206.0,1989717.0,1924306.0,1974583.0,2018253.3636363635
10.28125,1920489.0,1997094.0,2145493.0,2061938.0,2000161.0,2229970.0,2143499.0,1797596.0,1991736.0,1925212.0,1975564.0,2017159.2727272727
10.296875,1921097.0,2001361.0,2143935.0,2061939.0,1994612.0,2230039.0,2143520.0,1798495.0,1993857.0,1926467.0,1976546.0,2017442.5454545454
10.3125,1921648.0,1993910.0,2144261.0,2062178.0,1989659.0,2230983.0,2143534.0,1798493.0,1996098.0,1927572.0,1977577.0,2016901.1818181819
10.328125,1922739.0,1990872.0,2143566.0,2062645.0,1986076.0,2231809.0,2143472.0,1798225.0,1998599.0,1928904.0,1977351.0,2016750.7272727273
10.34375,1923772.0,1987905.0,2144095.0,2062645.0,1983181.0,2233695.0,2143431.0,1797649.0,2001200.0,1930249.0,1976774.0,2016781.4545454546
10.359375,1925146.0,1988972.0,2143588.0,2062666.0,2000857.0,2234737.0,2143437.0,1797305.0,2002896.0,1929537.0,1977145.0,2018753.2727272727
10.375,1926706.0,1987009.0,2144858.0,2062415.0,1981284.0,2236012.0,2143453.0,1796815.0,1999258.0,1926574.0,1977433.0,2016528.8181818181
10.390625,1928703.0,1986539.0,2147048.0,2062389.0,1980519.0,2237210.0,2143484.0,1796385.0,1992267.0,1924611.0,1977572.0,2016066.0909090908
10.40625,1928703.0,1985650.0,2149750.0,2062449.0,1979884.0,2239110.0,2143439.0,1796092.0,1986523.0,1923205.0,1977645.0,2015677.2727272727
10.421875,1930043.0,1985117.0,2148351.0,2062893.0,1978553.0,2240074.0,2143436.0,1795947.0,1983232.0,1922074.0,1978099.0,2015256.2727272727
10.4375,1931923.0,1984517.0,2145797.0,2063699.0,2001912.0,2241332.0,2143436.0,1796393.0,1979654.0,1921359.0,1979000.0,2017183.8181818181
10.453125,1933810.0,1984361.0,2144004.0,2064237.0,1977017.0,2242698.0,2143433.0,1796417.0,1975746.0,1921207.0,1979989.0,2014810.8181818181
10.46875,1935446.0,1984396.0,2152852.0,2065030.0,1977464.0,2243958.0,2143465.0,1796462.0,1973919.0,1920966.0,1981095.0,2015913.9090909092
10.484375,1937683.0,1984762.0,2151224.0,2065594.0,1976928.0,2246651.0,2143545.0,1797050.0,1972816.0,1920441.0,1981512.0,2016200.5454545454
10.5,1939649.0,1985129.0,2156073.0,2066175.0,1976855.0,2248648.0,2143449.0,1796970.0,1971918.0,1920589.0,1981831.0,2017026.0
10.515625,1941814.0,1985797.0,2154382.0,2066894.0,1977520.0,2251007.0,2143433.0,1797458.0,1970876.0,1920875.0,1982200.0,2017477.8181818181
10.53125,1943534.0,1986514.0,2157755.0,2067404.0,1978183.0,2253614.0,2143446.0,1798028.0,1970709.0,1921454.0,1982595.0,2018476.0
10.546875,1945917.0,1987058.0,2159947.0,2067865.0,1979504.0,2255546.0,2143494.0,1798420.0,1971449.0,1922428.0,1983151.0,2019525.3636363635
10.5625,1947668.0,1987222.0,2161693.0,2068579.0,1980689.0,2257014.0,2143483.0,1799050.0,1972762.0,1923487.0,1983127.0,2020434.0
10.578125,1949980.0,1984153.0,2163660.0,2069241.0,1981538.0,2256135.0,2143412.0,1799450.0,1974167.0,1924422.0,1983214.0,2020852.0
10.59375,1950069.0,1980008.0,2162161.0,2069816.0,1983861.0,2255984.0,2143512.0,1799902.0,1975431.0,1925386.0,1983287.0,2020856.0909090908
10.609375,1948353.0,1976075.0,2158642.0,2069643.0,1982499.0,2255842.0,2143452.0,1800684.0,1977367.0,1926444.0,1983577.0,2020234.3636363635
10.625,1946632.0,1973494.0,2156121.0,2067803.0,1985291.0,2256362.0,2143469.0,1801408.0,1979558.0,1927588.0,1983876.0,2020145.6363636365
10.640625,1946480.0,1971438.0,2154339.0,2065594.0,1988021.0,2256759.0,2143438.0,1801497.0,1981431.0,1928882.0,1984044.0,2020174.8181818181
10.65625,1946752.0,1970333.0,2153129.0,2064126.0,1986600.0,2257661.0,2143492.0,1801462.0,1983579.0,1929327.0,1984529.0,2020090.0
10.671875,1946833.0,1969546.0,2152418.0,2062885.0,1989600.0,2258295.0,2143438.0,1800957.0,1985865.0,1926962.0,1985037.0,2020166.9090909092
10.6875,1947843.0,1968990.0,2152598.0,2062519.0,1989063.0,2259168.0,2143436.0,1800533.0,1988400.0,1924525.0,1985525.0,2020236.3636363635
10.703125,1948826.0,1968444.0,2152909.0,2062496.0,1984324.0,2258897.0,2143531.0,1800196.0,1991190.0,1922874.0,1985626.0,2019937.5454545454
10.71875,1949612.0,1967823.0,2153005.0,2062191.0,1979458.0,2258640.0,2143414.0,1800291.0,1993507.0,1921666.0,1985918.0,2019593.1818181819
10.734375,1949895.0,1967224.0,2153144.0,2061430.0,1975202.0,2259658.0,2143497.0,1800259.0,1991718.0,1920863.0,1986559.0,2019040.8181818181
10.75,1950638.0,1967087.0,2153588.0,2060298.0,1971534.0,2261003.0,2143445.0,1800463.0,1984438.0,1920593.0,1987248.0,2018212.2727272727
10.765625,1951722.0,1967234.0,2154814.0,2059415.0,1968149.0,2263470.0,2143438.0,1800625.0,1977739.0,1920468.0,1988867.0,2017812.8181818181
10.78125,1953095.0,1967534.0,2156083.0,2058839.0,1965699.0,2265277.0,2143497.0,1800825.0,1973326.0,1920090.0,1988867.0,2017557.4545454546
10.796875,1954475.0,1968110.0,2157404.0,2058650.0,1964268.0,2267301.0,2143420.0,1800811.0,1969601.0,1920002.0,1990281.0,2017665.7272727273
10.8125,1955674.0,1968919.0,2159042.0,2058469.0,1962486.0,2268975.0,2143461.0,1801249.0,1965871.0,1920309.0,1991455.0,2017810.0
10.828125,1957131.0,1969394.0,2160561.0,2058584.0,1961291.0,2270929.0,2143492.0,1801543.0,1963166.0,1920977.0,1992230.0,2018118.0
10.84375,1958990.0,1970394.0,2162275.0,2058726.0,1960474.0,2274279.0,2143407.0,1802011.0,1961954.0,1921850.0,1992672.0,2018821.0909090908
10.859375,1960434.0,1970784.0,2163768.0,2058739.0,1960178.0,2277729.0,2143489.0,1802375.0,1960541.0,1922899.0,1993306.0,2019476.5454545454
10.875,1962326.0,1969368.0,2165558.0,2058661.0,1960884.0,2281031.0,2143423.0,1802736.0,1960490.0,1924150.0,1994360.0,2020271.5454545454
10.890625,1964026.0,1965947.0,2167406.0,2058713.0,1961041.0,2283133.0,2143431.0,1803511.0,1971355.0,1925319.0,1994891.0,2021706.6363636365
10.90625,1965819.0,1962595.0,2169154.0,2058653.0,1962053.0,2284937.0,2143499.0,1803823.0,1966848.0,1926307.0,1995347.0,2021730.4545454546
10.921875,1967915.0,1960234.0,2172966.0,2058725.0,1962999.0,2287316.0,2143468.0,1804227.0,1968892.0,1927688.0,1995655.0,2022735.0
10.9375,1969875.0,1958586.0,2171104.0,2058911.0,1963599.0,2289979.0,2143445.0,1804899.0,1961101.0,1928914.0,1995808.0,2022383.7272727273
10.953125,1971576.0,1957995.0,2175060.0,2058504.0,1964768.0,2292119.0,2143474.0,1805575.0,1973473.0,1930181.0,1995951.0,2024425.0909090908
10.96875,1973749.0,1957668.0,2174740.0,2056078.0,1965685.0,2292431.0,2143449.0,1806080.0,1961423.0,1929065.0,1996481.0,2023349.9090909092
10.984375,1975423.0,1957754.0,2168523.0,2052965.0,1966834.0,2291382.0,2143462.0,1805924.0,1977309.0,1926097.0,1996562.0,2023839.5454545454
11.0,1977308.0,1957659.0,2171235.0,2050235.0,1968172.0,2289492.0,2143431.0,1805310.0,1981902.0,1923806.0,1996286.0,2024076.0
11.015625,1976645.0,1957529.0,2164766.0,2048109.0,1969823.0,2288204.0,2143442.0,1805055.0,1984264.0,1922435.0,1995865.0,2023285.1818181819
11.03125,1974346.0,1957607.0,2166434.0,2046977.0,1971055.0,2287738.0,2143452.0,1805008.0,1975185.0,1920685.0,1995760.0,2022204.2727272727
11.046875,1972651.0,1957690.0,2163359.0,2046271.0,1973060.0,2287439.0,2143472.0,1804998.0,1980755.0,1919573.0,1995485.0,2022250.2727272727
11.0625,1971667.0,1958017.0,2162587.0,2045647.0,1974231.0,2287935.0,2143509.0,1804962.0,1962930.0,1919287.0,1994519.0,2020481.0
11.078125,1971207.0,1958922.0,2162838.0,2044239.0,1971315.0,2288525.0,2143460.0,1805443.0,1974610.0,1919034.0,1993860.0,2021223.0
11.09375,1970970.0,1959724.0,2163107.0,2042669.0,1966345.0,2287710.0,2143455.0,1805405.0,1968022.0,1918675.0,1994381.0,2020042.0909090908
11.109375,1971447.0,1960740.0,2163719.0,2041154.0,1961509.0,2285278.0,2143423.0,1805596.0,1970510.0,1918534.0,1994866.0,2019706.9090909092
11.125,1971878.0,1961702.0,2163149.0,2040251.0,1957902.0,2283143.0,2143477.0,1805839.0,1964772.0,1918879.0,1995522.0,2018774.0
11.140625,1972062.0,1963004.0,2164500.0,2039630.0,1955001.0,2282424.0,2143472.0,1806077.0,1976362.0,1919663.0,1997394.0,2019962.6363636365
11.15625,1972425.0,1963738.0,2165432.0,2039258.0,1953256.0,2282767.0,2143496.0,1806655.0,1965389.0,1920581.0,1999300.0,2019299.7272727273
11.171875,1972607.0,1961871.0,2166671.0,2039130.0,1952530.0,2284098.0,2143401.0,1807273.0,1979148.0,1921677.0,2000424.0,2020802.7272727273
11.1875,1973188.0,1958761.0,2168146.0,2039075.0,1951961.0,2285937.0,2143376.0,1808068.0,1962254.0,1922876.0,2000000.0,2019422.0
11.203125,1974160.0,1955251.0,2170996.0,2038861.0,1951266.0,2285173.0,2143449.0,1807431.0,1961435.0,1923732.0,2000074.0,2019257.0909090908
11.21875,1974757.0,1953148.0,2174367.0,2038698.0,1950635.0,2287322.0,2143368.0,1808554.0,1960678.0,1924986.0,1998896.0,2019582.6363636365
11.234375,1976232.0,1951370.0,2176146.0,2038360.0,1950161.0,2288416.0,2143464.0,1808956.0,1961286.0,1926222.0,1998035.0,2019877.0909090908
11.25,1977268.0,1950884.0,2172786.0,2038382.0,1950544.0,2289271.0,2143482.0,1809615.0,1961351.0,1927723.0,1998250.0,2019959.6363636365
11.265625,1978313.0,1950529.0,2169623.0,2038437.0,1950781.0,2290121.0,2143448.0,1810354.0,1962601.0,1928882.0,1997920.0,2020091.7272727273
11.28125,1979911.0,1950561.0,2177959.0,2037574.0,1952138.0,2291472.0,2143443.0,1810801.0,1960686.0,1927671.0,1997993.0,2020928.0909090908
11.296875,1981275.0,1950483.0,2179761.0,2035047.0,1953325.0,2293005.0,2143433.0,1810953.0,1964635.0,1924656.0,1998278.0,2021350.0909090908
11.3125,1982780.0,1950446.0,2183740.0,2031555.0,1954390.0,2294553.0,2143510.0,1810985.0,1973171.0,1922652.0,1998249.0,2022366.4545454546
11.328125,1984205.0,1950532.0,2186969.0,2031555.0,1956269.0,2296519.0,2143493.0,1810443.0,1988530.0,1921259.0,1997895.0,2024333.5454545454
11.34375,1985687.0,1951077.0,2185154.0,2028603.0,1957745.0,2298912.0,2143379.0,1810433.0,1968564.0,1919838.0,1997282.0,2022424.9090909092
11.359375,1987368.0,1951431.0,2182006.0,2026239.0,1959125.0,2301445.0,2143412.0,1810128.0,1990477.0,1918729.0,1996593.0,2024268.4545454546
11.375,1988918.0,1952219.0,2179795.0,2024972.0,1961020.0,2303839.0,2143462.0,1810356.0,1977946.0,1918758.0,1996027.0,2023392.0
11.390625,1990786.0,1953121.0,2178129.0,2024278.0,1962657.0,2306019.0,2143465.0,1810693.0,1974827.0,1918408.0,1995493.0,2023443.2727272727
11.40625,1992402.0,1953984.0,2185637.0,2023538.0,1964560.0,2307986.0,2143449.0,1810826.0,1971542.0,1918197.0,1994857.0,2024270.7272727273
11.421875,1994006.0,1955096.0,2181546.0,2022431.0,1966474.0,2308034.0,2143450.0,1810871.0,1981900.0,1918331.0,1994663.0,2025163.8181818181
11.4375,1994284.0,1956299.0,2175713.0,2020897.0,1968256.0,2306478.0,2143458.0,1811145.0,1978631.0,1918824.0,1994149.0,2024375.8181818181
11.453125,1991993.0,1957484.0,2175642.0,2019564.0,1969453.0,2304344.0,2143444.0,1811193.0,1985092.0,1919667.0,1993903.0,2024707.1818181819
11.46875,1989730.0,1956337.0,2176759.0,2018884.0,1965838.0,2302588.0,2143443.0,1811600.0,1975783.0,1920681.0,1994058.0,2023245.5454545454
11.484375,1988079.0,1952734.0,2175718.0,2018426.0,1960235.0,2301173.0,2143505.0,1811825.0,1966426.0,1921784.0,1994007.0,2021264.7272727273
11.5,1987056.0,1949617.0,2175869.0,2018196.0,1955386.0,2300022.0,2143432.0,1812362.0,1970924.0,1922717.0,1993880.0,2020860.0909090908
11.515625,1986444.0,1947181.0,2176415.0,2018302.0,1950850.0,2299409.0,2143456.0,1812806.0,1991925.0,1923988.0,1994280.0,2022277.8181818181
11.53125,1986090.0,1945720.0,2177170.0,2018573.0,1946641.0,2298981.0,2143451.0,1812997.0,1983383.0,1925345.0,1994510.0,2021169.1818181819
11.546875,1985867.0,1944754.0,2178021.0,2018429.0,1944007.0,2298429.0,2143386.0,1813472.0,1994623.0,1926498.0,1994266.0,2021977.4545454546
11.5625,1986211.0,1944662.0,2175672.0,2018602.0,1941845.0,2297207.0,2143504.0,1814047.0,1968011.0,1927832.0,1993784.0,2019216.0909090908
11.578125,1986091.0,1944931.0,2179048.0,2018815.0,1939957.0,2297185.0,2143466.0,1814433.0,1966352.0,1929412.0,1993821.0,2019410.0909090908
11.59375,1986012.0,1945013.0,2180376.0,2019104.0,1938518.0,2296954.0,2143445.0,1814906.0,1965683.0,1929578.0,1993366.0,2019359.5454545454
11.609375,1986333.0,1944764.0,2181644.0,2019272.0,1937602.0,2297268.0,2143499.0,1814585.0,1965978.0,1927300.0,1993444.0,2019244.4545454546
11.625,1986332.0,1944883.0,2182940.0,2018498.0,1937116.0,2298127.0,2143531.0,1814173.0,1967636.0,1924609.0,1993925.0,2019251.8181818181
11.640625,1986956.0,1945431.0,2184290.0,2015557.0,1937750.0,2299701.0,2143396.0,1813733.0,1969791.0,1923317.0,1994564.0,2019498.7272727273
11.65625,1987653.0,1945994.0,2185991.0,2012269.0,1938314.0,2301693.0,2143502.0,1813410.0,1965408.0,1922027.0,1994926.0,2019198.8181818181
11.671875,1988497.0,1946731.0,2187341.0,2009903.0,1938705.0,2303518.0,2143428.0,1813567.0,1972060.0,1920893.0,1994922.0,2019960.4545454546
11.6875,1989272.0,1947515.0,2189042.0,2008025.0,1939437.0,2304552.0,2143518.0,1813542.0,1974737.0,1920505.0,1995049.0,2020472.1818181819
11.703125,1990158.0,1948937.0,2190583.0,2006967.0,1939437.0,2305156.0,2143398.0,1813407.0,1977004.0,1920411.0,1995650.0,2021009.8181818181
11.71875,1991222.0,1950058.0,2192079.0,2006754.0,1939930.0,2306159.0,2143424.0,1813750.0,1979359.0,1920172.0,1996080.0,2021726.0909090908
11.734375,1992374.0,1951419.0,2194178.0,2006282.0,1940801.0,2307843.0,2143456.0,1813977.0,1981492.0,1920116.0,1996679.0,2022601.5454545454
11.75,1993534.0,1952474.0,2193832.0,2005522.0,1941644.0,2309791.0,2143439.0,1813820.0,1984074.0,1920304.0,1997063.0,2023227.0
11.765625,1995040.0,1952346.0,2190757.0,2004610.0,1942897.0,2311716.0,2143463.0,1814199.0,1986563.0,1921060.0,1997753.0,2023673.0909090908
11.78125,1996281.0,1949803.0,2188308.0,2003886.0,1944629.0,2312929.0,2143390.0,1814392.0,1966570.0,1921846.0,1997916.0,2021813.6363636365
11.796875,1997291.0,1943770.0,2186535.0,2003479.0,1945935.0,2313106.0,2143435.0,1814666.0,1989610.0,1922871.0,1998086.0,2023525.8181818181
11.8125,1998930.0,1940954.0,2185289.0,2003523.0,1947959.0,2313850.0,2143481.0,1815078.0,1992391.0,1923918.0,1997994.0,2023942.4545454546
11.828125,2000105.0,1941920.0,2184522.0,2003836.0,1949598.0,2314964.0,2143465.0,1815330.0,1995626.0,1925124.0,1998059.0,2024777.1818181819
11.84375,2001852.0,1946148.0,2184263.0,2004204.0,1951019.0,2313868.0,2143443.0,1815746.0,1997562.0,1926063.0,1997884.0,2025641.0909090908
11.859375,2002713.0,1940583.0,2184281.0,2004770.0,1948054.0,2311015.0,2143505.0,1815860.0,1986622.0,1927432.0,1998309.0,2023922.1818181819
11.875,2000810.0,1940779.0,2184022.0,2005359.0,1942572.0,2306218.0,2143446.0,1816341.0,1993538.0,1928656.0,1998767.0,2023682.5454545454
11.890625,1998066.0,1940796.0,2184363.0,2005828.0,1937149.0,2303083.0,2143353.0,1816684.0,1982415.0,1930145.0,1999220.0,2021918.3636363635
11.90625,1996119.0,1940495.0,2184148.0,2006029.0,1933086.0,2300706.0,2143428.0,1816176.0,1975329.0,1931021.0,1999768.0,2020573.1818181819
11.921875,1995023.0,1940582.0,2185492.0,2006573.0,1929602.0,2298613.0,2143495.0,1815354.0,1974782.0,1929540.0,2000345.0,2019945.5454545454
11.9375,1994185.0,1940628.0,2186524.0,2007159.0,1927542.0,2296060.0,2143479.0,1814949.0,1977430.0,1926789.0,2000485.0,2019566.3636363635
11.953125,1993391.0,1941420.0,2184783.0,2007945.0,1926075.0,2293505.0,2143453.0,1814320.0,1975056.0,1925073.0,2000910.0,2018721.0
11.96875,1993407.0,1942546.0,2187271.0,2008670.0,1925248.0,2291658.0,2143509.0,1813637.0,1979958.0,1924152.0,2000961.0,2019183.3636363635
11.984375,1993144.0,1941121.0,2188453.0,2009344.0,1924564.0,2289346.0,2143489.0,1813522.0,1974161.0,1923176.0,2001059.0,2018307.1818181819
12.0,1992885.0,1943218.0,2189610.0,2008002.0,1923539.0,2286777.0,2143530.0,1813125.0,1975425.0,1922798.0,2000894.0,2018163.9090909092
12.015625,1992559.0,1944466.0,2190606.0,2004840.0,1923161.0,2286673.0,2143462.0,1813024.0,1977016.0,1922613.0,2000940.0,2018123.6363636365
12.03125,1992227.0,1945347.0,2191894.0,2002147.0,1923356.0,2289963.0,2143454.0,1813189.0,1974429.0,1922163.0,2000428.0,2018054.2727272727
12.046875,1992320.0,1946521.0,2193209.0,1999999.0,1923908.0,2292909.0,2143495.0,1812917.0,1981243.0,1922135.0,1999710.0,2018942.3636363635
12.0625,1992305.0,1945752.0,2194573.0,1998643.0,1924763.0,2296848.0,2143374.0,1813043.0,1979053.0,1921936.0,1998578.0,2018988.0
12.078125,1992507.0,1942856.0,2195860.0,1997909.0,1925634.0,2300700.0,2143465.0,1813189.0,1985590.0,1922612.0,1997570.0,2019808.3636363635
12.09375,1993153.0,1939263.0,2197429.0,1997972.0,1927193.0,2303263.0,2143537.0,1813163.0,1983273.0,1923335.0,1996915.0,2019863.2727272727
12.109375,1993410.0,1936797.0,2197827.0,1997783.0,1928287.0,2306874.0,2143400.0,1813393.0,1987877.0,1924381.0,1996510.0,2020594.4545454546
12.125,1994087.0,1934926.0,2194807.0,1997357.0,1929134.0,2309978.0,2143435.0,1813632.0,1990227.0,1925143.0,1995853.0,2020779.9090909092
12.140625,1994633.0,1934607.0,2191361.0,1996846.0,1931070.0,2312986.0,2143537.0,1813812.0,1993083.0,1928405.0,1995671.0,2021455.5454545454
12.15625,1995389.0,1934190.0,2188627.0,1996761.0,1932770.0,2315043.0,2143528.0,1813920.0,1995336.0,1929515.0,1995351.0,2021857.2727272727
12.171875,1996408.0,1934142.0,2186031.0,1996909.0,1934095.0,2315431.0,2143378.0,1814524.0,1998209.0,1930978.0,1995062.0,2022287.9090909092
12.1875,1996802.0,1934070.0,2183610.0,1997569.0,1935993.0,2317264.0,2143487.0,1814701.0,2001952.0,1930988.0,1994796.0,2022839.2727272727
12.203125,1997805.0,1933812.0,2182062.0,1998493.0,1937591.0,2319322.0,2143477.0,1813948.0,2004765.0,1928373.0,1994726.0,2023124.9090909092
12.21875,1998871.0,1934300.0,2181413.0,1999448.0,1939079.0,2320969.0,2143388.0,1813439.0,2003270.0,1926136.0,1995133.0,2023222.3636363635
12.234375,2000031.0,1934146.0,2180987.0,2000437.0,1938137.0,2326398.0,2143433.0,1812203.0,1995891.0,1924814.0,1995193.0,2022879.0909090908
12.25,2000743.0,1934628.0,2180360.0,2001526.0,1932726.0,2340188.0,2143449.0,1811467.0,1989114.0,1923767.0,1995216.0,2023016.7272727273
12.265625,2001348.0,1935050.0,2180002.0,2002495.0,1926475.0,2351474.0,2143474.0,1810755.0,1984634.0,1927276.0,1995613.0,2023508.7272727273
12.28125,1999743.0,1936199.0,2180174.0,2003600.0,1921686.0,2357595.0,2143426.0,1809984.0,1980826.0,1922788.0,1995613.0,2022875.8181818181
12.296875,1996126.0,1937255.0,2180598.0,2005967.0,1917357.0,2357228.0,2143433.0,1809656.0,1976704.0,1926176.0,1995663.0,2022378.4545454546
12.3125,1993523.0,1938186.0,2181268.0,2004705.0,1913524.0,2358247.0,2143351.0,1809519.0,1974447.0,1922133.0,1995599.0,2021318.3636363635
12.328125,1991604.0,1939007.0,2181950.0,2007419.0,1911197.0,2359819.0,2143473.0,1809131.0,1974196.0,1922279.0,1995164.0,2021385.3636363635
12.34375,1990113.0,1936632.0,2182837.0,2008965.0,1909309.0,2355420.0,2143450.0,1809187.0,1973944.0,1922410.0,1994503.0,2020615.4545454546
12.359375,1989388.0,1932342.0,2183762.0,2010345.0,1907545.0,2352432.0,2143467.0,1809106.0,1973288.0,1923206.0,1994087.0,2019906.1818181819
12.375,1988128.0,1928674.0,2184924.0,2011837.0,1906299.0,2349334.0,2143424.0,1808979.0,1973389.0,1924128.0,1993665.0,2019343.7272727273
12.390625,1987821.0,1925728.0,2186342.0,2013445.0,1905517.0,2349451.0,2143472.0,1809381.0,1974105.0,1925210.0,1993494.0,2019451.4545454546
12.40625,1987112.0,1923762.0,2187383.0,2015197.0,1905644.0,2353853.0,2143460.0,1809252.0,1975762.0,1926406.0,1993554.0,2020125.9090909092
12.421875,1985982.0,1922764.0,2189004.0,2016724.0,1906339.0,2349774.0,2143480.0,1809354.0,1977336.0,1922334.0,1993684.0,2019706.8181818181
12.4375,1985271.0,1922322.0,2189954.0,2018230.0,1907173.0,2360195.0,2143434.0,1809931.0,1979157.0,1922603.0,1993713.0,2021089.3636363635
12.453125,1984818.0,1922204.0,2191517.0,2019762.0,1908054.0,2368714.0,2143469.0,1810034.0,1981268.0,1927479.0,1993731.0,2022822.7272727273
12.46875,1984685.0,1921629.0,2193057.0,2021416.0,1908655.0,2375328.0,2143383.0,1810535.0,1983000.0,1928475.0,1993923.0,2024007.8181818181
12.484375,1984505.0,1921469.0,2194483.0,2023271.0,1909296.0,2381437.0,2143395.0,1810830.0,1985054.0,1929576.0,1994323.0,2025239.9090909092
12.5,1984404.0,1921175.0,2194293.0,2024778.0,1910324.0,2386482.0,2143454.0,1811146.0,1987439.0,1931233.0,1994496.0,2026293.0909090908
12.515625,1984804.0,1921285.0,2190765.0,2024881.0,1911119.0,2390520.0,2143543.0,1810868.0,1989631.0,1931904.0,1994702.0,2026729.2727272727
12.53125,1985426.0,1921806.0,2187123.0,2023996.0,1911926.0,2394092.0,2143469.0,1810116.0,1991599.0,1926796.0,1995079.0,2026493.4545454546
12.546875,1984987.0,1922442.0,2183889.0,2023369.0,1913000.0,2392879.0,2143440.0,1809288.0,1994555.0,1924841.0,1995535.0,2026202.2727272727
12.5625,1985942.0,1922999.0,2181302.0,2022966.0,1914294.0,2390205.0,2143372.0,1808560.0,1996938.0,1922069.0,1995812.0,2025859.9090909092
12.578125,1986974.0,1924041.0,2176910.0,2023201.0,1915898.0,2397893.0,2143365.0,1807957.0,1999668.0,1923077.0,1996304.0,2026844.3636363635
12.59375,1986248.0,1924693.0,2178808.0,2023679.0,1917168.0,2402843.0,2143501.0,1807304.0,1998429.0,1923889.0,1995685.0,2027477.0
12.609375,1988461.0,1922770.0,2176190.0,2024497.0,1917782.0,2406953.0,2143400.0,1806821.0,1991115.0,1925035.0,1994647.0,2027061.0
12.625,1987861.0,1918618.0,2175648.0,2025342.0,1913341.0,2410126.0,2143441.0,1806556.0,1983427.0,1920794.0,1993800.0,2025359.4545454546
12.640625,1989302.0,1913958.0,2174974.0,2026209.0,1907459.0,2410255.0,2143433.0,1806584.0,1978566.0,1921119.0,1993344.0,2024109.3636363635
12.65625,1990263.0,1909979.0,2174752.0,2026906.0,1901761.0,2408373.0,2143413.0,1806323.0,1974724.0,1926155.0,1993155.0,2023254.9090909092
12.671875,1990688.0,1907238.0,2174795.0,2027829.0,1897779.0,2405790.0,2143393.0,1806518.0,1970034.0,1927287.0,1992988.0,2022212.6363636365
12.6875,1984730.0,1905374.0,2175093.0,2028714.0,1893759.0,2404847.0,2143401.0,1806870.0,1966608.0,1919719.0,1992816.0,2020175.5454545454
12.703125,1988926.0,1904572.0,2175760.0,2029936.0,1891063.0,2410370.0,2143493.0,1807809.0,1965373.0,1920295.0,1992261.0,2020896.1818181819
12.71875,1980790.0,1903897.0,2176292.0,2031253.0,1890189.0,2416491.0,2143455.0,1808311.0,1964198.0,1920634.0,1991840.0,2020668.1818181819
12.734375,1975458.0,1903389.0,2177223.0,2032948.0,1888994.0,2417753.0,2143477.0,1809170.0,1963063.0,1928233.0,1991393.0,2021009.1818181819
12.75,1977974.0,1902623.0,2178130.0,2034452.0,1887758.0,2419221.0,2143521.0,1808681.0,1962770.0,1926757.0,1991036.0,2021174.8181818181
12.765625,1973208.0,1902422.0,2180607.0,2035879.0,1886886.0,2418368.0,2143420.0,1806735.0,1963310.0,1919876.0,1990693.0,2020127.6363636365
12.78125,1972043.0,1901996.0,2181904.0,2035879.0,1886803.0,2420657.0,2143492.0,1806923.0,1964645.0,1921801.0,1990148.0,2020571.9090909092
12.796875,1970566.0,1902397.0,2179551.0,2037551.0,1886523.0,2420708.0,2143506.0,1809281.0,1966625.0,1923758.0,1990212.0,2020970.7272727273
12.8125,1969570.0,1902822.0,2183265.0,2038796.0,1887130.0,2422910.0,2143452.0,1807141.0,1968176.0,1923471.0,1990676.0,2021582.6363636365
12.828125,1968251.0,1903351.0,2184571.0,2040219.0,1887696.0,2426373.0,2143418.0,1807308.0,1970221.0,1920305.0,1989967.0,2021970.9090909092
12.84375,1966981.0,1904479.0,2187743.0,2041735.0,1888122.0,2429139.0,2143456.0,1807612.0,1972163.0,1921856.0,1989361.0,2022967.9090909092
12.859375,1966334.0,1905454.0,2188268.0,2043246.0,1889226.0,2430416.0,2143476.0,1808991.0,1974690.0,1920270.0,1988648.0,2023547.1818181819
12.875,1965332.0,1904512.0,2184919.0,2044560.0,1890135.0,2431226.0,2143469.0,1808074.0,1976978.0,1918930.0,1987264.0,2023218.0909090908
12.890625,1965054.0,1899873.0,2181465.0,2046107.0,1891379.0,2430669.0,2143364.0,1807207.0,1979296.0,1917770.0,1985948.0,2022557.4545454546
12.90625,1964989.0,1894561.0,2179070.0,2047778.0,1892713.0,2430315.0,2143482.0,1805560.0,1981914.0,1917494.0,1984360.0,2022021.4545454546
12.921875,1964860.0,1889811.0,2177005.0,2049321.0,1894116.0,2430203.0,2143462.0,1805806.0,1984930.0,1917314.0,1983089.0,2021810.6363636365
12.9375,1964985.0,1886369.0,2189224.0,2050846.0,1895768.0,2430735.0,2143468.0,1805527.0,1987927.0,1916901.0,1981518.0,2023024.3636363635
12.953125,1965403.0,1883965.0,2186323.0,2052238.0,1897688.0,2432324.0,2143437.0,1805365.0,1990948.0,1916847.0,1980138.0,2023152.3636363635
12.96875,1965570.0,1882427.0,2175212.0,2053765.0,1899246.0,2434503.0,2143416.0,1805273.0,1992878.0,1917052.0,1979288.0,2022602.7272727273
12.984375,1966047.0,1881350.0,2174382.0,2055145.0,1899785.0,2435757.0,2143385.0,1805716.0,1989552.0,1918941.0,1978363.0,2022583.9090909092
13.0,1966830.0,1880549.0,2174756.0,2056748.0,1895639.0,2437021.0,2143480.0,1805333.0,1981957.0,1919823.0,1977836.0,2021815.6363636365
13.015625,1967264.0,1879561.0,2174065.0,2058284.0,1889801.0,2437660.0,2143417.0,1805832.0,1975977.0,1920758.0,1977339.0,2020905.2727272727
13.03125,1967835.0,1879124.0,2173748.0,2059609.0,1884924.0,2436506.0,2143467.0,1806681.0,1972285.0,1921815.0,1977031.0,2020275.0
13.046875,1968851.0,1878557.0,2173648.0,2060272.0,1881005.0,2432246.0,2143423.0,1806000.0,1968681.0,1923005.0,1976758.0,2019313.2727272727
13.0625,1969670.0,1878280.0,2174099.0,2060685.0,1878177.0,2429186.0,2143489.0,1806143.0,1965606.0,1917899.0,1976451.0,2018153.1818181819
13.078125,1970458.0,1878939.0,2174657.0,2060930.0,1876402.0,2426408.0,2143465.0,1806570.0,1963704.0,1924215.0,1976310.0,2018368.9090909092
13.09375,1970919.0,1879254.0,2175486.0,2061419.0,1875169.0,2424866.0,2143430.0,1806960.0,1963135.0,1925593.0,1975601.0,2018348.3636363635
13.109375,1968677.0,1879920.0,2176498.0,2062172.0,1874402.0,2423467.0,2143433.0,1806178.0,1961888.0,1925304.0,1974895.0,2017894.0
13.125,1965020.0,1880726.0,2177577.0,2062864.0,1873451.0,2420543.0,2143443.0,1807076.0,1961584.0,1922348.0,1973622.0,2017114.0
13.140625,1961689.0,1880765.0,2178517.0,2064017.0,1872886.0,2416063.0,2143513.0,1807622.0,1961700.0,1919938.0,1973295.0,2016364.0909090908
13.15625,1958724.0,1876734.0,2179785.0,2065075.0,1872766.0,2410978.0,2143479.0,1808249.0,1962938.0,1916946.0,1972698.0,2015306.5454545454
13.171875,1956730.0,1870925.0,2182463.0,2066029.0,1873071.0,2405798.0,2143390.0,1808560.0,1964636.0,1918324.0,1971942.0,2014715.2727272727
13.1875,1954601.0,1865636.0,2181050.0,2066935.0,1873277.0,2402010.0,2143524.0,1806128.0,1966654.0,1915703.0,1970684.0,2013291.0909090908
13.203125,1953379.0,1861856.0,2185568.0,2067882.0,1874044.0,2397295.0,2143505.0,1805578.0,1968632.0,1915299.0,1969759.0,2012981.5454545454
13.21875,1952466.0,1859327.0,2183927.0,2068893.0,1875089.0,2392758.0,2143441.0,1805296.0,1970913.0,1915217.0,1968360.0,2012335.1818181819
13.234375,1951901.0,1857844.0,2186961.0,2069879.0,1876287.0,2388643.0,2143446.0,1808071.0,1972808.0,1914557.0,1967003.0,2012490.9090909092
13.25,1950802.0,1856996.0,2185493.0,2071142.0,1877831.0,2385025.0,2143459.0,1805156.0,1975317.0,1914507.0,1966173.0,2011991.0
13.265625,1949714.0,1856486.0,2187998.0,2072210.0,1879705.0,2381142.0,2143421.0,1806562.0,1977613.0,1914818.0,1964912.0,2012234.6363636365
13.28125,1948945.0,1855576.0,2181346.0,2073493.0,1881495.0,2378358.0,2143442.0,1805276.0,1980548.0,1915520.0,1964960.0,2011723.5454545454
13.296875,1948779.0,1854671.0,2178112.0,2074652.0,1883506.0,2375765.0,2143440.0,1805112.0,1983321.0,1916193.0,1967004.0,2011868.6363636365
13.3125,1948486.0,1854323.0,2175158.0,2075871.0,1885678.0,2373910.0,2143452.0,1805240.0,1986560.0,1917376.0,1967045.0,2012099.9090909092
13.328125,1948867.0,1854011.0,2172667.0,2076959.0,1887688.0,2371858.0,2143493.0,1807422.0,1989423.0,1918245.0,1966499.0,2012466.5454545454
13.34375,1949128.0,1854370.0,2169715.0,2078106.0,1889328.0,2370485.0,2143421.0,1805686.0,1988524.0,1919206.0,1964488.0,2012041.5454545454
13.359375,1949282.0,1854953.0,2168671.0,2079361.0,1890727.0,2368975.0,2143482.0,1806078.0,1980986.0,1920282.0,1962528.0,2011393.1818181819
13.375,1949661.0,1855881.0,2168194.0,2080367.0,1888418.0,2368218.0,2143487.0,1805613.0,1973420.0,1921458.0,1961807.0,2010593.0909090908
13.390625,1950416.0,1857078.0,2169231.0,2081712.0,1882819.0,2367545.0,2143433.0,1806548.0,1968293.0,1922767.0,1961276.0,2010101.6363636365
13.40625,1950843.0,1857722.0,2170849.0,2082575.0,1877283.0,2367167.0,2143464.0,1807105.0,1964454.0,1923561.0,1959917.0,2009540.0
13.421875,1951554.0,1854420.0,2168143.0,2083891.0,1872775.0,2366880.0,2143492.0,1807608.0,1959733.0,1921596.0,1958945.0,2008094.2727272727
13.4375,1952830.0,1848736.0,2168546.0,2085101.0,1868816.0,2366955.0,2143414.0,1807972.0,1956447.0,1918720.0,1958790.0,2006938.8181818181
13.453125,1953649.0,1843352.0,2169306.0,2086248.0,1866009.0,2367688.0,2143381.0,1805480.0,1955338.0,1916985.0,1958012.0,2005949.8181818181
13.46875,1954700.0,1839204.0,2170058.0,2087303.0,1864846.0,2367751.0,2143482.0,1808422.0,1954477.0,1915711.0,1957916.0,2005806.3636363635
13.484375,1955931.0,1836422.0,2171098.0,2088412.0,1864129.0,2368168.0,2143475.0,1809057.0,1953490.0,1914501.0,1957573.0,2005659.6363636365
13.5,1956803.0,1834622.0,2171709.0,2089592.0,1863170.0,2368851.0,2143483.0,1809851.0,1953706.0,1913993.0,1957638.0,2005765.2727272727
13.515625,1956907.0,1833905.0,2172979.0,2090679.0,1863209.0,2371445.0,2143520.0,1809904.0,1954591.0,1913761.0,1957495.0,2006217.7272727273
13.53125,1954647.0,1833588.0,2174002.0,2091360.0,1863451.0,2380270.0,2143385.0,1809427.0,1956030.0,1913436.0,1957214.0,2006982.7272727273
13.546875,1951582.0,1832840.0,2175295.0,2090952.0,1864794.0,2390245.0,2143437.0,1809117.0,1957717.0,1913081.0,1956628.0,2007789.8181818181
13.5625,1949256.0,1832321.0,2176352.0,2090592.0,1866073.0,2398794.0,2143436.0,1808597.0,1959629.0,1913324.0,1956472.0,2008622.3636363635
13.578125,1947977.0,1832088.0,2177781.0,2089967.0,1867437.0,2401967.0,2143458.0,1808423.0,1962057.0,1913638.0,1956433.0,2009202.3636363635
13.59375,1946829.0,1832280.0,2179035.0,2089516.0,1868915.0,2400532.0,2143511.0,1808057.0,1964531.0,1914554.0,1956259.0,2009456.2727272727
13.609375,1946102.0,1832832.0,2180755.0,2089262.0,1870025.0,2398397.0,2143518.0,1808137.0,1966855.0,1915401.0,1956100.0,2009762.1818181819
13.625,1945965.0,1833789.0,2181925.0,2088929.0,1871500.0,2395635.0,2143484.0,1808086.0,1969390.0,1916321.0,1955531.0,2010050.4545454546
13.640625,1945394.0,1834894.0,2183404.0,2089065.0,1871500.0,2391688.0,2143404.0,1808508.0,1972069.0,1917325.0,1954542.0,2010163.0
13.65625,1944963.0,1836241.0,2178954.0,2088695.0,1873335.0,2387595.0,2143458.0,1808620.0,1975055.0,1918436.0,1953752.0,2009918.5454545454
13.671875,1944511.0,1837570.0,2174993.0,2088634.0,1874963.0,2384609.0,2143411.0,1808505.0,1977945.0,1919413.0,1952683.0,2009748.8181818181
13.6875,1944122.0,1837700.0,2182834.0,2088197.0,1877207.0,2382578.0,2143383.0,1809034.0,1981103.0,1920533.0,1951748.0,2010767.1818181819
13.703125,1944330.0,1833377.0,2168458.0,2087718.0,1879427.0,2381624.0,2143448.0,1809268.0,1983929.0,1921590.0,1950644.0,2009437.5454545454
