Timestamp,Participant_11,Participant_12,Participant_13,Participant_14,Participant_15,Participant_16,Participant_17,Participant_18,Participant_22,Participant_23,Participant_24,Average
0.0,0.29,21.26,64.0,64.0,0.87,0.87,14.65,3.89,13.79,55.51,64.0,27.55727272727273
0.015625,0.25,38.66,-0.0,-0.0,0.94,0.95,17.52,1.38,12.54,55.98,-0.0,11.656363636363636
0.03125,0.18,55.61,-0.0,-0.0,1.02,1.03,19.76,-1.63,11.24,56.38,-0.0,13.053636363636365
0.046875,0.14,67.77,-0.0,-0.0,1.12,1.12,21.34,-5.18,9.66,56.11,-0.0,13.825454545454544
0.0625,0.15,71.03,-0.0,-0.0,1.22,1.22,22.32,-9.05,7.62,54.58,-0.0,13.553636363636365
0.078125,0.25,63.16,-0.0,-0.0,1.33,1.34,22.83,-12.96,5.15,51.54,-0.0,12.058181818181817
0.09375,0.41,44.62,-0.0,-0.0,1.46,1.46,22.97,-16.64,2.32,47.21,-0.0,9.437272727272727
0.109375,0.59,18.42,-0.0,-0.0,1.6,1.61,22.8,-19.98,-0.75,42.23,-0.0,6.047272727272727
0.125,0.7,-11.04,-0.0,-0.0,1.76,1.77,22.34,-22.99,-4.02,37.32,-0.0,2.3490909090909096
0.140625,0.7,-39.39,-0.0,-0.0,1.93,1.95,21.66,-25.84,-7.56,33.04,-0.0,-1.228181818181818
0.15625,0.59,-63.59,-0.0,-0.0,2.13,2.14,20.92,-28.76,-11.54,29.45,-0.0,-4.423636363636362
0.171875,0.43,-82.42,0.0,0.0,2.35,2.37,20.31,-32.04,-16.2,26.14,0.0,-7.1872727272727275
0.1875,0.33,-96.39,0.01,0.01,2.59,2.61,19.95,-36.02,-21.71,22.4,0.01,-9.655454545454544
0.203125,0.39,-107.05,0.01,0.01,2.86,2.88,19.85,-40.92,-28.04,17.45,0.01,-12.05
0.21875,0.67,-116.3,-0.0,-0.0,3.16,3.18,19.81,-46.8,-34.82,10.73,-0.0,-14.57909090909091
0.234375,1.11,-125.7,-0.03,-0.03,3.49,3.51,19.59,-53.3,-41.29,1.94,-0.03,-17.34
0.25,1.57,-136.1,-0.05,-0.05,3.84,3.87,18.97,-59.65,-46.38,-8.81,-0.05,-20.258181818181818
0.265625,1.85,-147.4,-0.05,-0.05,4.23,4.26,17.86,-64.7,-49.07,-20.97,-0.05,-23.099090909090908
0.28125,1.83,-158.58,0.0,0.0,4.66,4.69,16.3,-67.23,-48.69,-33.49,0.0,-25.50090909090909
0.296875,1.5,-167.93,0.13,0.13,5.12,5.15,14.39,-66.33,-45.24,-44.79,0.13,-27.067272727272734
0.3125,1.01,-173.49,0.36,0.36,5.62,5.65,12.23,-61.77,-39.39,-52.9,0.36,-27.45090909090909
0.328125,0.63,-173.73,0.66,0.66,6.15,6.18,9.88,-54.05,-32.22,-55.92,0.66,-26.46363636363636
0.34375,0.64,-168.04,1.01,1.01,6.73,6.76,7.43,-44.31,-24.89,-52.56,1.01,-24.11
0.359375,1.15,-157.02,1.37,1.37,7.35,7.4,5.01,-33.9,-18.2,-42.69,1.37,-20.617272727272724
0.375,2.05,-142.13,1.72,1.72,8.01,8.08,2.82,-24.0,-12.53,-27.51,1.72,-16.368181818181817
0.390625,3.01,-125.3,2.06,2.06,8.71,8.8,1.01,-15.3,-7.87,-9.3,2.06,-11.823636363636364
0.40625,3.61,-108.13,2.4,2.4,9.46,9.55,-0.37,-7.97,-4.05,9.23,2.4,-7.406363636363635
0.421875,3.57,-91.57,2.79,2.79,10.26,10.3,-1.55,-1.79,-0.85,25.79,2.79,-3.4063636363636363
0.4375,2.85,-75.77,3.24,3.24,11.1,11.06,-2.92,3.62,1.85,39.01,3.24,0.0472727272727274
0.453125,1.77,-60.36,3.8,3.8,11.98,11.82,-4.84,8.5,4.19,48.61,3.8,3.0063636363636372
0.46875,0.87,-44.82,4.42,4.42,12.9,12.61,-7.51,12.94,6.37,55.06,4.42,5.607272727272727
0.484375,0.65,-28.85,5.06,5.06,13.88,13.48,-10.83,16.92,8.57,59.09,5.06,8.008181818181818
0.5,1.37,-12.51,5.66,5.66,14.94,14.45,-14.43,20.36,11.0,61.25,5.66,10.31
0.515625,2.84,3.86,6.2,6.2,16.06,15.53,-17.9,23.19,13.74,61.81,6.2,12.52090909090909
0.53125,4.48,19.91,6.68,6.68,17.25,16.7,-20.97,25.38,16.72,60.88,6.68,14.580909090909092
0.546875,5.56,35.7,7.15,7.15,18.49,17.92,-23.59,26.93,19.82,58.67,7.15,16.450000000000003
0.5625,5.57,51.91,7.68,7.68,19.72,19.13,-25.93,27.83,22.88,55.64,7.68,18.162727272727274
0.578125,4.48,69.72,8.31,8.31,20.92,20.3,-28.2,28.13,25.81,52.45,8.31,19.86727272727273
0.59375,2.72,90.42,9.14,9.14,22.01,21.37,-30.6,27.97,28.62,49.87,9.14,21.8
0.609375,1.12,114.7,10.09,10.09,22.93,22.31,-33.23,27.58,31.42,48.53,10.09,24.14818181818182
0.625,0.32,141.92,11.04,11.04,23.64,23.04,-36.09,27.21,34.39,48.71,11.04,26.932727272727274
0.640625,0.59,169.85,11.88,11.88,24.04,23.49,-39.13,27.07,37.67,50.28,11.88,29.954545454545453
0.65625,1.58,195.01,12.56,12.56,24.03,23.52,-42.14,27.23,41.35,52.65,12.56,32.81
0.671875,2.5,213.57,13.14,13.14,23.49,22.98,-44.78,27.63,45.32,54.87,13.14,35.0
0.6875,2.45,222.49,13.76,13.76,22.32,21.74,-46.51,28.15,49.3,55.73,13.76,36.08636363636364
0.703125,0.68,220.57,14.65,14.65,20.4,19.66,-46.73,28.62,52.98,54.07,14.65,35.836363636363636
0.71875,-3.24,208.62,15.96,15.96,17.71,16.73,-45.02,28.9,56.09,48.96,15.96,34.23909090909091
0.734375,-9.54,189.15,17.91,17.91,14.28,13.02,-41.3,28.86,58.54,39.99,17.91,31.520909090909097
0.75,-17.97,165.35,20.32,20.32,10.2,8.69,-35.93,28.38,60.53,27.37,20.32,27.96181818181818
0.765625,-27.66,140.15,22.9,22.9,5.69,4.01,-29.51,27.33,62.38,11.85,22.9,23.903636363636362
0.78125,-36.66,115.54,25.38,25.38,0.98,-0.75,-22.77,25.61,64.42,-5.39,25.38,19.73818181818182
0.796875,-42.38,92.45,27.58,27.58,-3.68,-5.37,-16.19,23.24,66.85,-22.99,27.58,15.879090909090905
0.8125,-42.26,71.1,29.57,29.57,-8.1,-9.75,-9.99,20.39,69.6,-39.68,29.57,12.729090909090907
0.828125,-35.13,51.41,31.68,31.68,-12.12,-13.82,-4.11,17.31,72.38,-54.43,31.68,10.593636363636362
0.84375,-21.99,33.43,34.32,34.32,-15.67,-17.6,1.56,14.27,74.81,-66.76,34.32,9.546363636363635
0.859375,-5.95,17.33,37.81,37.81,-18.7,-21.04,7.07,11.49,76.52,-76.74,37.81,9.400909090909092
0.875,8.86,3.33,42.54,42.54,-21.16,-24.0,12.28,9.01,77.22,-84.99,42.54,9.833636363636366
0.890625,19.02,-8.36,48.15,48.15,-22.98,-26.29,16.91,6.76,76.78,-92.37,48.15,10.356363636363636
0.90625,23.15,-17.72,54.1,54.1,-24.11,-27.72,20.69,4.54,75.12,-99.64,54.1,10.600909090909092
0.921875,22.19,-24.88,59.83,59.83,-24.51,-28.19,23.48,2.11,72.15,-107.08,59.83,10.432727272727272
0.9375,18.43,-30.12,64.97,64.97,-24.21,-27.81,25.34,-0.7,67.73,-114.47,64.97,9.91818181818182
0.953125,14.18,-34.02,69.58,69.58,-23.37,-26.92,26.49,-3.91,61.62,-121.24,69.58,9.233636363636363
0.96875,10.71,-37.45,74.14,74.14,-22.25,-25.97,27.24,-7.4,53.57,-126.89,74.14,8.543636363636363
0.984375,8.07,-41.48,79.34,79.34,-21.13,-25.39,27.74,-10.88,43.31,-131.31,79.34,7.904545454545456
1.0,5.68,-46.84,85.71,85.71,-20.26,-25.4,28.08,-14.07,30.64,-134.79,85.71,7.288181818181818
1.015625,3.19,-53.59,93.76,93.76,-19.72,-25.91,28.22,-16.81,15.52,-138.02,93.76,6.741818181818181
1.03125,0.9,-60.74,103.0,103.0,-19.42,-26.57,28.18,-19.14,-1.92,-141.72,103.0,6.233636363636363
1.046875,-0.45,-66.49,112.62,112.62,-19.13,-26.9,28.04,-21.28,-21.33,-146.45,112.62,5.806363636363638
1.0625,-0.25,-68.81,121.73,121.73,-18.55,-26.58,27.99,-23.61,-42.11,-152.23,121.73,5.549090909090911
1.078125,1.5,-66.45,129.77,129.77,-17.57,-25.61,28.13,-26.55,-63.44,-158.24,129.77,5.552727272727276
1.09375,4.16,-59.42,136.75,136.75,-16.26,-24.35,28.47,-30.43,-84.38,-162.51,136.75,5.95727272727273
1.109375,6.69,-49.15,143.3,143.3,-14.92,-23.4,28.82,-35.42,-103.97,-162.03,143.3,6.95636363636364
1.125,8.1,-37.81,150.75,150.75,-13.99,-23.33,28.86,-41.44,-121.44,-153.43,150.75,8.888181818181819
1.140625,7.92,-27.54,157.77,157.77,-13.8,-24.37,28.35,-48.05,-136.39,-134.22,157.77,11.382727272727276
1.15625,6.34,-19.93,166.64,166.64,-14.44,-26.31,27.21,-54.35,-148.79,-104.12,166.64,15.048181818181819
1.171875,4.1,-15.81,177.95,177.95,-15.63,-28.54,25.53,-59.15,-158.9,-65.7,177.95,19.977272727272723
1.1875,2.1,-15.83,191.79,191.79,-16.89,-30.35,23.55,-61.23,-166.98,-23.9,191.79,25.985454545454537
1.203125,1.05,-20.74,206.97,206.97,-17.63,-31.24,21.43,-59.73,-172.98,15.58,206.97,32.42272727272728
1.21875,1.14,-31.39,220.57,220.57,-17.56,-31.15,19.28,-54.49,-176.43,48.18,220.57,38.11727272727273
1.234375,1.96,-48.24,228.25,228.25,-16.78,-30.51,17.03,-46.2,-176.56,71.91,228.25,41.57818181818182
1.25,2.75,-70.57,225.36,225.36,-15.81,-29.94,14.57,-36.18,-172.65,87.37,225.36,41.42
1.265625,2.71,-96.07,208.53,208.53,-15.38,-30.11,11.83,-25.92,-164.49,96.76,208.53,36.810909090909085
1.28125,1.51,-121.2,176.87,176.87,-16.08,-31.49,8.82,-16.61,-152.57,102.32,176.87,27.75545454545455
1.296875,-0.63,-142.26,132.76,132.76,-18.08,-34.4,5.59,-8.83,-138.07,105.26,132.76,15.16909090909091
1.3125,-3.01,-156.56,80.05,80.05,-21.01,-38.9,2.26,-2.52,-122.47,105.68,80.05,0.3290909090909108
1.328125,-4.79,-163.52,23.07,23.07,-24.1,-44.52,-1.09,2.8,-107.11,103.27,23.07,-15.440909090909093
1.34375,-5.46,-164.71,-34.94,-34.94,-26.57,-49.99,-4.4,7.71,-92.91,98.19,-34.94,-31.178181818181823
1.359375,-5.06,-163.31,-92.44,-92.44,-27.93,-53.25,-7.7,12.58,-80.24,91.53,-92.44,-46.42727272727273
1.375,-4.1,-163.08,-149.16,-149.16,-28.19,-51.9,-11.11,17.51,-69.05,85.01,-149.16,-61.126363636363635
1.390625,-3.36,-167.06,-205.23,-205.23,-27.87,-44.21,-14.84,22.25,-59.1,80.21,-205.23,-75.42454545454545
1.40625,-3.44,-176.44,-260.37,-260.37,-27.75,-30.16,-19.18,26.46,-50.08,77.87,-260.37,-89.43909090909091
1.421875,-4.48,-189.91,-313.74,-313.74,-28.6,-11.73,-24.34,29.78,-41.76,77.68,-313.74,-103.14363636363636
1.4375,-6.18,-203.63,-363.87,-363.87,-31.18,7.59,-30.33,32.11,-33.93,78.53,-363.87,-116.2390909090909
1.453125,-7.9,-212.03,-409.82,-409.83,-35.92,24.19,-36.78,33.54,-26.45,79.15,-409.83,-128.33454545454546
1.46875,-9.08,-209.39,-450.89,-450.91,-42.76,35.76,-42.95,34.37,-19.26,78.59,-450.91,-138.85727272727274
1.484375,-9.47,-191.64,-486.47,-486.5,-50.71,41.97,-47.87,34.93,-12.4,76.5,-486.5,-147.10545454545456
1.5,-9.22,-157.94,-515.68,-515.74,-57.57,44.21,-50.65,35.46,-5.96,72.9,-515.74,-152.35727272727274
1.515625,-8.83,-111.25,-537.14,-537.23,-60.26,44.49,-50.69,36.06,-0.07,67.93,-537.23,-154.01999999999998
1.53125,-8.85,-57.53,-549.1,-549.22,-55.82,44.31,-47.87,36.67,5.21,61.63,-549.22,-151.79909090909092
1.546875,-9.62,-3.96,-549.81,-549.96,-42.74,44.16,-42.5,37.19,9.88,53.95,-549.96,-145.76090909090908
1.5625,-11.17,43.13,-538.17,-538.37,-21.97,43.66,-35.2,37.52,13.95,44.98,-538.37,-136.36454545454544
1.578125,-13.23,79.78,-513.96,-514.21,3.06,42.35,-26.65,37.6,17.42,35.07,-514.21,-124.27090909090909
1.59375,-15.33,104.75,-478.37,-478.67,27.55,40.19,-17.47,37.41,20.23,24.9,-478.67,-110.31636363636363
1.609375,-17.09,118.72,-433.52,-433.88,47.13,37.72,-8.14,36.91,22.36,15.24,-433.88,-95.31181818181817
1.625,-18.27,123.4,-382.03,-382.45,59.38,35.62,0.95,36.05,23.87,6.72,-382.45,-79.92818181818183
1.640625,-18.91,120.51,-326.53,-327.02,64.38,34.32,9.54,34.78,24.93,-0.41,-327.02,-64.67545454545454
1.65625,-19.26,111.56,-269.28,-269.84,64.13,33.65,17.45,33.05,25.72,-6.22,-269.84,-49.898181818181804
1.671875,-19.76,98.12,-212.01,-212.63,61.19,33.07,24.55,30.88,26.35,-11.04,-212.63,-35.809999999999995
1.6875,-20.84,81.95,-155.96,-156.66,57.58,31.94,30.7,28.3,26.82,-15.27,-156.66,-22.55454545454546
1.703125,-22.9,65.04,-102.18,-102.95,54.24,29.91,35.68,25.42,26.98,-19.28,-102.95,-10.27181818181818
1.71875,-26.07,49.03,-51.52,-52.37,51.33,27.18,39.31,22.39,26.66,-23.39,-52.37,0.9254545454545429
1.734375,-30.12,34.78,-4.97,-5.9,48.86,24.34,41.42,19.35,25.8,-27.92,-5.9,10.885454545454545
1.75,-34.4,22.09,36.6,35.58,47.13,22.17,42.04,16.47,24.48,-33.21,35.58,19.50272727272727
1.765625,-37.54,10.19,72.54,71.42,46.54,21.24,41.45,13.82,22.93,-39.54,71.43,26.770909090909093
1.78125,-38.09,-1.35,102.56,101.35,47.25,21.61,40.1,11.39,21.34,-47.09,101.35,32.76545454545454
1.796875,-34.85,-11.78,126.82,125.51,48.84,22.81,38.44,9.04,19.79,-55.87,125.5,37.65909090909091
1.8125,-27.3,-18.97,145.82,144.4,50.35,24.03,36.71,6.59,18.18,-65.63,144.38,41.687272727272735
1.828125,-15.87,-20.23,160.26,158.72,50.64,24.43,34.91,3.86,16.35,-75.75,158.69,45.091818181818184
1.84375,-1.92,-13.51,170.87,169.18,48.89,23.52,32.82,0.72,14.15,-85.06,169.15,48.07363636363636
1.859375,12.69,1.41,178.25,176.38,44.92,21.4,30.18,-2.83,11.65,-91.81,176.37,50.782727272727264
1.875,26.15,22.72,182.81,180.7,39.36,18.6,26.87,-6.65,9.09,-93.93,180.75,53.31545454545455
1.890625,37.13,47.18,184.84,182.45,33.29,15.97,22.97,-10.56,6.81,-89.57,182.57,55.73454545454545
1.90625,45.06,71.43,184.56,181.86,27.75,14.14,18.65,-14.3,5.11,-77.85,182.07,58.04363636363637
1.921875,49.95,93.13,182.25,179.22,23.33,13.35,14.12,-17.73,4.07,-59.38,179.51,60.16545454545455
1.9375,52.22,111.41,178.26,174.9,20.03,13.32,9.46,-20.85,3.48,-36.35,175.23,61.91909090909091
1.953125,52.36,126.61,172.99,169.31,17.27,13.42,4.77,-23.76,2.88,-11.87,169.65,63.057272727272725
1.96875,50.78,139.41,166.86,162.84,14.31,12.93,0.08,-26.69,1.81,10.96,163.18,63.31545454545455
1.984375,47.78,150.19,160.2,155.82,10.55,11.42,-4.55,-29.94,-0.0,30.1,156.15,62.52
2.0,43.66,158.73,153.28,148.48,5.84,8.79,-9.1,-33.76,-2.54,44.92,148.81,60.646363636363624
2.015625,38.81,164.5,146.24,140.92,0.45,5.37,-13.72,-38.36,-5.55,56.04,141.3,57.81818181818182
2.03125,33.76,167.12,139.13,133.24,-5.04,1.66,-18.69,-43.8,-8.72,64.55,133.69,54.26363636363636
2.046875,29.08,166.71,132.02,125.48,-10.02,-1.8,-24.3,-49.78,-11.87,71.3,126.02,50.25818181818182
2.0625,25.22,163.83,124.94,117.72,-14.06,-4.72,-30.66,-55.69,-15.09,76.51,118.33,46.03
2.078125,22.42,159.2,117.95,110.05,-17.06,-7.04,-37.54,-60.56,-18.65,79.94,110.69,41.763636363636365
2.09375,20.63,153.26,111.12,102.53,-19.28,-8.97,-44.3,-63.26,-22.91,81.39,103.16,37.57909090909091
2.109375,19.64,146.04,104.54,95.21,-21.22,-10.78,-50.12,-62.87,-28.16,81.09,95.8,33.56090909090909
2.125,19.18,137.25,98.24,88.11,-23.59,-12.8,-54.19,-59.0,-34.4,79.82,88.68,29.75454545454545
2.140625,19.06,126.61,92.26,81.21,-26.93,-15.22,-56.15,-52.02,-41.3,78.59,81.83,26.176363636363636
2.15625,19.23,114.22,86.63,74.51,-31.5,-18.16,-56.25,-42.94,-48.15,78.17,75.25,22.819090909090907
2.171875,19.66,100.64,81.34,68.02,-37.16,-21.61,-55.51,-33.11,-53.91,78.79,68.95,19.645454545454548
2.1875,20.29,86.86,76.42,61.8,-43.37,-25.42,-55.51,-23.75,-57.37,80.11,62.95,16.63727272727273
2.203125,20.97,73.94,71.86,55.93,-49.42,-29.19,-57.86,-15.59,-57.49,81.56,57.25,13.814545454545453
2.21875,21.45,62.73,67.68,50.46,-54.69,-32.22,-63.65,-8.74,-53.67,82.74,51.86,11.268181818181816
2.234375,21.51,53.56,63.88,45.43,-58.94,-33.62,-72.75,-2.84,-46.08,83.6,46.78,9.139090909090909
2.25,20.97,46.2,60.46,40.76,-62.37,-32.53,-83.7,2.56,-35.72,84.36,42.03,7.547272727272724
2.265625,19.78,39.94,57.43,36.36,-65.65,-28.49,-93.93,7.8,-24.13,85.27,37.59,6.542727272727271
2.28125,18.02,33.9,54.8,32.11,-69.69,-21.62,-100.55,12.93,-12.97,86.33,33.45,6.064545454545453
2.296875,15.84,27.28,52.56,27.94,-75.36,-12.74,-101.32,17.73,-3.56,87.26,29.61,5.930909090909092
2.3125,13.46,19.64,50.7,23.87,-83.2,-3.1,-95.39,21.94,3.45,87.6,26.07,5.912727272727275
2.328125,11.1,11.03,49.2,20.01,-93.07,5.95,-83.54,25.34,8.12,86.91,22.81,5.805454545454546
2.34375,8.96,1.83,48.04,16.54,-103.91,13.42,-67.8,27.86,11.01,84.97,19.83,5.5227272727272725
2.359375,7.15,-7.48,47.17,13.57,-113.79,18.81,-50.75,29.59,12.89,81.8,17.11,5.097272727272728
2.375,5.6,-16.59,46.49,11.12,-120.2,22.14,-34.66,30.69,14.45,77.62,14.67,4.666363636363636
2.390625,4.09,-25.53,45.89,9.09,-120.65,23.73,-21.04,31.35,16.06,72.75,12.48,4.383636363636365
2.40625,2.33,-34.55,45.22,7.23,-113.52,23.93,-10.42,31.73,17.79,67.52,10.54,4.345454545454545
2.421875,0.09,-43.93,44.31,5.3,-98.57,23.05,-2.58,31.98,19.46,62.23,8.83,4.5609090909090915
2.4375,-2.7,-53.75,42.96,3.15,-77.2,21.29,3.1,32.22,20.78,57.1,7.35,4.9363636363636365
2.453125,-5.84,-63.84,41.02,0.83,-52.0,18.83,7.29,32.53,21.52,52.26,6.07,5.333636363636363
2.46875,-9.02,-73.89,38.35,-1.45,-26.04,15.95,10.56,32.98,21.62,47.72,4.97,5.613636363636363
2.484375,-11.94,-83.59,34.86,-3.37,-1.97,13.03,13.27,33.54,21.21,43.38,4.05,5.679090909090909
2.5,-14.48,-92.58,30.52,-4.7,18.51,10.5,15.69,34.11,20.55,39.02,3.27,5.491818181818182
2.515625,-16.77,-100.34,25.41,-5.39,34.83,8.78,18.06,34.51,19.92,34.38,2.62,5.091818181818181
2.53125,-19.18,-106.13,19.6,-5.65,47.3,8.11,20.56,34.53,19.52,29.28,2.09,4.548181818181818
2.546875,-22.1,-108.92,13.27,-5.89,56.59,8.53,23.34,33.99,19.42,23.61,1.65,3.9536363636363627
2.5625,-25.8,-107.7,6.67,-6.52,63.39,9.88,26.34,32.81,19.56,17.43,1.3,3.396363636363638
2.578125,-30.25,-101.81,0.05,-7.79,68.18,11.84,29.32,31.0,19.84,11.0,1.01,2.944545454545454
2.59375,-35.14,-91.16,-6.3,-9.62,71.22,14.05,31.95,28.7,20.15,4.74,0.79,2.67090909090909
2.609375,-39.99,-76.23,-12.14,-11.65,72.68,16.15,33.94,26.09,20.42,-0.9,0.61,2.634545454545457
2.625,-44.41,-57.95,-17.25,-13.4,72.8,17.91,35.19,23.37,20.53,-5.5,0.48,2.8881818181818173
2.640625,-48.21,-37.47,-21.48,-14.51,71.93,19.12,35.86,20.71,20.41,-8.87,0.37,3.4418181818181806
2.65625,-51.49,-16.16,-24.75,-14.88,70.49,19.68,36.28,18.18,19.93,-11.06,0.3,4.229090909090908
2.671875,-54.55,4.32,-27.0,-14.71,68.92,19.57,36.76,15.79,19.02,-12.3,0.24,5.096363636363638
2.6875,-57.84,22.03,-28.29,-14.43,67.54,18.77,37.42,13.47,17.73,-12.94,0.21,5.788181818181818
2.703125,-61.78,35.01,-28.68,-14.47,66.49,17.36,38.13,11.12,16.22,-13.23,0.19,6.032727272727271
2.71875,-66.69,41.87,-28.29,-15.18,65.82,15.45,38.6,8.57,14.81,-13.32,0.18,5.620000000000001
2.734375,-72.6,42.28,-27.26,-16.79,65.45,13.2,38.5,5.75,13.75,-13.22,0.19,4.477272727272728
2.75,-79.15,37.33,-25.72,-19.42,65.29,10.76,37.67,2.61,13.18,-12.86,0.21,2.7181818181818187
2.765625,-85.4,29.21,-23.82,-22.89,65.27,8.28,36.17,-0.8,13.01,-12.19,0.23,0.6427272727272723
2.78125,-89.88,20.45,-21.65,-26.48,65.24,5.84,34.27,-4.38,12.99,-11.28,0.26,-1.329090909090908
2.796875,-90.9,12.98,-19.29,-28.89,64.99,3.45,32.29,-7.99,12.8,-10.29,0.29,-2.778181818181818
2.8125,-87.03,7.56,-16.79,-28.42,64.22,1.12,30.44,-11.52,12.22,-9.41,0.32,-3.39
2.828125,-77.7,3.7,-14.18,-23.73,62.57,-1.11,28.81,-14.87,11.22,-8.78,0.36,-3.064545454545454
2.84375,-63.46,0.15,-11.48,-14.55,59.77,-3.18,27.28,-18.03,9.97,-8.43,0.4,-1.9600000000000002
2.859375,-45.96,-4.29,-8.7,-2.08,55.76,-4.99,25.66,-21.04,8.7,-8.33,0.43,-0.44000000000000017
2.875,-27.38,-10.07,-5.85,11.23,50.73,-6.5,23.79,-24.03,7.55,-8.36,0.47,1.0527272727272725
2.890625,-9.88,-16.68,-2.88,22.64,45.02,-7.73,21.49,-27.23,6.51,-8.45,0.5,2.1190909090909096
2.90625,5.07,-22.74,0.2,30.21,39.05,-8.83,18.71,-30.97,5.38,-8.54,0.54,2.552727272727273
2.921875,16.85,-26.56,3.44,33.47,33.07,-9.98,15.41,-35.57,3.93,-8.57,0.57,2.369090909090909
2.9375,25.6,-26.7,6.83,33.35,27.14,-11.35,11.55,-41.2,2.04,-8.43,0.61,1.767272727272727
2.953125,31.93,-22.49,10.42,31.43,21.18,-12.95,7.05,-47.66,-0.22,-8.0,0.65,1.030909090909092
2.96875,36.52,-14.18,14.2,29.08,15.07,-14.7,1.79,-54.36,-2.58,-7.16,0.7,0.39818181818181836
2.984375,39.92,-2.99,18.11,26.93,8.85,-16.43,-4.44,-60.25,-4.78,-5.99,0.77,-0.027272727272727056
3.0,42.45,9.28,22.1,24.91,2.72,-18.04,-11.87,-64.17,-6.68,-4.73,0.86,-0.2881818181818173
3.015625,44.24,20.77,26.11,22.71,-3.0,-19.54,-20.65,-65.12,-8.45,-3.79,0.96,-0.5236363636363627
3.03125,45.34,30.07,30.11,20.27,-8.12,-21.11,-30.64,-62.63,-10.49,-3.5,1.05,-0.877272727272728
3.046875,45.76,36.53,34.07,17.87,-12.72,-23.04,-41.31,-56.9,-13.29,-3.98,1.13,-1.4436363636363645
3.0625,45.56,40.43,37.97,15.96,-17.18,-25.62,-51.73,-48.74,-17.23,-5.07,1.18,-2.2245454545454515
3.078125,44.84,42.65,41.81,14.81,-22.03,-28.99,-60.68,-39.32,-22.41,-6.44,1.2,-3.141818181818179
3.09375,43.74,44.26,45.63,14.31,-27.68,-33.03,-67.01,-29.76,-28.56,-7.8,1.22,-4.061818181818183
3.109375,42.36,45.97,49.49,14.02,-34.2,-37.24,-69.88,-20.85,-35.07,-9.09,1.26,-4.839090909090907
3.125,40.83,47.82,53.3,13.44,-41.26,-40.75,-69.03,-12.91,-41.04,-10.5,1.36,-5.34
3.140625,39.28,49.2,57.01,12.23,-48.31,-42.53,-64.7,-5.92,-45.38,-12.32,1.53,-5.446363636363637
3.15625,37.89,49.08,60.63,10.45,-54.89,-41.69,-57.54,0.35,-46.99,-14.74,1.76,-5.062727272727271
3.171875,36.86,46.44,64.17,8.45,-60.84,-37.79,-48.35,6.07,-45.02,-17.73,2.03,-4.1554545454545435
3.1875,36.38,40.77,67.64,6.68,-66.41,-31.06,-37.9,11.3,-39.17,-21.04,2.29,-2.774545454545454
3.203125,36.47,32.35,71.07,5.42,-72.21,-22.32,-26.83,15.95,-29.8,-24.41,2.52,-1.0718181818181813
3.21875,36.96,22.39,74.52,4.66,-78.96,-12.84,-15.63,19.91,-17.95,-27.68,2.71,0.7354545454545458
3.234375,37.51,12.74,78.09,4.12,-87.27,-3.83,-4.7,23.14,-5.01,-30.83,2.91,2.442727272727274
3.25,37.71,5.44,81.87,3.52,-97.35,3.77,5.7,25.74,7.64,-33.9,3.15,3.9354545454545447
3.265625,37.24,2.09,85.76,2.73,-108.71,9.5,15.39,27.89,19.02,-36.88,3.47,5.2272727272727275
3.28125,36.01,3.43,89.71,2.0,-120.09,13.4,24.26,29.79,28.71,-39.62,3.89,6.499090909090906
3.296875,34.16,9.15,93.71,1.79,-129.45,15.73,32.18,31.55,36.79,-41.91,4.4,8.009090909090911
3.3125,31.99,18.12,97.78,2.63,-134.34,16.88,38.97,33.16,43.66,-43.61,4.93,10.015454545454542
3.328125,29.82,28.78,101.96,4.74,-132.56,17.12,44.39,34.51,49.83,-44.72,5.41,12.661818181818179
3.34375,27.87,39.59,106.31,7.93,-122.85,16.69,48.28,35.49,55.75,-45.44,5.81,15.948181818181821
3.359375,26.2,49.42,110.87,11.58,-105.4,15.79,50.62,36.05,61.74,-46.0,6.13,19.727272727272723
3.375,24.65,57.6,115.7,14.92,-81.92,14.61,51.72,36.26,67.97,-46.59,6.42,23.758181818181814
3.390625,22.92,63.98,120.86,17.28,-55.21,13.43,52.05,36.25,74.42,-47.27,6.8,27.773636363636367
3.40625,20.71,68.65,126.05,18.27,-28.37,12.53,52.15,36.19,80.94,-47.95,7.36,31.502727272727274
3.421875,17.8,71.82,131.03,17.94,-4.01,12.24,52.44,36.1,87.3,-48.49,8.13,34.75454545454545
3.4375,14.2,73.61,135.54,16.57,16.34,12.73,53.05,35.95,93.34,-48.73,9.04,37.42181818181819
3.453125,10.17,74.04,139.32,14.64,32.27,14.05,53.99,35.57,99.03,-48.54,9.97,39.50090909090908
3.46875,6.16,73.19,142.02,12.52,44.27,16.01,55.22,34.77,104.49,-47.83,10.73,41.050000000000004
3.484375,2.63,71.31,143.23,10.52,53.14,18.25,56.72,33.42,109.82,-46.57,11.23,42.154545454545456
3.5,-0.11,68.86,142.41,8.83,59.64,20.38,58.54,31.53,115.1,-44.75,11.46,42.8990909090909
3.515625,-2.07,66.39,138.82,7.58,64.26,22.06,60.59,29.16,120.38,-42.54,11.6,43.29363636363637
3.53125,-3.56,64.24,133.83,6.85,67.25,23.12,62.47,26.5,125.89,-40.16,11.88,43.48272727272728
3.546875,-5.12,62.28,127.96,6.7,68.79,23.58,63.51,23.7,132.12,-37.94,12.54,43.46545454545455
3.5625,-7.29,60.01,121.54,7.14,69.14,23.54,62.95,20.89,139.76,-36.26,13.59,43.18272727272727
3.578125,-10.39,56.74,114.82,8.14,68.73,23.08,60.21,18.16,149.2,-35.53,14.87,42.54818181818182
3.59375,-14.43,52.2,108.0,9.56,68.01,22.24,55.24,15.56,159.96,-36.17,15.94,41.46454545454546
3.609375,-19.04,46.75,101.25,11.21,67.35,20.89,48.51,13.04,170.16,-38.57,16.32,39.806363636363635
3.625,-23.66,41.31,94.76,12.92,66.96,18.96,40.82,10.57,176.74,-43.0,15.62,37.45454545454545
3.640625,-27.73,36.94,88.67,14.52,66.87,16.42,33.02,7.99,176.17,-49.42,13.7,34.28636363636363
3.65625,-30.99,34.3,83.17,15.91,67.02,13.42,25.75,5.2,165.57,-57.39,10.8,30.250909090909094
3.671875,-33.53,33.37,78.45,16.97,67.38,10.2,19.31,2.16,143.62,-66.13,7.32,25.374545454545455
3.6875,-35.88,33.47,74.4,17.55,67.9,7.05,13.69,-1.07,110.91,-74.6,3.72,19.74
3.703125,-38.77,33.74,70.95,17.48,68.55,4.15,8.69,-4.29,69.6,-81.92,0.21,13.490000000000002
3.71875,-42.88,33.32,68.06,16.57,69.18,1.53,4.09,-7.33,22.85,-87.54,-3.36,6.771818181818182
3.734375,-48.57,31.62,65.74,14.68,69.5,-0.94,-0.3,-10.1,-25.65,-91.41,-7.38,-0.25545454545454604
3.75,-55.67,28.15,63.98,11.9,69.1,-3.45,-4.59,-12.68,-72.13,-93.89,-12.26,-7.412727272727275
3.765625,-63.36,22.4,62.79,8.27,67.51,-6.08,-8.93,-15.33,-112.98,-95.54,-18.18,-14.493636363636364
3.78125,-70.26,13.83,62.2,4.05,64.42,-8.71,-13.46,-18.33,-145.19,-96.92,-24.81,-21.19818181818182
3.796875,-74.7,2.05,62.22,-0.41,59.8,-11.08,-18.43,-21.94,-167.01,-98.39,-31.37,-27.205454545454543
3.8125,-75.15,-13.03,62.91,-4.76,53.94,-12.88,-24.22,-26.33,-178.51,-100.12,-36.82,-32.269999999999996
3.828125,-70.73,-31.01,64.03,-8.7,47.41,-13.93,-31.24,-31.5,-181.65,-102.01,-40.34,-36.33363636363637
3.84375,-61.49,-51.13,65.41,-12.03,40.87,-14.38,-39.8,-37.2,-179.57,-103.72,-41.57,-39.51
3.859375,-48.51,-72.28,66.88,-14.7,34.77,-14.65,-49.79,-42.96,-175.4,-104.7,-40.77,-42.01
3.875,-33.61,-93.13,68.32,-16.72,29.22,-15.37,-60.49,-48.0,-171.07,-104.33,-38.74,-43.99272727272727
3.890625,-18.79,-112.04,69.59,-18.15,23.97,-17.16,-70.52,-51.36,-166.77,-102.09,-36.45,-45.43363636363637
3.90625,-5.65,-127.17,70.63,-19.12,18.57,-20.43,-78.18,-52.12,-161.33,-97.88,-34.82,-46.13636363636364
3.921875,4.99,-136.63,71.41,-19.69,12.68,-25.18,-81.89,-49.73,-153.19,-92.08,-34.58,-45.808181818181815
3.9375,13.09,-138.92,71.94,-19.91,6.33,-31.02,-80.72,-44.2,-141.47,-85.56,-36.19,-44.23909090909091
3.953125,19.2,-133.47,72.21,-19.81,-0.07,-37.13,-74.66,-36.25,-126.41,-79.31,-39.68,-41.39818181818182
3.96875,24.08,-120.89,72.05,-19.41,-6.0,-42.45,-64.55,-26.99,-109.14,-74.12,-44.29,-37.42818181818182
3.984375,28.32,-102.95,71.3,-18.77,-11.12,-45.85,-51.73,-17.65,-91.02,-70.34,-48.25,-32.55090909090909
4.0,32.28,-81.98,69.78,-18.0,-15.6,-46.41,-37.57,-9.12,-72.84,-67.84,-49.12,-26.947272727272722
4.015625,36.04,-60.18,67.29,-17.25,-20.02,-43.64,-23.15,-1.81,-54.56,-66.18,-44.68,-20.74
4.03125,39.52,-39.03,63.71,-16.61,-25.11,-37.73,-9.09,4.31,-35.62,-64.89,-34.04,-14.052727272727271
4.046875,42.61,-19.19,58.94,-16.08,-31.33,-29.48,4.34,9.55,-15.4,-63.67,-18.4,-7.100909090909091
4.0625,45.21,-0.84,53.01,-15.56,-38.64,-20.14,17.04,14.13,6.14,-62.44,-0.91,-0.27272727272727304
4.078125,47.3,15.89,46.01,-14.9,-46.54,-11.08,28.86,18.13,28.31,-61.21,14.55,5.938181818181818
4.09375,48.86,30.62,38.09,-14.05,-54.34,-3.37,39.54,21.41,49.75,-60.14,24.95,11.029090909090911
4.109375,49.87,42.75,29.37,-13.03,-61.56,2.47,48.78,23.81,68.78,-59.45,29.22,14.637272727272729
4.125,50.33,51.8,19.95,-11.97,-68.11,6.48,56.35,25.26,83.66,-59.56,28.49,16.60727272727273
4.140625,50.24,57.67,9.99,-11.01,-74.28,9.11,62.25,25.93,92.77,-60.85,25.12,16.994545454545456
4.15625,49.7,60.58,-0.35,-10.23,-80.67,10.86,66.71,26.15,94.68,-63.52,21.44,15.94090909090909
4.171875,48.93,60.86,-10.86,-9.69,-87.94,12.08,70.13,26.28,88.41,-67.1,18.75,13.622727272727273
4.1875,48.39,58.62,-21.24,-9.39,-96.72,12.89,72.89,26.54,73.85,-70.28,17.13,10.243636363636362
4.203125,48.59,53.67,-31.11,-9.35,-107.43,13.29,75.22,26.93,52.09,-71.04,16.01,6.079090909090909
4.21875,50.07,45.75,-40.07,-9.52,-119.99,13.3,77.13,27.28,25.6,-67.23,14.82,1.5581818181818163
4.234375,53.05,34.98,-47.8,-9.69,-133.5,13.05,78.53,27.43,-2.17,-57.45,13.52,-2.731818181818181
4.25,57.37,22.23,-54.17,-9.51,-146.03,12.77,79.35,27.37,-27.65,-41.64,12.49,-6.129090909090909
4.265625,62.35,9.07,-59.25,-8.49,-154.82,12.66,79.66,27.22,-48.14,-21.41,12.1,-8.095454545454546
4.28125,66.91,-2.67,-63.33,-6.24,-156.96,12.81,79.71,27.21,-62.42,0.58,12.36,-8.367272727272729
4.296875,69.94,-11.55,-66.79,-2.68,-150.37,13.22,79.8,27.38,-70.91,21.36,12.84,-7.069090909090911
4.3125,70.59,-17.03,-69.98,1.85,-134.64,13.8,80.08,27.56,-75.09,38.75,12.91,-4.654545454545455
4.328125,68.55,-19.6,-73.07,6.69,-111.3,14.56,80.52,27.35,-76.72,51.79,11.98,-1.7499999999999984
4.34375,64.1,-20.44,-76.02,11.05,-83.36,15.5,80.83,26.33,-77.17,60.77,9.89,1.0436363636363633
4.359375,57.92,-20.82,-78.65,14.34,-54.33,16.64,80.68,24.24,-77.05,66.72,6.98,3.333636363636364
4.375,50.82,-21.59,-80.8,16.23,-27.15,17.88,79.75,21.18,-76.29,70.84,3.97,4.985454545454547
4.390625,43.46,-22.96,-82.49,16.76,-3.51,19.03,77.94,17.52,-74.35,74.06,1.6,6.096363636363637
4.40625,36.17,-24.59,-84.05,16.14,16.15,19.81,75.29,13.77,-70.62,76.91,0.34,6.847272727272727
4.421875,29.07,-25.92,-86.04,14.69,32.26,19.97,71.93,10.37,-64.6,79.74,0.09,7.414545454545453
4.4375,22.21,-26.49,-89.08,12.68,45.47,19.42,68.0,7.53,-56.06,82.81,0.32,7.891818181818182
4.453125,15.76,-26.08,-93.53,10.38,56.26,18.23,63.55,5.22,-45.16,86.39,0.27,8.299090909090909
4.46875,10.12,-24.79,-99.39,7.98,64.86,16.58,58.53,3.16,-32.51,90.62,-0.62,8.594545454545454
4.484375,5.83,-23.01,-106.13,5.7,71.35,14.7,52.83,1.03,-19.14,95.37,-2.42,8.737272727272728
4.5,3.35,-21.38,-113.05,3.73,75.94,12.81,46.33,-1.52,-6.34,100.15,-4.76,8.66
4.515625,2.83,-20.62,-119.47,2.23,78.99,11.05,38.94,-4.68,4.63,104.21,-6.97,8.285454545454543
4.53125,3.92,-21.28,-125.16,1.3,80.97,9.49,30.73,-8.48,12.93,106.86,-8.47,7.528181818181818
4.546875,5.89,-23.29,-130.5,0.92,82.3,8.13,21.86,-12.73,18.28,107.71,-9.05,6.319999999999997
4.5625,7.76,-25.66,-136.32,1.03,83.25,6.92,12.68,-17.08,21.05,106.87,-8.95,4.686363636363637
4.578125,8.71,-26.35,-143.59,1.47,83.9,5.76,3.62,-21.18,21.99,104.82,-8.62,2.7754545454545463
4.59375,8.41,-22.74,-153.01,2.13,84.24,4.61,-4.91,-24.76,21.93,102.24,-8.42,0.8836363636363637
4.609375,7.06,-12.49,-164.62,2.96,84.3,3.45,-12.66,-27.79,21.49,99.56,-8.35,-0.6445454545454553
4.625,5.33,5.49,-177.79,3.97,84.22,2.29,-19.67,-30.55,20.94,96.73,-8.02,-1.5509090909090901
4.640625,4.0,30.4,-191.61,5.22,84.23,1.09,-26.31,-33.55,20.17,93.07,-6.92,-1.837272727272728
4.65625,3.6,59.42,-205.2,6.73,84.52,-0.26,-33.16,-37.32,18.85,87.4,-4.68,-1.827272727272726
4.671875,4.13,88.38,-218.2,8.42,85.06,-1.93,-40.82,-42.27,16.48,78.5,-1.27,-2.1381818181818195
4.6875,5.09,112.7,-230.89,10.08,85.58,-4.04,-49.62,-48.4,12.67,65.55,2.93,-3.486363636363634
4.703125,5.54,128.52,-244.01,11.47,85.57,-6.56,-59.48,-55.22,7.13,48.62,7.43,-6.453636363636362
4.71875,4.44,133.52,-258.61,12.36,84.47,-9.32,-69.78,-61.75,-0.11,28.82,11.37,-11.326363636363636
4.734375,0.91,127.4,-275.83,12.67,81.91,-12.05,-79.44,-66.73,-8.67,8.1,14.2,-17.957272727272724
4.75,-5.6,111.8,-296.79,12.44,77.86,-14.52,-87.21,-68.97,-17.9,-11.08,15.7,-25.84272727272727
4.765625,-15.12,89.76,-322.21,11.84,72.66,-16.7,-91.96,-67.72,-27.11,-26.3,16.0,-34.260000000000005
4.78125,-27.05,64.95,-351.82,11.11,66.83,-18.72,-92.96,-62.93,-35.81,-35.72,15.35,-42.43363636363635
4.796875,-40.15,40.72,-383.57,10.4,60.94,-20.81,-90.12,-55.27,-43.91,-38.88,14.05,-49.690909090909095
4.8125,-52.72,19.45,-413.47,9.68,55.32,-23.21,-83.91,-45.89,-51.65,-37.17,12.31,-55.56909090909091
4.828125,-62.79,2.2,-436.15,8.79,49.95,-26.03,-75.21,-36.03,-59.19,-33.91,10.33,-59.82181818181818
4.84375,-68.69,-11.04,-446.49,7.54,44.57,-29.29,-65.02,-26.66,-66.23,-33.47,8.28,-62.40909090909091
4.859375,-69.42,-20.87,-441.43,5.79,38.77,-32.83,-54.24,-18.27,-71.71,-39.6,6.35,-63.405454545454546
4.875,-65.03,-27.99,-421.25,3.58,32.28,-36.4,-43.49,-10.85,-74.03,-53.53,4.79,-62.90181818181818
4.890625,-56.55,-32.96,-389.42,1.09,25.14,-39.5,-33.09,-4.16,-71.52,-72.86,3.76,-60.91545454545455
4.90625,-45.69,-36.18,-351.2,-1.44,17.64,-41.42,-23.15,2.04,-63.25,-92.13,3.28,-57.40909090909091
4.921875,-34.35,-38.05,-311.77,-3.77,10.3,-41.33,-13.68,7.83,-49.47,-104.94,3.22,-52.36454545454546
4.9375,-24.07,-39.04,-274.62,-5.84,3.52,-38.54,-4.71,13.1,-31.71,-106.49,3.42,-45.907272727272726
4.953125,-15.7,-39.58,-241.24,-7.7,-2.55,-32.87,3.58,17.66,-12.31,-95.29,3.69,-38.39181818181819
4.96875,-9.38,-39.88,-211.71,-9.46,-8.18,-24.87,10.87,21.36,6.37,-73.11,3.96,-30.36636363636364
4.984375,-4.73,-39.81,-185.72,-11.23,-13.87,-15.72,16.75,24.19,22.63,-43.56,4.15,-22.44727272727273
5.0,-1.14,-39.03,-163.19,-13.08,-20.12,-6.88,20.91,26.25,35.99,-10.49,4.26,-15.138181818181819
5.015625,1.92,-37.34,-144.21,-14.98,-27.25,0.42,23.26,27.7,47.01,22.55,4.24,-8.789090909090913
5.03125,4.79,-34.94,-128.61,-16.86,-35.14,5.58,24.09,28.65,57.07,51.65,4.03,-3.6081818181818237
5.046875,7.61,-32.6,-115.67,-18.64,-43.38,8.72,24.01,29.14,67.59,71.7,3.51,0.18090909090909124
5.0625,10.36,-31.46,-104.32,-20.31,-51.37,10.44,23.69,29.18,79.5,76.68,2.65,2.2763636363636377
5.078125,12.97,-32.56,-93.69,-21.89,-58.66,11.46,23.64,28.81,92.88,61.72,1.43,2.3736363636363618
5.09375,15.29,-36.42,-83.71,-23.4,-65.12,12.27,23.95,28.18,107.01,25.86,-0.06,0.35000000000000225
5.109375,17.16,-42.78,-75.09,-24.88,-71.13,13.02,24.39,27.5,120.68,-26.28,-1.78,-3.5627272727272725
5.125,18.39,-50.74,-68.91,-26.38,-77.51,13.6,24.55,26.98,132.86,-85.49,-3.71,-8.759999999999996
5.140625,18.8,-59.06,-65.94,-28.01,-85.28,13.88,24.13,26.65,143.16,-141.19,-5.92,-14.434545454545455
5.15625,18.38,-66.73,-66.08,-29.9,-95.38,13.86,23.06,26.35,152.07,-185.31,-8.46,-19.830909090909092
5.171875,17.3,-73.37,-68.25,-32.17,-108.15,13.67,21.51,25.71,160.81,-214.61,-11.39,-24.44909090909091
5.1875,15.93,-79.32,-70.85,-34.8,-122.96,13.55,19.79,24.32,170.89,-230.26,-14.66,-28.033636363636365
5.203125,14.76,-85.5,-72.52,-37.51,-137.95,13.75,18.14,21.94,183.63,-235.32,-18.11,-30.426363636363636
5.21875,14.2,-93.0,-72.76,-39.7,-150.31,14.36,16.71,18.56,199.83,-231.92,-21.52,-31.41363636363636
5.234375,14.45,-102.51,-72.15,-40.56,-156.89,15.33,15.51,14.5,219.57,-220.09,-24.58,-30.674545454545456
5.25,15.4,-113.89,-72.22,-39.32,-155.12,16.45,14.48,10.2,242.0,-198.65,-26.93,-27.96363636363636
5.265625,16.67,-125.97,-74.85,-35.51,-143.88,17.48,13.48,6.06,265.31,-167.34,-28.16,-23.337272727272726
5.28125,17.76,-136.65,-81.5,-29.17,-123.91,18.23,12.31,2.26,286.78,-128.4,-27.96,-17.295454545454547
5.296875,18.25,-143.43,-92.48,-20.82,-97.69,18.62,10.71,-1.26,303.25,-86.58,-26.1,-10.684545454545457
5.3125,17.95,-144.16,-106.42,-11.32,-68.6,18.69,8.4,-4.77,311.81,-47.29,-22.61,-4.392727272727269
5.328125,16.95,-137.75,-120.19,-1.66,-39.99,18.52,5.17,-8.61,310.61,-14.31,-17.75,0.9990909090909099
5.34375,15.55,-124.53,-129.34,7.33,-14.28,18.2,0.98,-12.93,299.3,11.66,-12.01,5.448181818181818
5.359375,14.05,-106.15,-129.3,15.05,7.34,17.73,-4.05,-17.72,278.95,32.74,-5.97,9.333636363636362
5.375,12.66,-85.15,-116.84,21.2,24.81,17.1,-9.68,-22.75,251.41,52.32,-0.23,13.168181818181818
5.390625,11.36,-64.15,-91.36,25.69,38.69,16.34,-15.69,-27.69,218.61,72.98,4.74,17.229090909090914
5.40625,9.96,-45.3,-55.45,28.59,49.64,15.59,-21.98,-32.26,182.13,95.08,8.56,21.323636363636364
5.421875,8.24,-29.96,-14.27,30.03,58.14,15.03,-28.62,-36.32,143.31,116.57,11.09,24.839999999999996
5.4375,6.14,-18.68,26.06,30.22,64.46,14.82,-35.82,-39.86,103.56,133.85,12.35,27.00909090909091
5.453125,3.76,-11.39,60.36,29.37,68.79,14.98,-43.81,-43.04,64.46,143.42,12.52,27.219999999999995
5.46875,1.33,-7.67,85.77,27.74,71.44,15.41,-52.74,-46.14,27.6,143.57,11.93,25.29454545454545
5.484375,-0.89,-6.91,102.13,25.63,72.89,15.91,-62.54,-49.49,-6.18,135.29,10.92,21.52363636363636
5.5,-2.87,-8.39,111.23,23.33,73.66,16.24,-72.75,-53.38,-37.33,122.11,9.8,16.513636363636365
5.515625,-4.74,-11.39,115.5,21.12,74.2,16.28,-82.5,-57.87,-67.64,108.82,8.78,10.96
5.53125,-6.78,-15.28,116.93,19.2,74.74,16.01,-90.58,-62.61,-99.9,99.49,7.97,5.380909090909089
5.546875,-9.26,-19.57,116.49,17.68,75.34,15.47,-95.62,-66.86,-137.17,95.63,7.4,-0.0427272727272744
5.5625,-12.31,-23.99,114.48,16.57,75.91,14.73,-96.44,-69.55,-181.8,95.55,7.04,-5.437272727272728
5.578125,-15.91,-28.45,111.01,15.89,76.4,13.81,-92.48,-69.7,-234.5,95.12,6.82,-11.090000000000002
5.59375,-19.88,-33.06,106.53,15.67,76.8,12.78,-83.95,-66.71,-293.2,89.83,6.59,-17.145454545454545
5.609375,-23.92,-37.84,101.92,15.95,77.2,11.69,-71.86,-60.63,-352.44,76.89,6.18,-23.35090909090909
5.625,-27.7,-42.55,98.16,16.74,77.63,10.64,-57.66,-52.19,-403.7,56.46,5.41,-28.978181818181817
5.640625,-30.96,-46.34,95.9,17.97,78.07,9.66,-42.77,-42.52,-437.33,31.27,4.22,-32.984545454545454
5.65625,-33.54,-47.76,95.2,19.47,78.31,8.74,-28.19,-32.79,-445.56,5.16,2.71,-34.38636363636363
5.671875,-35.44,-44.94,95.54,20.97,78.05,7.81,-14.36,-23.89,-425.66,-18.65,1.06,-32.68272727272727
5.6875,-36.88,-36.26,96.07,22.17,76.89,6.79,-1.27,-16.16,-381.47,-38.44,-0.6,-28.10545454545455
5.703125,-38.29,-21.14,96.06,22.83,74.51,5.67,11.16,-9.47,-322.38,-53.6,-2.29,-21.539999999999996
5.71875,-40.17,-0.59,95.04,22.77,70.68,4.48,22.84,-3.33,-260.03,-63.59,-4.19,-14.189999999999996
5.734375,-42.92,22.72,92.99,21.97,65.38,3.32,33.36,2.82,-204.32,-66.97,-6.52,-7.106363636363636
5.75,-46.6,45.27,90.11,20.52,58.8,2.32,42.16,9.49,-160.42,-61.52,-9.4,-0.8427272727272725
5.765625,-50.72,63.7,86.64,18.6,51.39,1.55,48.79,16.87,-128.45,-45.26,-12.81,4.572727272727273
5.78125,-54.27,75.9,82.7,16.43,43.76,0.99,53.16,24.84,-105.17,-17.88,-16.54,9.447272727272725
5.796875,-55.93,81.58,78.24,14.19,36.49,0.52,55.62,32.91,-86.72,18.37,-20.37,14.081818181818182
5.8125,-54.51,82.04,73.11,11.97,29.96,-0.0,56.83,40.43,-70.72,58.84,-24.14,18.528181818181817
5.828125,-49.4,79.32,67.11,9.77,24.17,-0.76,57.47,46.74,-56.66,97.74,-27.69,22.528181818181817
5.84375,-40.84,75.32,60.17,7.51,18.64,-1.82,58.1,51.41,-45.06,130.01,-30.77,25.697272727272722
5.859375,-29.87,71.08,52.31,5.1,12.72,-3.19,58.97,54.34,-36.03,152.72,-32.98,27.74272727272727
5.875,-18.0,66.75,43.66,2.52,5.8,-4.71,60.06,55.81,-28.64,165.67,-33.79,28.64818181818181
5.890625,-6.76,61.8,34.54,-0.17,-2.33,-6.24,61.21,56.35,-21.21,170.97,-32.73,28.675454545454542
5.90625,2.81,55.57,25.33,-2.8,-11.38,-7.64,62.2,56.53,-12.39,171.81,-29.56,28.225454545454546
5.921875,10.24,47.68,16.43,-5.22,-20.63,-8.83,62.81,56.82,-2.13,171.18,-24.5,27.622727272727275
5.9375,15.65,38.25,8.15,-7.33,-29.28,-9.83,62.85,57.46,7.86,171.23,-18.09,26.992727272727276
5.953125,19.34,28.04,0.59,-9.18,-36.8,-10.67,62.15,58.41,14.75,173.24,-11.05,26.256363636363634
5.96875,21.64,18.46,-6.39,-10.9,-43.11,-11.42,60.61,59.36,15.97,178.03,-4.0,25.295454545454547
5.984375,22.79,11.33,-13.12,-12.73,-48.66,-12.17,58.31,59.86,10.4,185.99,2.64,24.05818181818182
6.0,22.87,8.59,-20.09,-14.79,-54.22,-13.06,55.42,59.44,-0.89,196.61,8.65,22.593636363636367
6.015625,22.01,11.81,-27.83,-17.13,-60.62,-14.31,52.24,57.68,-15.1,207.69,13.94,20.943636363636365
6.03125,20.38,21.76,-37.0,-19.6,-68.66,-16.1,48.95,54.36,-28.82,215.21,18.39,18.98818181818182
6.046875,18.27,38.1,-48.27,-22.01,-78.83,-18.49,45.59,49.54,-39.65,214.21,21.82,16.38909090909091
6.0625,16.01,59.48,-62.03,-24.17,-91.18,-21.24,41.99,43.57,-46.96,200.79,24.03,12.753636363636362
6.078125,13.92,83.81,-77.91,-26.06,-104.98,-23.93,37.92,36.99,-51.91,174.09,24.94,7.898181818181819
6.09375,12.32,108.58,-94.27,-27.83,-118.64,-26.08,33.31,30.43,-56.5,137.23,24.64,2.1081818181818193
6.109375,11.44,131.26,-108.13,-29.8,-129.67,-27.44,28.26,24.41,-62.32,96.47,23.42,-3.827272727272728
6.125,11.43,149.52,-115.76,-32.27,-135.24,-28.1,23.11,19.15,-69.65,58.92,21.62,-8.842727272727272
6.140625,12.27,161.51,-113.87,-35.43,-132.94,-28.57,18.2,14.63,-77.38,29.98,19.62,-11.99818181818182
6.15625,13.82,166.15,-100.96,-39.15,-121.65,-29.55,13.71,10.59,-83.61,11.78,17.72,-12.831818181818182
6.171875,15.82,163.33,-78.08,-42.98,-102.09,-31.63,9.58,6.78,-86.72,3.26,16.09,-11.512727272727274
6.1875,17.96,154.02,-48.63,-46.24,-76.65,-34.98,5.52,3.06,-86.23,1.49,14.81,-8.715454545454545
6.203125,19.95,139.91,-17.2,-48.11,-48.68,-39.27,1.13,-0.47,-83.08,3.29,13.84,-5.335454545454547
6.21875,21.56,122.81,11.92,-47.9,-21.44,-43.61,-3.89,-3.53,-79.21,6.26,13.04,-2.1809090909090894
6.234375,22.61,104.06,35.99,-45.21,2.73,-46.79,-9.77,-5.86,-76.68,8.86,12.23,0.1972727272727271
6.25,22.91,84.26,54.19,-40.01,22.76,-47.65,-16.53,-7.32,-76.71,10.01,11.21,1.5563636363636368
6.265625,22.32,63.44,67.14,-32.64,38.72,-45.38,-24.03,-8.09,-79.15,8.76,9.89,1.9072727272727257
6.28125,20.81,41.76,76.0,-23.76,51.18,-39.83,-31.84,-8.58,-82.58,4.31,8.28,1.43181818181818
6.296875,18.48,19.97,81.67,-14.16,60.77,-31.52,-39.25,-9.32,-85.06,-3.53,6.49,0.41272727272727394
6.3125,15.7,-0.26,84.59,-4.65,67.86,-21.6,-45.28,-10.74,-85.05,-14.13,4.67,-0.8081818181818189
6.328125,12.9,-16.83,84.83,4.07,72.59,-11.44,-48.85,-12.99,-82.15,-26.13,2.85,-1.9227272727272717
6.34375,10.47,-27.86,82.59,11.41,75.09,-2.3,-49.13,-15.86,-77.27,-37.79,0.9,-2.7045454545454546
6.359375,8.57,-32.46,78.45,17.01,75.64,4.93,-45.73,-18.87,-72.12,-47.69,-1.44,-3.064545454545454
6.375,7.05,-31.12,73.39,20.7,74.8,9.92,-38.94,-21.4,-68.54,-55.29,-4.41,-3.0763636363636366
6.390625,5.62,-25.5,68.5,22.54,73.31,12.74,-29.55,-22.86,-67.78,-61.08,-8.14,-2.9272727272727277
6.40625,3.94,-17.92,64.67,22.8,71.85,13.74,-18.61,-22.88,-70.24,-66.5,-12.52,-2.8790909090909094
6.421875,1.84,-10.57,62.24,21.86,70.91,13.44,-7.14,-21.26,-75.37,-73.29,-17.18,-3.13818181818182
6.4375,-0.63,-5.05,61.03,20.12,70.69,12.35,4.11,-18.0,-81.75,-82.75,-21.67,-3.777272727272727
6.453125,-3.25,-2.17,60.42,17.92,71.09,10.97,14.73,-13.18,-87.08,-95.02,-25.5,-4.642727272727272
6.46875,-5.77,-2.12,59.74,15.5,71.86,9.73,24.6,-6.93,-88.32,-108.72,-28.24,-5.333636363636361
6.484375,-8.0,-4.74,58.46,13.06,72.78,8.91,33.69,0.49,-82.38,-121.17,-29.51,-5.31
6.5,-9.93,-9.74,56.33,10.79,73.65,8.63,41.98,8.68,-67.09,-129.27,-29.05,-4.0927272727272745
6.515625,-11.74,-16.76,53.25,8.92,74.33,8.86,49.31,16.94,-42.24,-130.6,-26.75,-1.4981818181818172
6.53125,-13.73,-25.39,49.21,7.71,74.65,9.47,55.5,24.42,-10.02,-124.26,-22.68,2.2618181818181835
6.546875,-16.17,-35.12,44.12,7.36,74.33,10.38,60.33,30.16,25.43,-111.28,-17.16,6.579999999999999
6.5625,-19.2,-45.66,37.86,7.95,73.05,11.51,63.71,33.46,59.47,-94.15,-10.7,10.663636363636364
6.578125,-22.69,-57.02,30.28,9.38,70.51,12.83,65.69,34.03,88.55,-75.91,-3.9,13.795454545454545
6.59375,-26.27,-69.68,21.41,11.39,66.59,14.3,66.48,32.17,111.27,-59.14,2.67,15.562727272727274
6.609375,-29.5,-84.36,11.37,13.63,61.35,15.79,66.34,28.66,128.27,-45.36,8.57,15.887272727272727
6.625,-32.01,-101.43,0.38,15.76,55.07,17.12,65.57,24.49,141.22,-34.93,13.6,14.985454545454546
6.640625,-33.74,-120.37,-11.31,17.5,48.06,18.08,64.43,20.64,151.44,-27.45,17.65,13.175454545454544
6.65625,-34.96,-139.37,-23.37,18.66,40.63,18.64,63.1,17.78,158.95,-22.3,20.68,10.767272727272724
6.671875,-36.18,-155.51,-35.46,19.18,32.97,18.84,61.74,16.18,162.64,-18.96,22.63,8.006363636363636
6.6875,-37.94,-165.58,-47.17,19.1,25.24,18.84,60.44,15.84,161.15,-17.15,23.41,5.107272727272728
6.703125,-40.63,-167.07,-58.14,18.46,17.57,18.76,59.19,16.53,153.99,-16.68,23.06,2.2763636363636386
6.71875,-44.33,-159.05,-68.19,17.35,10.15,18.6,57.91,17.94,142.16,-17.3,21.73,-0.27545454545454623
6.734375,-48.8,-142.55,-77.39,15.82,3.11,18.24,56.46,19.75,127.92,-18.63,19.78,-2.3900000000000006
6.75,-53.41,-120.13,-86.21,13.93,-3.5,17.56,54.67,21.54,113.92,-20.19,17.67,-4.013636363636362
6.765625,-57.3,-95.09,-95.33,11.75,-9.86,16.54,52.42,22.88,102.15,-21.55,15.85,-5.230909090909088
6.78125,-59.44,-70.64,-105.57,9.39,-16.29,15.35,49.66,23.34,93.31,-22.45,14.57,-6.25181818181818
6.796875,-58.84,-49.11,-117.75,6.99,-23.16,14.22,46.38,22.59,86.67,-22.85,13.84,-7.365454545454546
6.8125,-54.89,-31.71,-132.34,4.63,-30.64,13.36,42.69,20.49,80.88,-22.87,13.45,-8.813636363636366
6.828125,-47.51,-18.65,-149.28,2.39,-38.64,12.79,38.74,17.12,74.73,-22.59,13.14,-10.705454545454545
6.84375,-37.35,-9.45,-167.58,0.21,-46.77,12.42,34.7,12.82,68.0,-21.87,12.74,-12.92090909090909
6.859375,-25.58,-3.39,-185.21,-2.03,-54.6,12.04,30.77,8.11,61.53,-20.23,12.2,-15.126363636363637
6.875,-13.64,0.18,-199.29,-4.46,-61.82,11.55,27.05,3.59,56.81,-16.98,11.55,-16.86
6.890625,-2.78,1.63,-206.87,-7.14,-68.46,10.92,23.52,-0.21,55.26,-11.42,10.81,-17.703636363636363
6.90625,6.26,1.1,-205.86,-10.01,-74.92,10.18,19.97,-2.97,57.49,-3.36,9.92,-17.472727272727273
6.921875,13.28,-1.35,-195.98,-12.9,-81.87,9.38,16.13,-4.69,63.06,6.7,8.74,-16.318181818181817
6.9375,18.55,-5.5,-178.95,-15.58,-90.07,8.48,11.8,-5.73,70.59,17.48,7.13,-14.70909090909091
6.953125,22.51,-10.84,-157.96,-17.86,-100.2,7.41,6.99,-6.71,78.22,27.33,5.0,-13.28272727272727
6.96875,25.52,-16.6,-136.45,-19.64,-112.59,6.15,1.95,-8.38,84.15,34.76,2.39,-12.612727272727271
6.984375,27.77,-22.07,-116.98,-20.93,-126.95,4.8,-2.94,-11.35,86.94,38.88,-0.64,-13.04272727272727
7.0,29.31,-26.87,-100.5,-21.9,-142.12,3.52,-7.42,-16.0,85.68,39.66,-4.04,-14.607272727272727
7.015625,30.17,-31.04,-86.42,-22.82,-156.0,2.49,-11.5,-22.31,79.94,37.53,-7.78,-17.067272727272726
7.03125,30.39,-34.91,-73.31,-24.03,-165.82,1.72,-15.52,-29.86,69.71,33.05,-11.85,-20.039090909090906
7.046875,30.1,-38.72,-59.59,-25.85,-168.78,1.06,-20.03,-37.89,55.34,26.44,-16.11,-23.093636363636367
7.0625,29.45,-42.33,-44.12,-28.49,-162.89,0.27,-25.49,-45.38,37.61,17.55,-20.28,-25.827272727272717
7.078125,28.54,-45.14,-26.32,-32.0,-147.74,-0.9,-32.13,-51.21,17.72,6.07,-23.88,-27.908181818181824
7.09375,27.45,-46.54,-5.96,-36.11,-124.72,-2.54,-39.69,-54.4,-2.73,-8.11,-26.39,-29.067272727272726
7.109375,26.24,-46.25,16.97,-40.29,-96.71,-4.53,-47.45,-54.33,-22.06,-24.63,-27.38,-29.129090909090905
7.125,25.03,-44.79,42.38,-43.72,-67.15,-6.61,-54.36,-50.92,-38.81,-42.61,-26.62,-28.016363636363636
7.140625,23.96,-43.36,69.9,-45.55,-39.11,-8.53,-59.26,-44.77,-52.06,-60.73,-24.11,-25.783636363636365
7.15625,23.23,-43.33,98.78,-45.05,-14.5,-10.16,-61.14,-36.9,-61.61,-77.36,-20.07,-22.55545454545454
7.171875,22.92,-45.64,127.83,-41.88,6.16,-11.5,-59.44,-28.45,-67.89,-90.65,-14.82,-18.487272727272728
7.1875,23.07,-50.27,155.63,-36.11,23.32,-12.78,-54.22,-20.4,-71.78,-98.75,-8.73,-13.72909090909091
7.203125,23.58,-56.18,180.79,-28.28,37.91,-14.17,-46.09,-13.26,-74.3,-100.11,-2.15,-8.387272727272729
7.21875,24.29,-61.85,202.26,-19.16,50.68,-15.82,-36.07,-7.11,-76.48,-93.98,4.56,-2.6072727272727283
7.234375,24.98,-66.05,219.37,-9.59,61.91,-17.71,-25.3,-1.72,-79.28,-80.87,11.02,3.3418181818181822
7.25,25.42,-68.52,231.88,-0.36,71.42,-19.7,-14.68,3.21,-83.54,-62.66,16.79,9.023636363636363
7.265625,25.41,-70.24,239.72,7.94,78.88,-21.62,-4.75,7.9,-90.02,-42.27,21.44,13.85363636363636
7.28125,24.84,-73.11,242.97,14.85,84.08,-23.34,4.38,12.4,-99.21,-22.84,24.61,17.23909090909091
7.296875,23.72,-79.24,241.78,20.08,87.19,-24.87,12.86,16.63,-111.04,-6.86,26.18,18.766363636363636
7.3125,22.16,-90.0,236.43,23.43,88.67,-26.32,20.84,20.47,-124.6,4.46,26.28,18.347272727272728
7.328125,20.36,-105.42,227.48,24.93,89.14,-27.92,28.31,23.77,-137.98,11.27,25.29,16.293636363636363
7.34375,18.51,-123.99,215.75,24.8,89.12,-29.88,35.08,26.39,-148.58,14.63,23.66,13.226363636363637
7.359375,16.74,-143.0,202.26,23.4,88.91,-32.43,40.79,28.19,-153.75,15.97,21.84,9.901818181818184
7.375,15.06,-159.18,188.04,21.22,88.68,-35.65,45.22,29.11,-151.63,16.48,20.16,7.046363636363637
7.390625,13.41,-169.62,173.9,18.71,88.46,-39.52,48.28,29.2,-141.83,16.99,18.77,5.1590909090909065
7.40625,11.69,-172.42,160.26,16.23,88.3,-43.81,50.16,28.62,-125.68,17.98,17.74,4.460909090909087
7.421875,9.84,-167.05,147.1,14.06,88.27,-48.03,51.29,27.63,-105.78,19.84,17.02,4.926363636363635
7.4375,7.82,-154.35,134.15,12.39,88.39,-51.44,52.16,26.51,-85.15,22.95,16.57,6.363636363636366
7.453125,5.69,-136.11,121.05,11.35,88.48,-53.1,53.14,25.45,-66.24,27.64,16.31,8.514545454545454
7.46875,3.51,-114.47,107.63,11.05,88.13,-52.1,54.39,24.5,-50.33,34.02,16.08,11.128181818181817
7.484375,1.41,-91.24,94.08,11.53,86.86,-47.96,55.86,23.62,-37.38,41.81,15.76,14.031818181818181
7.5,-0.58,-67.58,80.83,12.74,84.23,-40.84,57.32,22.67,-26.44,50.4,15.22,17.08818181818182
7.515625,-2.42,-43.88,68.44,14.51,80.13,-31.66,58.54,21.5,-16.31,59.0,14.39,20.203636363636363
7.53125,-4.18,-20.11,57.27,16.59,74.71,-21.85,59.37,20.0,-6.12,66.93,13.24,23.259090909090908
7.546875,-5.95,3.65,47.3,18.72,68.35,-12.88,59.74,18.06,4.38,73.91,11.8,26.098181818181818
7.5625,-7.85,26.6,38.06,20.68,61.46,-5.74,59.58,15.59,14.88,80.06,10.09,28.49181818181818
7.578125,-9.93,46.86,28.77,22.29,54.31,-0.68,58.78,12.58,24.79,85.68,8.11,30.141818181818188
7.59375,-12.19,61.66,18.45,23.4,47.06,2.7,57.19,9.06,33.69,90.99,5.86,30.715454545454545
7.609375,-14.58,68.02,6.29,23.87,39.78,5.07,54.74,5.17,41.47,95.92,3.4,29.922727272727272
7.625,-16.98,64.03,-7.98,23.59,32.57,6.97,51.49,1.15,48.32,100.02,0.8,27.634545454545457
7.640625,-19.35,50.16,-23.68,22.51,25.54,8.57,47.69,-2.74,54.57,102.77,-1.85,24.017272727272726
7.65625,-21.65,30.16,-38.92,20.68,18.78,9.74,43.76,-6.32,60.39,103.74,-4.46,19.62727272727273
7.671875,-23.92,10.56,-50.86,18.29,12.23,10.29,40.07,-9.63,65.72,102.89,-7.04,15.327272727272726
7.6875,-26.16,-1.03,-56.37,15.63,5.67,10.23,36.93,-12.95,70.33,100.54,-9.62,12.109090909090911
7.703125,-28.38,1.38,-53.12,12.93,-1.24,9.82,34.44,-16.74,74.05,97.3,-12.34,10.736363636363636
7.71875,-30.56,19.84,-40.47,10.33,-8.73,9.45,32.52,-21.46,77.0,93.88,-15.34,11.496363636363638
7.734375,-32.73,51.39,-19.86,7.82,-16.83,9.48,31.05,-27.35,79.55,90.76,-18.63,14.059090909090912
7.75,-35.02,89.09,5.71,5.24,-25.28,10.05,29.78,-34.21,82.13,88.14,-22.06,17.597272727272728
7.765625,-37.66,124.57,32.67,2.43,-33.63,11.11,28.49,-41.38,84.85,85.75,-25.26,21.085454545454546
7.78125,-40.89,150.98,58.04,-0.69,-41.48,12.53,26.87,-47.76,87.34,82.85,-27.61,23.65272727272727
7.796875,-44.72,164.94,80.24,-4.11,-48.66,14.19,24.66,-52.16,88.8,78.45,-28.46,24.833636363636366
7.8125,-48.76,167.05,99.03,-7.7,-55.36,15.97,21.66,-53.58,88.38,71.62,-27.36,24.63181818181818
7.828125,-52.14,160.62,115.11,-11.29,-62.11,17.77,17.9,-51.59,85.5,61.91,-24.16,23.41090909090909
7.84375,-53.66,149.87,129.35,-14.72,-69.67,19.43,13.57,-46.41,80.23,49.76,-19.15,21.69090909090909
7.859375,-52.18,138.29,142.33,-17.85,-78.79,20.73,8.93,-38.84,73.2,36.68,-12.86,19.967272727272725
7.875,-47.06,128.08,154.14,-20.6,-90.07,21.45,4.18,-30.05,65.46,24.94,-5.95,18.592727272727274
7.890625,-38.49,120.17,164.55,-22.96,-103.6,21.46,-0.57,-21.16,58.13,16.98,1.01,17.774545454545457
7.90625,-27.47,114.73,173.34,-25.02,-118.8,20.75,-5.36,-12.98,52.11,14.54,7.6,17.585454545454542
7.921875,-15.51,111.59,180.42,-26.99,-134.18,19.49,-10.29,-5.86,47.79,18.16,13.46,18.007272727272724
7.9375,-4.14,110.26,185.98,-29.21,-147.42,17.89,-15.4,0.31,44.98,26.92,18.31,18.952727272727273
7.953125,5.57,109.92,190.36,-32.04,-155.76,16.22,-20.69,5.81,42.92,38.92,21.9,20.284545454545462
7.96875,13.16,109.44,193.87,-35.74,-156.75,14.73,-26.05,10.94,40.44,51.93,24.07,21.82181818181818
7.984375,18.79,107.64,196.61,-40.28,-149.08,13.58,-31.17,15.77,36.31,64.14,24.84,23.377272727272725
8.0,22.88,103.55,198.45,-45.25,-133.07,12.81,-35.5,20.19,29.52,74.56,24.43,24.779090909090908
8.015625,25.92,96.74,199.08,-49.85,-110.66,12.32,-38.33,23.97,19.62,83.02,23.23,25.914545454545454
8.03125,28.21,87.27,198.24,-53.0,-84.8,11.89,-38.91,26.88,6.9,89.89,21.65,26.74727272727273
8.046875,29.84,75.53,195.87,-53.66,-58.43,11.25,-36.69,28.84,-7.87,95.61,20.03,27.301818181818188
8.0625,30.81,61.89,192.14,-51.14,-33.7,10.2,-31.66,29.86,-23.61,100.44,18.62,27.62272727272727
8.078125,31.1,46.57,187.32,-45.29,-11.58,8.81,-24.35,30.08,-39.43,104.36,17.54,27.73909090909091
8.09375,30.77,29.82,181.52,-36.58,7.93,7.3,-15.73,29.67,-54.84,107.21,16.88,27.63181818181818
8.109375,29.92,12.22,174.56,-25.94,25.26,6.03,-6.84,28.82,-69.9,108.86,16.69,27.243636363636366
8.125,28.75,-4.98,165.93,-14.51,40.72,5.22,1.54,27.7,-85.16,109.42,16.9,26.50272727272727
8.140625,27.44,-19.88,155.09,-3.37,54.25,4.89,9.1,26.5,-101.35,109.24,17.38,25.39
8.15625,26.11,-30.31,141.72,6.69,65.54,4.76,15.88,25.36,-118.91,108.8,17.86,23.95454545454546
8.171875,24.86,-34.41,126.01,15.2,74.28,4.44,22.03,24.38,-137.57,108.51,18.04,22.342727272727274
8.1875,23.74,-31.28,108.65,21.94,80.39,3.61,27.6,23.55,-155.97,108.54,17.72,20.77181818181818
8.203125,22.8,-21.22,90.7,26.87,84.1,2.13,32.39,22.71,-171.72,108.78,16.84,19.489090909090912
8.21875,22.09,-5.73,73.3,30.05,85.91,0.12,36.03,21.62,-181.92,108.92,15.51,18.718181818181815
8.234375,21.69,13.02,57.35,31.6,86.47,-2.16,38.21,19.99,-184.0,108.59,13.91,18.606363636363632
8.25,21.59,32.56,43.4,31.67,86.44,-4.44,38.79,17.64,-176.61,107.59,12.17,19.16363636363636
8.265625,21.76,50.69,31.58,30.51,86.33,-6.54,37.99,14.56,-160.22,105.83,10.29,20.252727272727274
8.28125,22.07,65.68,21.63,28.43,86.49,-8.42,36.33,10.92,-136.96,103.32,8.2,21.608181818181816
8.296875,22.3,76.4,13.09,25.83,87.04,-10.11,34.48,7.01,-110.02,100.02,5.85,22.899090909090912
8.3125,22.29,82.39,5.45,23.19,87.89,-11.67,33.01,3.13,-82.59,95.76,3.33,23.834545454545456
8.328125,21.92,83.8,-1.76,20.94,88.82,-13.17,32.21,-0.54,-57.03,90.23,0.82,24.203636363636363
8.34375,21.19,81.41,-8.83,19.42,89.59,-14.7,31.98,-3.99,-34.41,83.14,-1.43,23.94272727272727
8.359375,20.19,76.36,-15.82,18.78,89.97,-16.31,31.88,-7.44,-14.62,74.43,-3.33,23.099090909090904
8.375,19.05,69.92,-22.63,18.95,89.76,-18.01,31.38,-11.21,3.11,64.38,-5.03,21.788181818181815
8.390625,17.84,63.12,-29.08,19.77,88.79,-19.75,30.11,-15.64,19.65,53.68,-6.83,20.150909090909092
8.40625,16.59,56.54,-34.95,21.06,86.86,-21.44,28.01,-20.88,35.59,43.27,-9.11,18.321818181818184
8.421875,15.27,50.31,-40.16,22.66,83.79,-23.02,25.23,-26.72,51.11,34.06,-12.07,16.40545454545455
8.4375,13.86,44.16,-44.75,24.46,79.45,-24.54,22.01,-32.56,66.14,26.61,-15.64,14.472727272727276
8.453125,12.34,37.78,-48.93,26.33,73.85,-26.21,18.49,-37.43,80.53,20.89,-19.51,12.557272727272727
8.46875,10.72,31.0,-53.04,28.05,67.21,-28.36,14.65,-40.24,94.19,16.22,-23.2,10.654545454545453
8.484375,9.01,23.97,-57.44,29.36,59.88,-31.34,10.39,-40.08,107.01,11.44,-26.24,8.723636363636365
8.5,7.21,17.08,-62.5,30.01,52.28,-35.33,5.73,-36.65,118.79,5.34,-28.21,6.704545454545457
8.515625,5.33,10.88,-68.34,29.87,44.77,-40.15,0.82,-30.35,129.05,-2.91,-28.8,4.560909090909093
8.53125,3.37,5.84,-74.75,28.93,37.64,-45.16,-3.98,-22.23,137.12,-13.39,-27.79,2.3272727272727276
8.546875,1.38,2.22,-80.91,27.32,31.0,-49.36,-8.25,-13.62,142.29,-25.35,-25.12,0.14545454545454461
8.5625,-0.58,0.05,-85.49,25.19,24.84,-51.59,-11.62,-5.64,144.19,-37.32,-20.89,-1.714545454545455
8.578125,-2.47,-0.95,-86.75,22.65,19.0,-50.9,-13.93,1.11,143.01,-47.33,-15.38,-2.9036363636363642
8.59375,-4.26,-1.25,-83.13,19.77,13.24,-46.86,-15.25,6.65,139.66,-53.38,-9.03,-3.0763636363636375
8.609375,-5.97,-1.51,-73.72,16.63,7.25,-39.74,-15.95,11.41,135.42,-53.81,-2.4,-2.0354545454545474
8.625,-7.66,-2.46,-58.8,13.36,0.75,-30.47,-16.6,15.87,131.52,-47.77,3.96,0.15454545454545474
8.640625,-9.38,-4.71,-39.85,10.1,-6.4,-20.42,-17.86,20.32,128.66,-35.52,9.58,3.1381818181818173
8.65625,-11.2,-8.53,-19.16,6.94,-14.08,-11.01,-20.25,24.67,126.68,-18.57,14.13,6.329090909090911
8.671875,-13.18,-13.81,0.83,3.88,-21.98,-3.33,-23.91,28.58,124.68,0.65,17.47,9.08
8.6875,-15.39,-19.96,18.2,0.79,-29.62,2.1,-28.53,31.61,121.44,19.41,19.61,10.878181818181817
8.703125,-17.85,-26.16,31.91,-2.49,-36.62,5.35,-33.35,33.46,115.89,35.47,20.7,11.482727272727272
8.71875,-20.47,-31.74,41.86,-6.03,-42.89,6.91,-37.46,34.01,107.57,47.64,20.97,10.942727272727272
8.734375,-23.06,-36.44,48.53,-9.69,-48.72,7.41,-40.19,33.37,96.79,55.9,20.65,9.504545454545456
8.75,-25.4,-40.6,52.68,-13.24,-54.76,7.39,-41.36,31.78,84.44,61.0,19.98,7.446363636363637
8.765625,-27.3,-45.03,55.09,-16.43,-61.85,7.18,-41.44,29.58,71.63,63.89,19.14,4.950909090909092
8.78125,-28.76,-50.75,56.35,-19.14,-70.74,6.91,-41.41,27.14,59.29,65.19,18.26,2.0309090909090903
8.796875,-30.01,-58.55,56.89,-21.47,-81.78,6.59,-42.5,24.83,47.92,65.14,17.45,-1.408181818181818
8.8125,-31.47,-68.63,56.9,-23.67,-94.66,6.25,-45.83,22.94,37.49,63.89,16.77,-5.456363636363637
8.828125,-33.63,-80.39,56.42,-26.08,-108.23,5.98,-52.02,21.63,27.55,61.78,16.26,-10.066363636363636
8.84375,-36.73,-92.33,55.45,-28.93,-120.56,5.94,-60.93,20.85,17.52,59.43,15.83,-14.95090909090909
8.859375,-40.61,-102.32,54.09,-32.38,-129.21,6.27,-71.51,20.3,6.88,57.55,15.42,-19.592727272727274
8.875,-44.67,-107.93,52.7,-36.39,-131.86,7.09,-81.93,19.57,-4.61,56.44,14.93,-23.33272727272728
8.890625,-47.88,-107.08,51.87,-40.81,-126.97,8.37,-89.89,18.23,-16.86,55.88,14.32,-25.529090909090908
8.90625,-49.11,-98.66,52.31,-45.27,-114.27,10.04,-93.23,16.01,-29.51,55.19,13.66,-25.712727272727264
8.921875,-47.48,-82.92,54.57,-49.19,-94.95,11.93,-90.55,12.89,-41.98,53.75,13.04,-23.717272727272732
8.9375,-42.63,-61.46,58.75,-51.83,-71.33,13.94,-81.72,9.1,-53.76,51.27,12.52,-19.74090909090909
8.953125,-34.84,-36.83,64.48,-52.34,-46.16,15.95,-67.92,4.99,-64.52,47.95,12.03,-14.291818181818183
8.96875,-25.01,-11.82,70.95,-50.04,-21.9,17.9,-51.32,0.92,-74.23,44.2,11.41,-8.085454545454546
8.984375,-14.35,11.25,77.17,-44.67,-0.21,19.74,-34.41,-2.89,-83.16,40.2,10.42,-1.9009090909090907
9.0,-4.08,30.93,82.27,-36.46,18.24,21.36,-19.39,-6.37,-91.82,35.75,8.94,3.579090909090908
9.015625,4.83,46.75,85.63,-26.17,33.51,22.64,-7.63,-9.64,-100.69,30.32,7.0,7.868181818181816
9.03125,11.86,58.82,87.08,-14.85,46.01,23.37,0.4,-12.95,-109.92,23.31,4.79,10.72
9.046875,16.86,67.58,86.93,-3.59,56.11,23.36,4.94,-16.62,-118.91,14.45,2.58,12.153636363636364
9.0625,20.05,73.4,85.81,6.73,64.01,22.54,6.67,-20.98,-126.16,3.8,0.56,12.402727272727276
9.078125,21.81,76.57,84.51,15.54,69.77,21.06,6.35,-26.19,-129.31,-8.3,-1.24,11.87
9.09375,22.56,77.35,83.78,22.51,73.45,19.25,4.76,-32.08,-125.79,-21.36,-2.97,11.04181818181818
9.109375,22.69,76.12,84.18,27.58,75.34,17.52,2.59,-37.97,-113.67,-34.82,-4.82,10.430909090909092
9.125,22.48,73.43,85.93,30.78,75.92,16.2,0.36,-42.8,-92.61,-47.99,-6.97,10.43
9.140625,22.06,69.91,88.84,32.3,75.79,15.37,-1.63,-45.38,-64.25,-60.04,-9.42,11.231818181818182
9.15625,21.43,66.09,92.05,32.42,75.51,14.81,-3.38,-44.81,-32.0,-70.19,-12.13,12.70909090909091
9.171875,20.55,62.27,93.97,31.53,75.44,14.17,-5.25,-40.9,-0.09,-78.06,-14.96,14.424545454545454
9.1875,19.45,58.45,92.39,30.04,75.76,13.15,-7.76,-34.23,27.73,-83.87,-17.84,15.751818181818182
9.203125,18.22,54.47,84.96,28.32,76.44,11.69,-11.33,-25.95,49.12,-88.62,-20.71,16.055454545454545
9.21875,17.07,50.26,70.06,26.68,77.37,9.96,-16.02,-17.33,63.55,-93.73,-23.5,14.942727272727273
9.234375,16.19,45.9,47.58,25.35,78.37,8.25,-21.36,-9.33,71.98,-100.55,-26.02,12.396363636363635
9.25,15.7,41.76,19.2,24.46,79.28,6.8,-26.55,-2.33,76.02,-109.82,-27.91,8.782727272727271
9.265625,15.6,38.2,-11.97,24.12,79.84,5.64,-30.75,3.81,77.18,-121.28,-28.69,4.700000000000002
9.28125,15.8,35.4,-42.4,24.36,79.8,4.56,-33.48,9.45,76.49,-133.58,-27.88,0.7745454545454552
9.296875,16.21,33.08,-69.19,25.16,78.88,3.26,-34.86,14.86,74.55,-144.57,-25.18,-2.527272727272728
9.3125,16.77,30.64,-90.68,26.38,76.86,1.57,-35.58,20.07,71.82,-151.81,-20.64,-4.963636363636367
9.328125,17.38,27.26,-106.52,27.86,73.68,-0.53,-36.61,24.81,68.85,-153.27,-14.63,-6.52
9.34375,17.96,22.29,-117.06,29.39,69.4,-2.85,-38.73,28.72,66.37,-148.0,-7.82,-7.302727272727271
9.359375,18.34,15.48,-122.92,30.79,64.22,-5.14,-42.15,31.54,65.06,-136.46,-0.93,-7.4700000000000015
9.375,18.29,7.03,-124.68,31.9,58.41,-7.17,-46.5,33.22,65.28,-120.45,5.39,-7.207272727272729
9.390625,17.62,-2.48,-123.01,32.57,52.23,-8.93,-51.07,33.87,66.84,-102.62,10.65,-6.757272727272727
9.40625,16.35,-12.32,-119.01,32.71,45.95,-10.47,-55.2,33.71,69.1,-85.61,14.59,-6.381818181818182
9.421875,14.64,-21.82,-114.16,32.23,39.68,-11.92,-58.6,32.93,71.28,-71.32,17.11,-6.359090909090909
9.4375,12.78,-30.52,-110.02,31.1,33.5,-13.34,-61.41,31.59,72.79,-60.51,18.31,-6.884545454545454
9.453125,11.06,-38.28,-107.52,29.34,27.36,-14.76,-63.96,29.75,73.52,-52.83,18.37,-7.995454545454544
9.46875,9.64,-45.36,-106.49,27.08,21.21,-16.21,-66.54,27.47,73.84,-47.38,17.57,-9.56090909090909
9.484375,8.5,-52.36,-105.74,24.47,15.04,-17.86,-69.21,25.01,74.33,-43.22,16.28,-11.341818181818178
9.5,7.48,-60.12,-103.45,21.66,8.95,-20.01,-71.88,22.69,75.43,-39.78,14.9,-13.102727272727272
9.515625,6.38,-69.49,-98.15,18.82,3.04,-22.97,-74.45,20.85,77.17,-36.94,13.75,-14.726363636363637
9.53125,5.04,-80.76,-89.42,15.99,-2.64,-26.89,-76.82,19.6,79.1,-34.79,13.04,-16.231818181818184
9.546875,3.4,-93.36,-78.06,13.19,-8.2,-31.58,-78.74,18.72,80.48,-33.32,12.83,-17.69454545454545
9.5625,1.53,-105.67,-65.83,10.34,-13.91,-36.57,-79.6,17.75,80.62,-32.24,12.99,-19.14454545454545
9.578125,-0.43,-115.27,-54.69,7.36,-20.08,-41.28,-78.35,16.14,79.25,-30.99,13.36,-20.452727272727273
9.59375,-2.35,-119.59,-46.07,4.16,-26.92,-45.39,-73.81,13.53,76.66,-29.03,13.73,-21.37090909090909
9.609375,-4.13,-116.71,-40.48,0.76,-34.35,-49.02,-65.23,9.88,73.6,-26.16,13.97,-21.62454545454545
9.625,-5.8,-105.99,-37.63,-2.77,-42.06,-52.8,-52.78,5.5,71.09,-22.66,14.02,-21.08
9.640625,-7.44,-88.22,-36.84,-6.29,-49.57,-57.57,-37.68,0.88,69.98,-19.19,13.89,-19.822727272727274
9.65625,-9.21,-65.37,-37.53,-9.64,-56.51,-63.92,-21.71,-3.49,70.71,-16.49,13.6,-18.141818181818184
9.671875,-11.25,-39.92,-39.35,-12.69,-62.81,-71.87,-6.55,-7.3,73.11,-14.9,13.1,-16.402727272727272
9.6875,-13.58,-14.26,-42.06,-15.42,-68.76,-80.65,6.81,-10.52,76.53,-14.27,12.33,-14.89545454545455
9.703125,-16.16,9.76,-45.22,-17.84,-75.1,-88.94,18.13,-13.34,79.99,-14.0,11.25,-13.770000000000003
9.71875,-18.82,30.98,-48.04,-20.04,-82.71,-95.27,27.58,-16.11,82.57,-13.49,9.87,-13.043636363636365
9.734375,-21.39,48.76,-49.41,-22.19,-92.45,-98.55,35.26,-19.23,83.74,-12.55,8.3,-12.70090909090909
9.75,-23.7,62.81,-48.45,-24.47,-104.65,-98.41,41.0,-23.04,83.58,-11.51,6.7,-12.739999999999998
9.765625,-25.66,73.09,-44.82,-27.14,-118.75,-95.29,44.49,-27.64,82.73,-11.17,5.14,-13.183636363636365
9.78125,-27.32,79.7,-39.04,-30.4,-133.06,-90.23,45.64,-32.84,82.12,-12.35,3.61,-14.015454545454544
9.796875,-28.81,82.89,-32.32,-34.27,-144.98,-84.5,44.84,-38.1,82.51,-15.51,2.03,-15.110909090909091
9.8125,-30.42,83.1,-26.16,-38.51,-151.59,-79.22,42.88,-42.59,84.1,-20.56,0.36,-16.237272727272728
9.828125,-32.47,80.88,-21.73,-42.47,-150.5,-75.18,40.65,-45.47,86.38,-26.87,-1.34,-17.101818181818185
9.84375,-35.2,76.82,-19.56,-45.28,-140.77,-72.82,38.67,-46.06,88.29,-33.59,-2.92,-17.492727272727276
9.859375,-38.69,71.56,-19.43,-45.99,-123.16,-72.35,36.99,-44.07,88.62,-39.91,-4.25,-17.334545454545452
9.875,-42.7,65.59,-20.61,-43.91,-100.02,-73.94,35.21,-39.67,86.48,-45.31,-5.36,-16.74909090909091
9.890625,-46.67,59.31,-22.32,-38.82,-74.41,-77.75,32.89,-33.39,81.66,-49.6,-6.5,-15.963636363636363
9.90625,-49.74,52.97,-24.03,-31.06,-49.22,-83.91,29.83,-26.02,74.69,-52.93,-8.03,-15.222727272727274
9.921875,-50.98,46.69,-25.64,-21.46,-26.4,-92.38,26.21,-18.34,66.76,-55.68,-10.22,-14.676363636363636
9.9375,-49.62,40.62,-27.38,-11.03,-6.74,-102.81,22.41,-10.95,59.42,-58.44,-13.15,-14.333636363636362
9.953125,-45.28,34.97,-29.54,-0.81,9.98,-114.54,18.82,-4.18,54.16,-61.86,-16.56,-14.076363636363634
9.96875,-38.15,30.11,-32.3,8.41,24.42,-126.69,15.61,1.94,51.94,-66.51,-19.98,-13.745454545454544
9.984375,-28.93,26.38,-35.49,16.1,37.19,-138.4,12.59,7.57,52.82,-72.63,-22.86,-13.241818181818184
10.0,-18.67,23.95,-38.7,22.07,48.62,-149.08,9.38,12.92,55.68,-79.76,-24.74,-12.57545454545455
10.015625,-8.49,22.6,-41.44,26.31,58.61,-158.68,5.55,18.08,58.45,-86.7,-25.28,-11.908181818181818
10.03125,0.66,21.65,-43.38,28.97,66.92,-167.77,0.87,22.97,58.64,-91.62,-24.34,-11.493636363636366
10.046875,8.25,20.12,-44.45,30.3,73.34,-177.41,-4.59,27.32,54.18,-92.58,-21.89,-11.58272727272727
10.0625,14.07,17.01,-44.88,30.54,77.85,-188.83,-10.51,30.75,43.98,-88.19,-18.06,-12.388181818181819
10.078125,18.2,11.65,-45.05,29.96,80.67,-203.03,-16.45,32.93,28.24,-78.17,-13.13,-14.016363636363637
10.09375,20.9,3.99,-45.32,28.79,82.19,-220.25,-22.04,33.74,8.15,-63.52,-7.49,-16.44181818181818
10.109375,22.44,-5.59,-45.8,27.27,82.8,-239.63,-27.04,33.34,-14.84,-46.15,-1.66,-19.53272727272727
10.125,23.04,-16.27,-46.36,25.67,82.8,-259.07,-31.39,32.11,-39.65,-28.31,3.81,-23.05636363636363
10.140625,22.91,-27.21,-46.68,24.21,82.39,-275.47,-35.12,30.53,-66.05,-11.87,8.42,-26.721818181818186
10.15625,22.26,-37.84,-46.38,23.11,81.67,-285.38,-38.33,28.97,-94.56,2.06,11.85,-30.233636363636364
10.171875,21.28,-47.85,-45.34,22.5,80.79,-285.84,-41.21,27.63,-125.96,13.1,13.96,-33.35818181818181
10.1875,20.17,-57.32,-43.66,22.41,79.94,-275.18,-44.04,26.47,-160.4,21.38,14.83,-35.945454545454545
10.203125,19.06,-66.68,-41.72,22.8,79.36,-253.45,-47.26,25.33,-196.72,27.16,14.77,-37.94090909090909
10.21875,18.06,-76.48,-40.09,23.62,79.16,-222.23,-51.28,24.06,-232.05,30.71,14.14,-39.30727272727273
10.234375,17.18,-87.32,-39.4,24.8,79.23,-183.91,-56.3,22.58,-262.18,32.29,13.32,-39.97363636363636
10.25,16.44,-99.45,-40.16,26.3,79.21,-140.87,-62.1,20.87,-282.62,32.31,12.59,-39.77090909090909
10.265625,15.86,-112.42,-42.6,27.96,78.52,-94.72,-67.99,18.95,-289.97,31.39,12.09,-38.44818181818182
10.28125,15.5,-124.81,-46.45,29.53,76.58,-46.06,-72.96,16.75,-283.08,30.28,11.84,-35.71636363636364
10.296875,15.47,-134.36,-50.81,30.66,73.06,5.07,-76.03,14.23,-263.48,29.74,11.77,-31.33454545454546
10.3125,15.78,-138.47,-54.15,31.03,68.0,58.55,-76.5,11.3,-234.78,30.27,11.81,-25.19636363636364
10.328125,16.39,-135.02,-54.6,30.45,61.88,113.39,-74.18,8.03,-201.57,32.02,11.87,-17.39454545454545
10.34375,17.11,-123.16,-50.45,28.97,55.47,167.4,-69.32,4.58,-168.01,34.71,11.92,-8.252727272727272
10.359375,17.75,-103.65,-40.83,26.87,49.52,217.57,-62.43,1.17,-137.04,37.76,11.9,1.689999999999999
10.375,18.11,-78.58,-26.18,24.49,44.5,260.88,-54.03,-2.01,-110.25,40.48,11.76,11.742727272727272
10.390625,18.07,-50.75,-8.22,22.12,40.38,295.37,-44.56,-4.86,-88.2,42.24,11.49,21.189090909090908
10.40625,17.59,-22.79,10.43,19.9,36.7,320.76,-34.38,-7.42,-70.92,42.69,11.05,29.419090909090905
10.421875,16.64,3.42,27.08,17.8,32.78,338.35,-23.86,-9.82,-58.12,41.82,10.43,36.04727272727273
10.4375,15.28,26.83,39.79,15.72,28.11,350.24,-13.44,-12.18,-49.2,39.85,9.6,40.96363636363637
10.453125,13.59,47.04,47.79,13.56,22.56,358.31,-3.6,-14.59,-43.21,37.13,8.52,44.28181818181818
10.46875,11.74,63.92,51.53,11.3,16.48,363.45,5.2,-17.1,-38.91,33.98,7.19,46.25272727272728
10.484375,9.95,77.37,52.14,9.0,10.42,365.42,12.65,-19.76,-35.05,30.54,5.58,47.114545454545464
10.5,8.4,87.28,50.9,6.73,4.91,363.44,18.58,-22.66,-30.75,26.75,3.67,47.02272727272727
10.515625,7.17,93.66,48.75,4.51,0.14,356.89,23.01,-26.0,-25.77,22.44,1.5,46.02727272727273
10.53125,6.11,96.78,46.13,2.35,-4.06,345.89,26.0,-29.94,-20.46,17.49,-0.87,44.12909090909091
10.546875,4.98,97.15,43.14,0.21,-8.15,331.39,27.67,-34.51,-15.57,12.02,-3.29,41.36727272727273
10.5625,3.55,95.5,39.81,-1.95,-12.6,314.8,28.18,-39.49,-11.88,6.37,-5.59,37.88181818181818
10.578125,1.75,92.54,36.33,-4.18,-17.79,297.41,27.69,-44.23,-9.9,1.07,-7.64,33.913636363636364
10.59375,-0.21,88.86,33.01,-6.51,-23.82,279.99,26.38,-47.84,-9.59,-3.36,-9.4,29.773636363636367
10.609375,-2.04,84.76,30.16,-8.95,-30.55,262.62,24.4,-49.37,-10.49,-6.68,-11.0,25.71454545454545
10.625,-3.47,80.34,27.95,-11.47,-37.69,244.86,21.85,-48.2,-11.82,-9.06,-12.63,21.87818181818182
10.640625,-4.54,75.53,26.26,-13.98,-44.85,226.09,18.81,-44.24,-12.78,-11.01,-14.5,18.253636363636364
10.65625,-5.53,70.26,24.8,-16.36,-51.69,205.86,15.36,-38.04,-12.9,-13.28,-16.71,14.706363636363637
10.671875,-6.89,64.6,23.25,-18.49,-58.02,184.33,11.63,-30.55,-12.13,-16.6,-19.19,11.085454545454548
10.6875,-8.95,58.79,21.4,-20.38,-63.91,162.5,7.8,-22.8,-10.95,-21.49,-21.73,7.298181818181817
10.703125,-11.74,53.23,19.2,-22.16,-69.66,142.12,4.08,-15.54,-10.04,-28.07,-23.98,3.4036363636363647
10.71875,-15.0,48.2,16.73,-24.02,-75.88,125.23,0.61,-9.06,-10.15,-36.01,-25.57,-0.44727272727272677
10.734375,-18.28,43.75,14.06,-26.22,-83.27,113.38,-2.54,-3.26,-11.75,-44.46,-26.13,-4.065454545454545
10.75,-21.21,39.53,11.12,-28.97,-92.4,106.9,-5.48,2.19,-15.0,-52.1,-25.39,-7.346363636363637
10.765625,-23.62,34.83,7.78,-32.34,-103.35,104.66,-8.38,7.56,-19.82,-57.33,-23.19,-10.290909090909091
10.78125,-25.65,28.79,3.88,-36.24,-115.41,104.38,-11.39,12.91,-26.0,-58.57,-19.55,-12.986363636363638
10.796875,-27.57,20.74,-0.64,-40.36,-126.96,103.49,-14.58,18.06,-33.31,-54.74,-14.71,-15.507272727272728
10.8125,-29.77,10.47,-5.62,-44.16,-135.64,100.03,-17.87,22.69,-41.29,-45.55,-9.12,-17.80272727272727
10.828125,-32.58,-1.66,-10.78,-46.89,-139.04,93.31,-21.06,26.43,-49.1,-31.64,-3.36,-19.67
10.84375,-36.17,-14.82,-15.82,-47.76,-135.32,83.93,-23.93,29.12,-55.39,-14.34,1.98,-20.774545454545454
10.859375,-40.58,-28.11,-20.5,-46.11,-123.99,73.39,-26.37,30.71,-58.43,4.76,6.45,-20.79818181818182
10.875,-45.52,-40.91,-24.75,-41.63,-106.09,63.33,-28.39,31.36,-56.64,24.12,9.77,-19.577272727272728
10.890625,-50.29,-53.1,-28.67,-34.58,-83.9,54.98,-30.24,31.28,-49.23,42.58,11.84,-17.211818181818177
10.90625,-53.84,-65.05,-32.33,-25.68,-60.17,48.76,-32.26,30.66,-36.68,59.25,12.77,-14.05181818181818
10.921875,-54.98,-77.44,-35.76,-15.98,-37.33,44.32,-34.83,29.63,-20.76,73.39,12.8,-10.630909090909087
10.9375,-52.77,-91.0,-38.8,-6.47,-16.86,40.89,-38.21,28.29,-3.97,84.3,12.23,-7.488181818181818
10.953125,-46.95,-106.29,-41.23,2.12,0.76,37.55,-42.47,26.81,11.27,91.33,11.36,-5.067272727272728
10.96875,-38.06,-123.48,-42.87,9.39,15.73,33.52,-47.43,25.39,23.41,94.14,10.4,-3.6236363636363644
10.984375,-27.36,-142.17,-43.79,15.24,28.51,28.24,-52.64,24.26,32.12,93.01,9.47,-3.1918181818181792
11.0,-16.36,-161.25,-44.33,19.65,39.43,21.37,-57.47,23.53,37.97,88.97,8.63,-3.6236363636363644
11.015625,-6.3,-178.79,-45.09,22.61,48.61,12.83,-61.13,23.14,42.01,83.71,7.86,-4.5945454545454565
11.03125,2.12,-192.24,-46.76,24.12,56.05,2.78,-62.87,22.8,45.09,79.26,7.21,-5.676363636363636
11.046875,8.79,-198.91,-49.89,24.27,61.7,-8.34,-62.16,22.12,47.6,77.38,6.71,-6.430000000000003
11.0625,13.95,-196.8,-54.63,23.34,65.65,-19.78,-58.87,20.77,49.54,79.11,6.39,-6.484545454545455
11.078125,17.9,-185.25,-60.55,21.77,68.11,-30.57,-53.33,18.62,50.79,84.54,6.25,-5.6109090909090895
11.09375,20.78,-165.24,-66.55,20.04,69.34,-39.71,-46.21,15.83,51.34,92.89,6.23,-3.75090909090909
11.109375,22.65,-139.22,-71.01,18.55,69.68,-46.42,-38.36,12.79,51.44,102.9,6.24,-0.9781818181818182
11.125,23.55,-110.19,-72.09,17.53,69.47,-50.34,-30.51,9.9,51.42,113.21,6.21,2.559999999999999
11.140625,23.67,-80.99,-68.32,17.03,68.97,-51.58,-23.08,7.45,51.59,122.62,6.11,6.679090909090911
11.15625,23.26,-53.6,-59.17,17.0,68.43,-50.66,-16.16,5.49,52.04,130.07,5.88,11.143636363636363
11.171875,22.6,-29.18,-45.33,17.39,67.99,-48.24,-9.6,3.85,52.6,134.52,5.44,15.640000000000002
11.1875,21.83,-8.27,-28.67,18.15,67.75,-45.0,-3.21,2.22,53.04,134.82,4.68,19.758181818181818
11.203125,21.01,8.79,-11.67,19.27,67.77,-41.45,3.05,0.36,53.17,130.0,3.44,23.067272727272726
11.21875,20.11,21.65,3.36,20.7,68.06,-37.88,9.03,-1.83,52.96,119.61,1.72,25.226363636363637
11.234375,19.17,30.06,14.87,22.34,68.54,-34.54,14.43,-4.32,52.6,104.17,-0.41,26.08272727272727
11.25,18.4,34.13,22.36,24.05,68.95,-31.56,18.93,-6.95,52.31,85.19,-2.72,25.735454545454544
11.265625,18.04,34.56,26.25,25.62,68.85,-29.11,22.33,-9.6,52.22,64.88,-4.96,24.46181818181818
11.28125,18.3,32.55,27.44,26.87,67.75,-27.3,24.62,-12.2,52.15,45.46,-7.0,22.603636363636365
11.296875,19.21,29.49,26.9,27.6,65.25,-26.16,25.98,-14.79,51.64,28.6,-8.83,20.44454545454545
11.3125,20.49,26.55,25.39,27.69,61.25,-25.59,26.65,-17.47,50.13,14.97,-10.62,18.13090909090909
11.328125,21.74,24.43,23.42,27.1,56.06,-25.37,26.91,-20.37,47.17,4.31,-12.6,15.709090909090913
11.34375,22.54,23.19,21.33,25.91,50.33,-25.23,26.98,-23.6,42.72,-4.33,-14.88,13.178181818181816
11.359375,22.72,22.43,19.35,24.22,44.81,-24.88,27.01,-27.24,37.18,-12.08,-17.39,10.557272727272725
11.375,22.26,21.59,17.61,22.2,40.05,-24.13,27.04,-31.29,31.31,-20.07,-19.88,7.880909090909091
11.390625,21.37,20.13,16.15,19.95,36.2,-22.89,27.06,-35.7,25.84,-29.13,-21.98,5.181818181818182
11.40625,20.26,17.81,14.92,17.6,32.95,-21.25,26.99,-40.19,21.23,-39.74,-23.38,2.472727272727273
11.421875,19.07,14.75,13.8,15.31,29.68,-19.45,26.74,-44.3,17.42,-51.99,-23.87,-0.2581818181818175
11.4375,17.79,11.4,12.7,13.23,25.75,-17.84,26.19,-47.38,13.96,-65.56,-23.35,-3.0100000000000007
11.453125,16.36,8.33,11.56,11.51,20.84,-16.86,25.31,-48.71,10.28,-79.63,-21.8,-5.71
11.46875,14.71,6.05,10.44,10.14,15.05,-16.89,24.06,-47.83,5.92,-92.98,-19.21,-8.23090909090909
11.484375,12.82,4.72,9.41,8.99,8.91,-18.2,22.46,-44.61,0.88,-104.12,-15.62,-10.396363636363638
11.5,10.75,4.07,8.65,7.83,3.06,-20.84,20.54,-39.44,-4.56,-111.6,-11.19,-12.066363636363635
11.515625,8.54,3.4,8.26,6.48,-1.99,-24.73,18.32,-33.02,-9.86,-114.45,-6.26,-13.21
11.53125,6.26,1.92,8.27,4.89,-6.18,-29.71,15.77,-26.16,-14.6,-112.47,-1.29,-13.936363636363636
11.546875,3.9,-0.98,8.47,3.17,-9.91,-35.6,12.89,-19.51,-18.67,-106.44,3.18,-14.5
11.5625,1.43,-5.51,8.49,1.5,-13.84,-42.35,9.67,-13.37,-22.27,-97.94,6.72,-15.224545454545455
11.578125,-1.16,-11.54,7.82,-0.01,-18.63,-49.94,6.12,-7.73,-25.91,-88.89,9.16,-16.42818181818182
11.59375,-3.89,-18.92,6.04,-1.39,-24.61,-58.35,2.34,-2.35,-30.18,-80.97,10.55,-18.33909090909091
11.609375,-6.76,-27.74,3.02,-2.79,-31.74,-67.42,-1.5,2.97,-35.56,-75.07,11.13,-21.041818181818183
11.625,-9.73,-38.4,-0.98,-4.35,-39.57,-76.82,-5.2,8.24,-42.29,-71.12,11.17,-24.459090909090904
11.640625,-12.75,-51.32,-5.35,-6.12,-47.46,-86.02,-8.56,13.3,-50.25,-68.36,10.89,-28.363636363636363
11.65625,-15.8,-66.33,-9.4,-7.98,-54.78,-94.43,-11.55,17.85,-58.82,-65.87,10.36,-32.43181818181818
11.671875,-18.84,-82.34,-12.69,-9.8,-61.15,-101.51,-14.26,21.54,-66.89,-63.13,9.61,-36.31454545454545
11.6875,-21.82,-97.24,-15.22,-11.48,-66.51,-106.95,-17.02,24.15,-72.95,-60.28,8.69,-39.693636363636365
11.703125,-24.66,-108.42,-17.46,-13.08,-71.23,-110.82,-20.27,25.65,-75.37,-57.99,7.71,-42.358181818181826
11.71875,-27.26,-113.51,-20.05,-14.74,-76.01,-113.52,-24.32,26.17,-72.95,-56.98,6.85,-44.21090909090909
11.734375,-29.58,-110.99,-23.56,-16.58,-81.79,-115.67,-29.24,26.0,-65.29,-57.57,6.27,-45.27272727272727
11.75,-31.67,-100.36,-28.1,-18.61,-89.4,-117.91,-34.74,25.47,-53.16,-59.36,6.03,-45.619090909090914
11.765625,-33.81,-82.07,-33.33,-20.75,-99.24,-120.63,-40.16,24.79,-38.29,-61.43,6.01,-45.35545454545455
11.78125,-36.4,-57.1,-38.56,-22.89,-110.9,-123.93,-44.61,24.05,-22.92,-62.62,5.98,-44.53636363636364
11.796875,-39.81,-26.94,-43.08,-24.96,-122.97,-127.63,-47.23,23.23,-9.04,-62.06,5.71,-43.161818181818184
11.8125,-44.05,6.62,-46.43,-26.96,-133.2,-131.5,-47.42,22.33,2.19,-59.46,5.1,-41.16181818181818
11.828125,-48.67,41.38,-48.66,-28.98,-138.98,-135.5,-44.95,21.42,10.67,-55.19,4.2,-38.47818181818182
11.84375,-52.69,75.02,-50.31,-31.1,-138.17,-139.93,-40.02,20.65,17.12,-50.04,3.17,-35.11818181818182
11.859375,-54.87,105.45,-52.23,-33.4,-129.77,-145.46,-33.18,20.1,22.52,-44.86,2.17,-31.230000000000004
11.875,-54.08,131.37,-55.42,-35.99,-114.3,-152.79,-25.11,19.73,27.62,-40.3,1.25,-27.09272727272727
11.890625,-49.72,152.55,-60.61,-38.89,-93.69,-162.37,-16.52,19.24,32.63,-36.61,0.31,-23.061818181818182
11.90625,-41.94,169.64,-67.97,-42.04,-70.6,-173.95,-7.89,18.26,37.27,-33.72,-0.82,-19.43272727272727
11.921875,-31.62,183.71,-76.81,-45.14,-47.65,-186.45,0.4,16.47,41.11,-31.42,-2.3,-16.336363636363636
11.9375,-20.14,195.55,-85.47,-47.61,-26.73,-198.09,8.21,13.85,43.85,-29.65,-4.14,-13.669999999999995
11.953125,-8.87,205.29,-91.48,-48.68,-8.67,-206.81,15.44,10.74,45.49,-28.59,-6.27,-11.128181818181817
11.96875,1.12,212.4,-92.13,-47.59,6.61,-210.88,21.99,7.63,46.33,-28.64,-8.51,-8.33363636363636
11.984375,9.29,216.08,-85.27,-43.9,19.66,-209.36,27.76,5.01,46.72,-30.16,-10.75,-4.992727272727271
12.0,15.61,215.71,-70.19,-37.72,31.06,-202.45,32.64,3.08,46.94,-33.2,-12.95,-1.0427272727272723
12.015625,20.33,211.22,-48.09,-29.66,41.15,-191.34,36.58,1.72,47.08,-37.38,-15.15,3.3145454545454553
12.03125,23.78,203.24,-21.9,-20.66,49.92,-177.83,39.57,0.5,47.08,-42.02,-17.43,7.6590909090909065
12.046875,26.13,192.93,4.5,-11.68,57.21,-163.67,41.71,-1.01,46.86,-46.47,-19.77,11.521818181818183
12.0625,27.45,181.72,27.47,-3.41,62.86,-149.98,43.14,-3.14,46.46,-50.46,-22.0,14.555454545454547
12.078125,27.74,170.94,44.66,3.75,66.85,-136.81,44.04,-5.94,46.02,-54.09,-23.73,16.675454545454546
12.09375,27.18,161.46,55.49,9.64,69.35,-123.11,44.56,-9.17,45.74,-57.64,-24.55,18.086363636363636
12.109375,26.12,153.53,60.91,14.16,70.63,-107.13,44.83,-12.41,45.71,-61.18,-24.1,19.188181818181814
12.125,25.0,146.72,62.69,17.22,71.0,-86.9,44.92,-15.19,45.79,-64.28,-22.27,20.427272727272726
12.140625,24.21,140.15,62.51,18.75,70.69,-61.12,44.82,-17.24,45.66,-66.18,-19.21,22.09454545454545
12.15625,23.83,132.79,61.46,18.8,69.94,-29.67,44.58,-18.51,44.86,-66.17,-15.27,24.24
12.171875,23.69,123.91,59.9,17.62,68.94,6.19,44.23,-19.31,43.02,-64.03,-10.89,26.66090909090909
12.1875,23.46,113.35,57.83,15.65,67.97,44.0,43.86,-20.14,40.01,-60.15,-6.43,29.03727272727273
12.203125,22.9,101.6,55.22,13.37,67.31,80.86,43.54,-21.57,36.03,-55.23,-2.19,31.076363636363634
12.21875,22.01,89.7,52.38,11.26,67.17,114.21,43.26,-24.02,31.53,-49.83,1.66,32.66636363636364
12.234375,21.01,78.68,49.86,9.63,67.56,142.43,42.88,-27.57,27.07,-43.99,4.91,33.8609090909091
12.25,20.22,69.25,48.2,8.66,68.16,165.03,42.15,-31.89,23.12,-37.28,7.38,34.81818181818182
12.265625,19.88,61.29,47.63,8.4,68.44,182.46,40.75,-36.26,19.86,-29.14,8.94,35.659090909090914
12.28125,20.04,53.85,47.87,8.84,67.75,195.49,38.55,-39.8,17.17,-19.39,9.51,36.35272727272728
12.296875,20.51,45.32,48.24,9.9,65.64,204.95,35.56,-41.7,14.58,-8.46,9.22,36.70545454545454
12.3125,20.97,33.88,48.02,11.48,61.98,211.52,32.05,-41.48,11.53,2.71,8.35,36.455454545454536
12.328125,21.06,18.13,46.79,13.43,57.04,215.7,28.42,-39.08,7.56,13.07,7.24,35.39636363636364
12.34375,20.5,-2.31,44.71,15.54,51.38,217.94,25.02,-34.89,2.54,21.95,6.24,33.51090909090909
12.359375,19.19,-26.45,42.43,17.61,45.61,218.54,22.05,-29.56,-3.24,29.2,5.53,30.991818181818175
12.375,17.17,-51.9,40.73,19.46,40.22,217.53,19.53,-23.76,-9.11,35.16,5.14,28.197272727272722
12.390625,14.62,-75.38,40.08,20.93,35.46,214.62,17.27,-18.04,-14.33,40.19,4.99,25.49181818181818
12.40625,11.8,-93.51,40.3,21.93,31.28,209.31,15.01,-12.69,-18.43,44.4,4.94,23.12181818181818
12.421875,9.0,-103.76,40.61,22.4,27.38,201.25,12.51,-7.74,-21.4,47.48,4.89,21.147272727272725
12.4375,6.45,-105.06,40.0,22.34,23.43,190.53,9.65,-3.13,-23.77,48.84,4.85,19.46636363636364
12.453125,4.24,-98.03,37.76,21.73,19.09,177.82,6.38,1.28,-26.37,48.02,4.83,17.886363636363637
12.46875,2.32,-84.57,33.88,20.59,14.27,164.12,2.8,5.53,-30.08,45.04,4.87,16.251818181818184
12.484375,0.51,-67.18,29.08,18.97,9.05,150.3,-0.95,9.61,-35.56,40.52,4.89,14.476363636363637
12.5,-1.46,-48.35,24.5,17.0,3.77,136.75,-4.67,13.4,-42.98,35.56,4.76,12.57090909090909
12.515625,-3.77,-30.11,21.14,14.89,-1.19,123.3,-8.18,16.71,-51.99,31.31,4.29,10.58181818181818
12.53125,-6.55,-13.81,19.45,12.86,-5.54,109.54,-11.42,19.37,-61.54,28.45,3.35,8.56
12.546875,-9.72,-0.29,19.08,11.1,-9.24,95.31,-14.52,21.25,-70.1,27.03,1.97,6.533636363636365
12.5625,-13.11,10.09,19.18,9.64,-12.61,80.95,-17.77,22.32,-75.9,26.47,0.25,4.50090909090909
12.578125,-16.47,17.31,18.71,8.38,-16.21,67.24,-21.6,22.66,-77.46,25.9,-1.59,2.442727272727273
12.59375,-19.63,21.66,16.94,7.12,-20.69,54.99,-26.33,22.44,-74.14,24.55,-3.41,0.3181818181818182
12.609375,-22.52,23.57,13.75,5.65,-26.42,44.66,-32.03,21.87,-66.39,22.06,-5.1,-1.9000000000000006
12.625,-25.25,23.48,9.55,3.91,-33.33,36.07,-38.3,21.14,-55.72,18.42,-6.68,-4.246363636363635
12.640625,-28.01,21.78,5.18,1.96,-40.89,28.59,-44.41,20.37,-44.09,13.82,-8.23,-6.7209090909090925
12.65625,-31.1,18.71,1.43,-0.05,-48.34,21.46,-49.35,19.65,-33.29,8.44,-9.83,-9.297272727272727
12.671875,-34.74,14.52,-1.28,-1.97,-54.97,14.2,-52.28,18.96,-24.27,2.29,-11.57,-11.919090909090908
12.6875,-39.03,9.47,-3.03,-3.7,-60.5,6.74,-52.67,18.29,-17.12,-4.76,-13.48,-14.526363636363635
12.703125,-43.79,3.94,-4.46,-5.25,-65.15,-0.68,-50.44,17.52,-11.23,-12.78,-15.53,-17.077272727272728
12.71875,-48.44,-1.69,-6.56,-6.67,-69.56,-7.7,-45.92,16.58,-5.77,-21.73,-17.5,-19.541818181818183
12.734375,-52.03,-7.08,-10.29,-8.07,-74.56,-14.05,-39.7,15.34,-0.12,-31.36,-19.08,-21.90909090909091
12.75,-53.41,-12.02,-16.34,-9.54,-80.95,-19.65,-32.37,13.77,5.94,-41.31,-19.88,-24.16
12.765625,-51.58,-16.39,-24.72,-11.12,-89.19,-24.54,-24.48,11.9,12.29,-51.17,-19.53,-26.229999999999997
12.78125,-46.05,-20.17,-34.59,-12.88,-99.28,-28.84,-16.48,9.87,18.53,-60.61,-17.81,-28.028181818181817
12.796875,-37.11,-23.41,-44.26,-14.79,-110.54,-32.7,-8.68,7.89,24.23,-69.41,-14.77,-29.413636363636364
12.8125,-25.76,-26.14,-51.42,-16.8,-121.54,-36.37,-1.3,6.12,28.98,-77.53,-10.64,-30.218181818181822
12.828125,-13.46,-28.52,-53.76,-18.81,-130.16,-40.21,5.53,4.64,32.59,-85.24,-5.83,-30.29363636363636
12.84375,-1.62,-30.67,-49.75,-20.74,-134.1,-44.45,11.78,3.38,35.08,-93.12,-0.84,-29.55
12.859375,8.74,-32.76,-39.29,-22.56,-131.47,-49.02,17.47,2.08,36.69,-101.95,3.85,-28.019999999999996
12.875,17.18,-34.88,-23.99,-24.36,-121.52,-53.27,22.6,0.5,37.79,-112.54,7.73,-25.887272727272727
12.890625,23.7,-37.1,-6.6,-26.3,-105.05,-56.0,27.1,-1.56,38.71,-125.31,10.44,-23.45181818181818
12.90625,28.51,-39.5,9.79,-28.57,-84.2,-55.73,30.84,-4.1,39.62,-139.96,11.78,-21.047272727272727
12.921875,31.81,-42.33,22.84,-31.32,-61.76,-51.25,33.75,-6.9,40.51,-155.36,11.76,-18.931818181818183
12.9375,33.72,-46.08,31.56,-34.56,-40.27,-42.07,35.82,-9.6,41.29,-169.75,10.63,-17.21
12.953125,34.34,-51.58,36.33,-38.13,-21.31,-28.7,37.19,-11.9,41.86,-181.2,8.83,-15.842727272727272
12.96875,33.89,-59.73,38.36,-41.61,-5.29,-12.53,38.09,-13.68,42.2,-188.23,6.83,-14.699999999999996
12.984375,32.69,-71.11,38.92,-44.44,8.25,4.6,38.76,-15.07,42.34,-190.22,5.03,-13.659090909090908
13.0,31.14,-85.62,38.81,-45.92,20.04,20.86,39.35,-16.41,42.27,-187.74,3.66,-12.687272727272727
13.015625,29.58,-102.07,38.26,-45.42,30.6,34.93,39.87,-18.17,41.85,-182.37,2.76,-11.834545454545458
13.03125,28.21,-118.23,37.15,-42.54,39.98,46.1,40.23,-20.69,40.84,-176.34,2.28,-11.182727272727275
13.046875,27.1,-131.23,35.43,-37.27,47.9,54.22,40.33,-24.12,39.0,-171.82,2.07,-10.762727272727274
13.0625,26.2,-138.29,33.34,-29.99,54.06,59.47,40.13,-28.3,36.27,-170.24,1.94,-10.491818181818182
13.078125,25.49,-137.37,31.37,-21.46,58.36,62.11,39.61,-32.74,32.78,-171.71,1.69,-10.170000000000002
13.09375,24.98,-127.66,30.05,-12.6,61.04,62.38,38.78,-36.71,28.9,-175.02,1.19,-9.515454545454544
13.109375,24.75,-109.56,29.74,-4.29,62.57,60.42,37.62,-39.38,25.11,-178.16,0.44,-8.249090909090908
13.125,24.85,-84.52,30.31,2.83,63.43,56.41,36.09,-40.06,21.89,-179.13,-0.46,-6.214545454545453
13.140625,25.24,-54.55,31.22,8.44,63.93,50.69,34.11,-38.36,19.46,-176.91,-1.37,-3.4636363636363625
13.15625,25.78,-22.0,31.72,12.53,64.24,43.77,31.67,-34.42,17.8,-171.82,-2.18,-0.26454545454545364
13.171875,26.24,10.73,31.11,15.27,64.33,36.38,28.86,-28.83,16.59,-165.28,-2.91,2.9536363636363645
13.1875,26.35,41.31,29.06,16.92,64.23,29.29,25.85,-22.49,15.3,-158.99,-3.67,5.741818181818183
13.203125,25.91,67.7,25.7,17.69,64.07,23.22,22.91,-16.28,13.46,-154.04,-4.64,7.790909090909091
13.21875,24.86,88.32,21.52,17.71,64.11,18.58,20.31,-10.76,10.71,-150.38,-5.91,9.006363636363636
13.234375,23.28,102.25,17.09,17.06,64.57,15.47,18.18,-6.15,7.01,-146.95,-7.48,9.484545454545454
13.25,21.4,109.29,12.71,15.86,65.45,13.61,16.43,-2.26,2.54,-142.36,-9.29,9.398181818181818
13.265625,19.46,109.93,8.32,14.31,66.45,12.51,14.77,1.24,-2.29,-135.63,-11.26,8.891818181818183
13.28125,17.67,105.11,3.59,12.66,66.98,11.53,12.77,4.61,-7.13,-126.47,-13.42,7.990909090909093
13.296875,16.02,96.0,-1.87,11.19,66.35,10.09,10.12,7.87,-11.77,-115.07,-15.79,6.649090909090908
13.3125,14.41,83.79,-8.25,10.17,64.1,7.75,6.72,10.82,-16.22,-101.46,-18.35,4.861818181818181
13.328125,12.63,69.56,-15.35,9.74,60.16,4.32,2.83,13.14,-20.76,-85.08,-20.91,2.752727272727271
13.34375,10.59,54.19,-22.68,9.99,54.95,-0.14,-1.05,14.62,-25.8,-64.67,-23.11,0.6263636363636365
13.359375,8.29,38.42,-29.6,10.94,49.2,-5.4,-4.39,15.25,-31.81,-38.69,-24.42,-1.1099999999999994
13.375,5.88,22.76,-35.57,12.49,43.64,-11.07,-6.8,15.26,-39.04,-6.02,-24.4,-2.0790909090909087
13.390625,3.48,7.6,-40.32,14.51,38.7,-16.78,-8.21,15.02,-47.39,33.57,-22.79,-2.055454545454545
13.40625,1.12,-6.73,-43.89,16.71,34.41,-22.23,-8.9,14.85,-56.18,79.06,-19.64,-1.0381818181818183
13.421875,-1.3,-19.96,-46.59,18.8,30.42,-27.32,-9.41,14.9,-64.09,128.27,-15.3,0.7654545454545453
13.4375,-3.94,-31.82,-48.94,20.5,26.21,-32.04,-10.33,15.11,-69.43,178.03,-10.29,3.005454545454545
13.453125,-6.83,-42.16,-51.43,21.6,21.42,-36.47,-12.24,15.29,-70.56,224.65,-5.16,5.282727272727274
13.46875,-9.92,-51.02,-54.36,22.06,15.99,-40.67,-15.43,15.24,-66.51,264.4,-0.29,7.226363636363633
13.484375,-12.98,-58.77,-57.61,21.93,10.25,-44.66,-19.97,14.84,-57.47,294.19,4.1,8.531818181818181
13.5,-15.82,-66.03,-60.72,21.31,4.67,-48.35,-25.56,14.11,-44.8,312.27,7.96,9.003636363636362
13.515625,-18.38,-73.54,-63.06,20.31,-0.31,-51.56,-31.62,13.12,-30.63,318.67,11.22,8.565454545454545
13.53125,-20.78,-81.96,-64.04,19.0,-4.56,-54.04,-37.4,11.92,-17.11,315.06,13.75,7.258181818181816
13.546875,-23.27,-91.67,-63.55,17.47,-8.28,-55.36,-42.02,10.58,-5.73,304.22,15.35,5.249090909090908
13.5625,-26.1,-102.68,-61.89,15.82,-11.99,-55.04,-44.77,9.13,3.06,289.0,15.86,2.7636363636363654
13.578125,-29.48,-114.78,-59.84,14.15,-16.26,-52.66,-45.12,7.6,9.7,271.47,15.32,0.009090909090911804
13.59375,-33.56,-127.62,-58.35,12.55,-21.46,-48.16,-42.84,6.05,15.07,252.52,13.98,-2.892727272727276
13.609375,-38.35,-140.85,-58.35,10.99,-27.65,-42.13,-38.05,4.5,19.92,232.14,12.27,-5.959999999999999
13.625,-43.72,-153.99,-60.38,9.38,-34.53,-35.62,-31.18,2.9,24.57,210.02,10.62,-9.266363636363634
13.640625,-49.22,-166.34,-64.37,7.58,-41.62,-29.75,-22.85,1.2,28.83,186.38,9.27,-12.80818181818182
13.65625,-53.97,-176.94,-69.41,5.52,-48.36,-25.16,-13.78,-0.63,32.12,162.25,8.3,-16.36909090909091
13.671875,-56.78,-184.6,-73.67,3.27,-54.42,-21.63,-4.65,-2.53,33.77,139.45,7.57,-19.474545454545456
13.6875,-56.38,-188.06,-74.69,0.99,-59.75,-18.26,4.0,-4.33,33.19,120.03,6.94,-21.483636363636364
13.703125,-51.92,-186.15,-70.01,-1.06,-64.68,-14.12,11.9,-5.87,30.08,105.58,6.29,-21.814545454545456
13.71875,-43.35,-177.8,-58.12,-2.73,-69.85,-8.96,18.98,-7.06,24.56,96.69,5.57,-20.188181818181818
13.734375,-31.56,-162.11,-39.23,-3.97,-76.07,-3.53,25.35,-8.02,17.24,92.69,4.8,-16.764545454545452
13.75,-18.14,-138.44,-15.53,-4.95,-84.03,0.72,31.15,-9.0,9.27,91.77,3.95,-12.111818181818178
13.765625,-4.87,-106.66,9.42,-5.9,-93.93,2.41,36.51,-10.32,2.05,91.53,3.0,-6.97818181818182
13.78125,6.79,-67.49,31.8,-7.04,-105.15,1.01,41.45,-12.21,-3.02,89.63,1.92,-2.0281818181818183
13.796875,16.07,-22.69,48.88,-8.51,-116.1,-2.92,45.96,-14.75,-5.03,84.45,0.68,2.367272727272727
13.8125,22.85,25.04,59.71,-10.3,-124.41,-8.01,50.0,-17.84,-3.78,75.52,-0.69,6.19
13.828125,27.49,72.64,65.11,-12.29,-127.62,-12.75,53.5,-21.2,0.17,63.74,-2.19,9.69090909090909
13.84375,30.41,117.31,66.8,-14.34,-123.88,-16.02,56.48,-24.5,5.8,51.2,-3.84,13.219999999999999
13.859375,31.93,157.09,66.52,-16.39,-112.76,-17.24,58.96,-27.32,11.98,40.7,-5.74,17.066363636363636
13.875,32.21,190.94,65.29,-18.41,-95.39,-16.17,60.98,-29.18,17.85,34.87,-7.99,21.363636363636367
13.890625,31.41,218.54,63.33,-20.45,-74.15,-12.66,62.58,-29.61,22.98,35.39,-10.65,26.064545454545453
13.90625,29.77,239.75,60.51,-22.51,-51.8,-6.56,63.83,-28.26,27.21,42.37,-13.7,30.96454545454545
13.921875,27.66,254.4,56.81,-24.58,-30.68,2.02,64.75,-25.03,30.56,54.23,-17.07,35.73363636363637
13.9375,25.47,262.23,52.58,-26.63,-12.08,12.56,65.38,-20.23,33.01,68.27,-20.55,40.00090909090909
13.953125,23.54,263.27,48.41,-28.67,3.71,24.0,65.77,-14.45,34.55,81.47,-23.87,43.43
13.96875,22.0,258.06,44.81,-30.81,17.05,35.01,65.92,-8.49,35.16,91.48,-26.67,45.77454545454546
13.984375,20.89,247.81,41.88,-33.29,28.46,44.32,65.82,-3.05,34.92,97.04,-28.53,46.93363636363636
14.0,20.18,234.19,39.32,-36.3,38.22,51.21,65.35,1.45,33.89,98.07,-29.06,46.95636363636363
14.015625,19.88,218.92,36.64,-39.9,46.38,55.64,64.37,4.9,32.01,95.31,-28.0,46.01363636363637
14.03125,20.07,203.42,33.53,-43.87,52.81,58.18,62.76,7.45,29.04,89.8,-25.29,44.354545454545445
14.046875,20.81,188.58,30.04,-47.68,57.51,59.65,60.5,9.3,24.57,82.56,-21.14,42.24545454545454
14.0625,22.03,174.85,26.54,-50.6,60.61,60.76,57.67,10.62,18.22,74.47,-15.96,39.92818181818183
14.078125,23.5,162.39,23.55,-51.9,62.46,61.76,54.48,11.49,9.91,66.18,-10.27,37.59545454545455
14.09375,24.88,151.42,21.34,-51.06,63.45,62.55,51.09,11.94,0.04,58.08,-4.55,35.38
14.109375,25.79,142.24,19.85,-47.86,63.91,62.76,47.56,12.03,-10.55,50.21,0.83,33.34272727272727
14.125,26.02,135.19,18.59,-42.42,64.09,62.14,43.83,11.91,-20.86,42.09,5.6,31.470909090909096
14.140625,25.49,130.38,16.96,-35.11,64.14,60.79,39.67,11.77,-30.0,32.85,9.6,29.68545454545455
14.15625,24.32,127.47,14.36,-26.46,64.18,59.16,34.92,11.8,-37.52,21.45,12.7,27.85272727272727
14.171875,22.7,125.55,10.52,-17.12,64.31,57.83,29.55,12.06,-43.55,7.23,14.83,25.81
14.1875,20.81,123.35,5.57,-7.8,64.61,57.31,23.72,12.52,-48.73,-9.65,15.96,23.424545454545456
14.203125,18.73,119.64,0.04,0.78,65.15,57.72,17.75,13.06,-53.98,-28.0,16.2,20.644545454545455
14.21875,16.52,113.7,-5.29,8.0,65.92,58.84,11.91,13.53,-60.2,-45.58,15.72,17.551818181818184
14.234375,14.17,105.64,-9.71,13.49,66.73,60.23,6.36,13.84,-67.88,-59.71,14.8,14.360000000000001
14.25,11.69,96.41,-12.77,17.14,67.27,61.49,1.1,13.99,-76.78,-68.0,13.71,11.386363636363637
14.265625,9.11,87.52,-14.55,19.15,67.15,62.39,-4.05,13.99,-85.78,-69.2,12.71,8.94909090909091
14.28125,6.57,80.6,-15.67,19.89,65.93,62.91,-9.29,13.84,-93.12,-63.72,11.92,7.26
14.296875,4.18,76.82,-16.98,19.74,63.37,63.09,-14.83,13.42,-96.83,-53.62,11.38,6.340000000000001
14.3125,2.02,76.51,-19.27,19.03,59.46,62.93,-20.8,12.55,-95.46,-42.08,11.05,5.994545454545456
14.328125,0.11,78.81,-22.77,18.02,54.45,62.42,-27.23,11.03,-88.53,-32.35,10.88,5.8945454545454545
14.34375,-1.64,81.62,-27.14,16.89,48.88,61.46,-33.98,8.83,-76.86,-26.88,10.82,5.6363636363636385
14.359375,-3.38,81.79,-31.61,15.83,43.32,60.12,-40.68,6.06,-62.17,-26.7,10.81,4.853636363636363
14.375,-5.24,75.84,-35.32,14.99,38.28,58.59,-46.67,3.07,-46.57,-31.36,10.72,3.3027272727272745
14.390625,-7.26,60.98,-37.8,14.51,34.01,57.17,-51.16,0.22,-31.83,-39.31,10.37,0.9000000000000014
14.40625,-9.42,36.26,-39.12,14.44,30.43,56.11,-53.48,-2.19,-18.96,-48.44,9.58,-2.2536363636363643
14.421875,-11.63,3.23,-39.85,14.81,27.19,55.43,-53.32,-4.09,-8.22,-56.64,8.23,-5.896363636363635
14.4375,-13.84,-34.06,-40.82,15.61,23.79,54.85,-50.89,-5.63,0.72,-62.13,6.32,-9.643636363636364
14.453125,-16.02,-70.11,-42.88,16.87,19.81,53.86,-46.89,-7.1,8.35,-63.7,4.06,-13.068181818181818
14.46875,-18.23,-99.45,-46.58,18.6,15.07,51.96,-42.18,-8.83,15.07,-60.75,1.73,-15.780909090909091
14.484375,-20.55,-118.06,-52.04,20.72,9.72,48.87,-37.41,-11.09,21.11,-53.43,-0.46,-17.510909090909095
14.5,-23.04,-124.23,-58.76,23.04,4.18,44.72,-32.89,-14.01,26.64,-42.51,-2.45,-18.11909090909091
14.515625,-25.78,-118.6,-65.47,25.23,-1.09,39.95,-28.57,-17.61,31.79,-29.29,-4.36,-17.61818181818182
14.53125,-28.87,-103.61,-70.29,26.93,-5.73,35.08,-24.3,-21.68,36.72,-15.2,-6.45,-16.127272727272725
14.546875,-32.39,-82.71,-71.01,27.86,-9.71,30.49,-20.08,-25.82,41.52,-1.53,-8.93,-13.846363636363636
14.5625,-36.28,-59.52,-65.78,27.95,-13.37,26.25,-16.17,-29.43,46.15,10.84,-11.91,-11.024545454545454
14.578125,-40.22,-37.32,-53.88,27.31,-17.25,22.11,-12.92,-31.83,50.44,21.49,-15.34,-7.946363636363637
14.59375,-43.49,-18.58,-36.19,26.19,-21.88,17.71,-10.56,-32.41,54.15,30.26,-19.01,-4.891818181818182
14.609375,-45.05,-4.85,-15.16,24.84,-27.58,12.73,-8.95,-30.83,57.11,37.12,-22.56,-2.107272727272727
14.625,-43.83,3.45,5.88,23.41,-34.29,7.07,-7.68,-27.19,59.27,42.02,-25.53,0.2345454545454544
14.640625,-39.13,6.79,23.79,21.91,-41.54,0.85,-6.19,-21.95,60.7,44.97,-27.4,2.072727272727273
14.65625,-30.92,6.28,36.56,20.29,-48.73,-5.64,-4.11,-15.81,61.5,46.15,-27.69,3.4436363636363647
14.671875,-19.97,3.34,43.72,18.48,-55.28,-12.1,-1.42,-9.52,61.7,45.98,-26.17,4.4327272727272735
14.6875,-7.66,-0.65,46.2,16.5,-60.95,-18.27,1.59,-3.68,61.25,45.07,-22.89,5.137272727272728
14.703125,4.44,-4.5,45.58,14.44,-65.87,-23.95,4.52,1.36,60.04,44.04,-18.16,5.630909090909089
14.71875,15.05,-7.51,43.33,12.46,-70.52,-28.99,7.08,5.45,58.01,43.37,-12.54,5.926363636363636
14.734375,23.47,-9.44,40.34,10.66,-75.59,-33.31,9.2,8.59,55.16,43.17,-6.56,5.97181818181818
14.75,29.57,-10.67,36.91,9.04,-81.83,-36.99,11.01,10.87,51.65,43.3,-0.65,5.655454545454545
14.765625,33.57,-11.98,33.01,7.52,-89.81,-40.34,12.65,12.4,47.64,43.32,4.93,4.81
14.78125,35.8,-14.2,28.72,5.96,-99.76,-43.85,14.15,13.36,43.27,42.74,9.99,3.2890909090909077
14.796875,36.47,-17.89,24.37,4.31,-111.27,-48.04,15.43,13.93,38.56,41.12,14.35,1.030909090909091
14.8125,35.76,-22.91,20.43,2.59,-123.1,-53.12,16.36,14.27,33.52,38.23,17.79,-1.8345454545454538
14.828125,33.9,-28.5,17.33,0.86,-133.22,-58.77,16.86,14.49,28.17,34.03,20.06,-4.980909090909091
14.84375,31.32,-33.49,15.21,-0.82,-139.14,-64.03,16.94,14.61,22.68,28.72,21.08,-7.90181818181818
14.859375,28.54,-36.89,13.89,-2.44,-138.67,-67.6,16.65,14.55,17.4,22.56,20.98,-10.093636363636362
14.875,26.09,-38.42,13.08,-4.11,-130.61,-68.24,16.03,14.2,12.64,15.67,20.1,-11.233636363636368
14.890625,24.28,-38.84,12.53,-5.91,-115.31,-65.25,15.03,13.55,8.59,7.94,18.94,-11.313636363636364
14.90625,23.14,-39.82,12.09,-7.93,-94.64,-58.78,13.63,12.68,5.16,-0.89,17.86,-10.681818181818183
14.921875,22.44,-43.51,11.66,-10.17,-71.36,-49.71,11.95,11.75,2.01,-11.12,17.07,-9.908181818181816
14.9375,21.93,-51.67,11.03,-12.56,-48.29,-39.43,10.22,10.94,-1.32,-22.73,16.54,-9.576363636363636
14.953125,21.5,-64.89,9.73,-15.02,-27.42,-29.23,8.78,10.32,-5.18,-35.29,16.1,-10.054545454545455
14.96875,21.18,-82.06,7.22,-17.48,-9.65,-20.14,7.83,9.86,-9.62,-47.92,15.63,-11.37727272727273
14.984375,21.07,-100.5,3.07,-19.88,5.12,-12.63,7.37,9.35,-14.41,-59.63,15.1,-13.270000000000003
15.0,21.23,-116.86,-2.77,-22.17,17.51,-6.74,7.12,8.56,-19.11,-69.59,14.62,-15.29090909090909
15.015625,21.54,-128.28,-9.88,-24.34,28.1,-2.19,6.72,7.31,-23.34,-77.49,14.28,-17.051818181818184
15.03125,21.79,-133.49,-17.73,-26.36,37.19,1.35,5.89,5.53,-26.94,-83.58,14.12,-18.384545454545457
15.046875,21.74,-133.2,-25.99,-28.32,44.83,4.23,4.58,3.24,-30.11,-88.61,13.99,-19.42
15.0625,21.26,-129.71,-34.75,-30.4,50.93,6.72,2.95,0.59,-33.31,-93.61,13.68,-20.513636363636365
15.078125,20.37,-125.9,-44.52,-32.88,55.51,8.95,1.2,-2.24,-37.13,-99.49,12.97,-22.105454545454545
15.09375,19.17,-124.22,-55.78,-35.99,58.69,11.02,-0.54,-5.07,-42.08,-106.79,11.77,-24.529090909090915
15.109375,17.75,-126.04,-68.47,-39.81,60.67,12.87,-2.28,-7.75,-48.48,-115.42,10.18,-27.889090909090907
15.125,16.18,-131.5,-81.67,-44.1,61.69,14.42,-4.05,-10.19,-56.24,-124.5,8.31,-31.968181818181822
15.140625,14.39,-139.67,-93.69,-48.3,61.9,15.52,-5.84,-12.38,-64.81,-132.38,6.34,-36.265454545454546
15.15625,12.32,-148.99,-102.55,-51.59,61.47,16.1,-7.56,-14.46,-73.14,-136.98,4.39,-40.09
15.171875,9.94,-157.42,-106.77,-53.14,60.61,16.16,-9.21,-16.7,-79.76,-136.3,2.48,-42.737272727272725
15.1875,7.33,-162.82,-105.9,-52.26,59.56,15.86,-10.94,-19.42,-83.13,-129.08,0.6,-43.65454545454545
15.203125,4.7,-163.34,-100.7,-48.6,58.62,15.45,-13.08,-22.88,-82.03,-115.31,-1.29,-42.58727272727273
15.21875,2.31,-157.97,-92.86,-42.24,58.0,15.14,-15.97,-27.07,-76.04,-96.4,-3.22,-39.66545454545455
15.234375,0.33,-146.94,-84.47,-33.68,57.77,14.98,-19.67,-31.59,-65.74,-74.78,-5.25,-35.36727272727273
15.25,-1.29,-131.74,-77.43,-23.72,57.71,14.83,-23.88,-35.67,-52.67,-53.21,-7.41,-30.40727272727273
15.265625,-2.85,-114.62,-73.03,-13.28,57.46,14.36,-27.88,-38.33,-38.81,-34.0,-9.8,-25.525454545454547
15.28125,-4.8,-97.85,-71.68,-3.25,56.53,13.25,-30.89,-38.74,-25.99,-18.39,-12.5,-21.30090909090909
15.296875,-7.51,-83.05,-72.75,5.67,54.49,11.32,-32.26,-36.53,-15.34,-6.57,-15.51,-18.00363636363636
15.3125,-11.13,-71.01,-74.52,13.02,51.08,8.66,-31.8,-31.93,-7.06,2.06,-18.72,-15.577272727272726
15.328125,-15.42,-61.95,-74.39,18.6,46.29,5.52,-29.76,-25.73,-0.61,8.36,-21.79,-13.716363636363639
15.34375,-19.88,-55.98,-69.5,22.41,40.34,2.32,-26.61,-18.94,4.91,12.97,-24.22,-12.016363636363637
15.359375,-23.97,-53.48,-57.73,24.62,33.61,-0.53,-22.93,-12.5,10.34,16.27,-25.42,-10.156363636363636
15.375,-27.32,-54.97,-38.63,25.45,26.49,-2.7,-19.15,-6.98,16.09,18.41,-24.92,-8.020909090909091
15.390625,-29.91,-60.8,-13.86,25.16,19.36,-3.96,-15.58,-2.47,22.13,19.59,-22.52,-5.714545454545455
15.40625,-31.99,-70.7,13.29,24.05,12.45,-4.24,-12.43,1.2,28.06,20.22,-18.37,-3.4963636363636357
15.421875,-34.04,-83.49,39.12,22.38,5.83,-3.58,-9.83,4.34,33.34,20.9,-12.93,-1.6327272727272728
15.4375,-36.59,-97.35,60.83,20.45,-0.51,-2.15,-7.85,7.22,37.53,22.29,-6.87,-0.2727272727272723
15.453125,-40.01,-110.25,77.49,18.54,-6.8,-0.21,-6.47,9.94,40.47,24.83,-0.75,0.6163636363636371
15.46875,-44.47,-120.63,89.96,16.92,-13.34,2.0,-5.5,12.46,42.3,28.57,5.02,1.2081818181818185
15.484375,-49.81,-127.9,99.91,15.8,-20.49,4.26,-4.69,14.69,43.39,33.07,10.2,1.6754545454545438
15.5,-55.48,-132.78,108.75,15.28,-28.5,6.48,-3.76,16.49,44.13,37.55,14.71,2.0790909090909095
15.515625,-60.54,-136.98,116.91,15.43,-37.37,8.67,-2.45,17.79,44.81,41.1,18.42,2.344545454545457
15.53125,-63.79,-142.32,123.89,16.19,-46.79,10.83,-0.59,18.61,45.46,43.05,21.21,2.3409090909090935
15.546875,-64.05,-149.66,128.96,17.47,-56.12,12.9,1.81,19.03,46.01,43.17,22.97,2.044545454545457
15.5625,-60.49,-157.9,131.88,19.15,-64.69,14.72,4.65,19.2,46.31,41.65,23.74,1.6563636363636347
15.578125,-52.96,-163.91,133.27,21.05,-71.99,16.06,7.73,19.23,46.34,38.97,23.8,1.5990909090909111
15.59375,-42.1,-163.31,134.31,23.0,-77.94,16.69,10.84,19.2,46.19,35.56,23.55,2.362727272727273
15.609375,-29.21,-152.1,136.12,24.83,-82.89,16.49,13.77,19.06,45.97,31.6,23.44,4.2799999999999985
15.625,-15.83,-128.16,139.15,26.4,-87.41,15.5,16.43,18.76,45.7,27.0,23.77,7.391818181818182
15.640625,-3.34,-91.95,142.99,27.63,-91.98,13.87,18.82,18.29,45.18,21.48,24.59,11.416363636363636
15.65625,7.37,-46.16,146.4,28.43,-96.8,11.84,21.06,17.66,44.09,14.79,25.69,15.851818181818185
15.671875,15.96,5.16,147.68,28.74,-101.67,9.61,23.24,16.86,42.07,6.99,26.71,20.122727272727275
15.6875,22.53,57.54,145.19,28.49,-106.15,7.27,25.39,15.88,39.0,-1.53,27.33,23.721818181818183
15.703125,27.35,106.6,137.8,27.61,-109.83,4.76,27.39,14.55,35.04,-10.07,27.31,26.228181818181824
15.71875,30.7,148.15,125.25,26.1,-112.55,1.89,28.92,12.68,30.64,-17.81,26.61,27.325454545454544
15.734375,32.78,178.41,108.31,24.1,-114.65,-1.55,29.69,10.11,26.34,-24.12,25.27,26.79
15.75,33.78,194.69,88.61,21.8,-116.87,-5.65,29.48,6.85,22.53,-28.71,23.36,24.533636363636365
15.765625,33.94,196.09,68.15,19.42,-120.24,-10.29,28.28,3.15,19.37,-31.92,20.92,20.62454545454546
15.78125,33.54,184.17,48.69,17.08,-125.86,-15.08,26.35,-0.62,16.67,-34.54,17.95,15.304545454545455
15.796875,32.83,162.51,31.29,14.77,-134.43,-19.44,24.12,-4.06,14.08,-37.66,14.47,8.952727272727271
15.8125,31.97,135.59,16.2,12.4,-145.96,-22.63,22.03,-6.97,11.21,-42.26,10.51,2.008181818181818
15.828125,30.98,107.4,3.12,9.86,-159.38,-23.98,20.45,-9.42,7.81,-48.96,6.15,-5.088181818181819
15.84375,29.88,80.56,-8.39,7.2,-172.61,-22.96,19.41,-11.77,3.85,-57.75,1.45,-11.920909090909094
15.859375,28.68,56.41,-18.47,4.57,-182.85,-19.39,18.58,-14.5,-0.5,-68.02,-3.53,-18.092727272727274
15.875,27.54,35.86,-26.92,2.16,-187.23,-13.55,17.31,-17.99,-4.91,-78.49,-8.75,-23.179090909090906
15.890625,26.69,20.12,-33.39,0.1,-183.59,-6.13,14.77,-22.35,-9.13,-87.39,-14.17,-26.770000000000003
15.90625,26.33,10.86,-37.81,-1.67,-171.08,1.8,10.24,-27.34,-13.03,-92.72,-19.63,-28.55
15.921875,26.53,9.62,-40.62,-3.34,-150.55,9.08,3.44,-32.35,-16.63,-92.59,-24.9,-28.391818181818177
15.9375,27.16,17.02,-42.69,-5.14,-124.22,14.78,-5.37,-36.51,-20.13,-85.83,-29.67,-26.41818181818182
15.953125,27.97,32.15,-44.98,-7.23,-95.21,18.44,-15.35,-38.96,-23.82,-72.46,-33.68,-23.01181818181818
15.96875,28.64,52.72,-48.14,-9.64,-66.67,20.15,-25.16,-39.02,-28.03,-53.99,-36.82,-18.723636363636363
15.984375,28.91,75.86,-52.16,-12.22,-41.07,20.46,-33.51,-36.45,-33.05,-33.01,-39.12,-14.123636363636365
16.0,28.59,98.83,-56.41,-14.79,-19.67,20.08,-39.39,-31.53,-39.08,-12.49,-40.79,-9.695454545454544
16.015625,27.69,119.73,-59.91,-17.12,-2.46,19.67,-42.49,-25.04,-46.12,5.21,-42.11,-5.722727272727271
16.03125,26.3,137.59,-61.74,-19.09,11.46,19.59,-43.21,-17.99,-53.78,18.99,-43.33,-2.291818181818181
16.046875,24.65,152.08,-61.31,-20.68,23.36,19.9,-42.52,-11.31,-61.17,29.1,-44.55,0.6863636363636367
16.0625,22.93,163.0,-58.49,-22.03,34.19,20.52,-41.73,-5.6,-66.97,36.64,-45.71,3.3409090909090904
16.078125,21.29,170.09,-53.37,-23.4,44.31,21.27,-42.04,-0.93,-69.69,42.73,-46.58,5.789090909090908
16.09375,19.71,172.96,-46.1,-25.1,53.48,22.05,-44.25,2.99,-68.15,48.01,-46.79,8.073636363636364
16.109375,18.02,171.43,-36.72,-27.49,61.21,22.82,-48.53,6.58,-61.96,52.4,-45.94,10.165454545454548
16.125,15.99,165.87,-25.34,-30.74,67.28,23.53,-54.36,10.2,-51.71,55.44,-43.75,12.037272727272727
16.140625,13.44,157.29,-12.49,-34.8,71.96,24.14,-60.68,13.84,-38.88,56.74,-40.15,13.673636363636364
16.15625,10.42,147.09,0.7,-39.29,76.0,24.58,-66.2,17.3,-25.33,56.38,-35.35,15.118181818181817
16.171875,7.12,136.64,12.69,-43.52,80.31,24.83,-69.79,20.26,-12.78,54.93,-29.78,16.446363636363632
16.1875,3.88,126.73,22.06,-46.64,85.63,24.87,-70.78,22.5,-2.31,53.19,-23.94,17.744545454545456
16.203125,1.02,117.43,28.05,-47.8,92.25,24.7,-69.13,23.97,5.78,51.93,-18.23,19.08818181818182
16.21875,-1.35,108.23,30.91,-46.37,100.11,24.31,-65.33,24.77,11.79,51.53,-12.88,20.520000000000003
16.234375,-3.31,98.49,31.6,-42.13,108.76,23.67,-60.24,25.02,16.4,51.97,-7.96,22.024545454545457
16.25,-5.12,88.0,31.22,-35.31,117.45,22.72,-54.7,24.86,20.27,52.91,-3.49,23.528181818181817
16.265625,-7.1,77.12,30.34,-26.54,125.17,21.46,-49.31,24.31,23.81,53.84,0.44,24.86727272727273
16.28125,-9.48,66.79,28.79,-16.73,130.57,19.96,-44.31,23.43,27.12,54.28,3.68,25.827272727272728
16.296875,-12.32,58.01,25.91,-6.83,132.3,18.3,-39.66,22.32,30.04,53.87,6.1,26.185454545454547
16.3125,-15.46,51.42,21.14,2.34,129.34,16.63,-35.2,21.1,32.31,52.44,7.75,25.80090909090909
16.328125,-18.63,46.81,14.52,10.15,121.43,15.01,-30.88,19.93,33.82,49.93,8.91,24.636363636363637
16.34375,-21.53,43.2,6.74,16.3,109.31,13.53,-26.85,18.92,34.64,46.5,10.07,22.80272727272727
16.359375,-23.98,39.08,-1.21,20.75,94.55,12.22,-23.4,18.11,35.07,42.3,11.73,20.474545454545453
16.375,-26.01,32.94,-8.53,23.6,79.07,11.11,-20.79,17.45,35.47,37.48,14.24,17.82090909090909
16.390625,-27.86,23.82,-14.98,25.03,64.5,10.25,-19.05,16.76,36.06,32.13,17.63,14.935454545454547
16.40625,-29.91,11.63,-20.81,25.24,51.87,9.65,-17.97,15.86,36.88,26.22,21.69,11.85
16.421875,-32.56,-2.84,-26.48,24.38,41.51,9.22,-17.13,14.54,37.72,19.69,26.0,8.549999999999999
16.4375,-36.13,-18.25,-32.22,22.61,33.27,8.8,-16.05,12.68,38.42,12.56,30.17,5.078181818181819
16.453125,-40.66,-33.18,-37.8,20.18,26.82,8.19,-14.31,10.21,38.83,5.01,33.9,1.5627272727272712
16.46875,-45.86,-46.72,-42.66,17.43,21.81,7.2,-11.63,7.25,38.96,-2.62,37.05,-1.7990909090909097
16.484375,-51.02,-58.64,-46.14,14.8,17.91,5.79,-7.84,4.0,38.88,-9.85,39.56,-4.777272727272726
16.5,-55.08,-69.46,-47.9,12.7,14.66,4.03,-2.92,0.76,38.63,-16.22,41.42,-7.216363636363638
16.515625,-56.83,-80.16,-48.15,11.44,11.54,2.06,2.95,-2.2,38.1,-21.44,42.6,-9.099090909090911
16.53125,-55.22,-91.83,-47.59,11.13,7.97,-0.03,9.35,-4.74,37.14,-25.5,43.01,-10.573636363636364
16.546875,-49.75,-105.24,-47.19,11.71,3.55,-2.28,15.7,-6.88,35.58,-28.7,42.56,-11.903636363636364
16.5625,-40.68,-120.53,-47.75,12.98,-1.81,-4.76,21.46,-8.85,33.3,-31.6,41.24,-13.363636363636367
16.578125,-29.08,-136.88,-49.64,14.72,-7.92,-7.55,26.29,-10.96,30.31,-34.93,39.14,-15.136363636363637
16.59375,-16.49,-152.46,-52.69,16.7,-14.41,-10.58,30.19,-13.61,26.72,-39.45,36.45,-17.23909090909091
16.609375,-4.45,-164.62,-56.31,18.76,-20.95,-13.62,33.4,-17.07,22.73,-45.83,33.37,-19.50818181818182
16.625,5.89,-170.48,-59.84,20.74,-27.26,-16.35,36.14,-21.43,18.58,-54.33,30.1,-21.658181818181816
16.640625,14.08,-167.67,-62.8,22.49,-33.17,-18.58,38.35,-26.45,14.51,-64.44,26.7,-23.36181818181818
16.65625,20.24,-155.08,-65.11,23.82,-38.53,-20.32,39.65,-31.52,10.77,-74.74,23.14,-24.334545454545456
16.671875,24.86,-133.25,-66.95,24.58,-43.11,-21.89,39.59,-35.78,7.5,-82.91,19.35,-24.364545454545453
16.6875,28.38,-104.18,-68.62,24.64,-46.71,-23.74,37.81,-38.33,4.68,-86.33,15.31,-23.37181818181818
16.703125,31.12,-70.84,-70.28,24.02,-49.22,-26.28,34.35,-38.51,2.13,-82.96,11.14,-21.39363636363636
16.71875,33.15,-36.31,-71.85,22.84,-50.86,-29.68,29.61,-36.16,-0.41,-72.14,6.99,-18.62
16.734375,34.41,-3.22,-73.03,21.26,-52.31,-33.79,24.08,-31.66,-3.19,-55.02,3.01,-15.405454545454546
16.75,34.91,26.54,-73.46,19.45,-54.58,-38.16,18.17,-25.79,-6.36,-34.21,-0.81,-12.209090909090907
16.765625,34.71,51.81,-72.93,17.49,-58.68,-42.14,12.11,-19.47,-9.92,-12.95,-4.59,-9.505454545454546
16.78125,33.99,71.96,-71.49,15.36,-65.08,-45.0,5.94,-13.38,-13.75,6.03,-8.54,-7.632727272727274
16.796875,32.95,86.74,-69.43,13.03,-73.22,-46.11,-0.33,-7.86,-17.71,21.18,-12.77,-6.684545454545455
16.8125,31.72,96.26,-67.3,10.52,-81.36,-45.08,-6.68,-2.91,-21.66,32.31,-17.13,-6.482727272727272
16.828125,30.33,100.97,-65.68,7.9,-86.94,-41.84,-12.96,1.68,-25.56,40.13,-21.23,-6.654545454545453
16.84375,28.81,101.74,-65.13,5.27,-87.4,-36.65,-18.91,6.06,-29.49,45.55,-24.48,-6.784545454545457
16.859375,27.27,99.68,-65.95,2.7,-81.13,-30.03,-24.14,10.25,-33.54,49.23,-26.34,-6.545454545454544
16.875,25.89,95.94,-68.07,0.16,-67.98,-22.59,-28.3,14.13,-37.89,51.44,-26.56,-5.802727272727274
16.890625,24.92,91.53,-70.92,-2.48,-49.34,-14.85,-31.22,17.49,-42.76,52.24,-25.22,-4.600909090909091
16.90625,24.53,87.11,-73.42,-5.3,-27.53,-7.2,-33.11,20.16,-48.4,51.74,-22.65,-3.097272727272727
16.921875,24.67,83.01,-74.23,-8.33,-4.96,0.14,-34.62,22.08,-55.01,50.31,-19.3,-1.4763636363636357
16.9375,25.04,79.3,-72.01,-11.43,16.51,7.02,-36.72,23.3,-62.52,48.5,-15.48,0.13727272727272774
16.953125,25.21,75.95,-65.81,-14.36,35.86,13.24,-40.29,23.93,-70.4,46.86,-11.38,1.7099999999999989
16.96875,24.81,72.86,-55.33,-16.9,52.8,18.64,-45.76,24.12,-77.55,45.85,-7.1,3.312727272727274
16.984375,23.75,69.98,-41.05,-18.97,67.48,23.07,-52.81,24.0,-82.44,45.61,-2.79,5.075454545454547
17.0,22.21,67.22,-24.13,-20.66,80.18,26.49,-60.48,23.66,-83.5,46.08,1.26,7.120909090909092
17.015625,20.56,64.47,-6.18,-22.24,91.2,28.9,-67.43,23.17,-79.77,46.97,4.66,9.482727272727272
17.03125,19.18,61.5,11.07,-24.05,100.64,30.35,-72.44,22.63,-71.21,47.88,7.03,12.052727272727275
17.046875,18.2,58.07,26.1,-26.38,108.31,30.78,-74.72,22.12,-58.95,48.39,8.21,14.55727272727273
17.0625,17.52,53.9,37.85,-29.43,113.67,30.15,-74.06,21.7,-44.85,48.08,8.31,16.621818181818185
17.078125,16.88,48.75,45.88,-33.13,115.84,28.47,-70.63,21.42,-30.95,46.62,7.71,17.896363636363642
17.09375,16.0,42.48,50.33,-37.23,114.08,25.97,-64.75,21.2,-18.77,43.87,6.9,18.18909090909091
17.109375,14.72,35.02,51.84,-41.21,108.17,23.12,-56.71,20.9,-8.97,39.87,6.31,17.55090909090909
17.125,13.02,26.42,51.23,-44.36,98.82,20.57,-46.75,20.33,-1.33,34.82,6.19,16.269090909090906
17.140625,10.94,16.84,49.34,-45.9,87.72,18.92,-35.2,19.27,4.87,29.0,6.56,14.760000000000002
17.15625,8.53,6.55,46.85,-45.09,77.03,18.48,-22.65,17.62,10.46,22.69,7.27,13.430909090909092
17.171875,5.84,-4.09,44.22,-41.49,68.75,19.1,-9.93,15.42,15.98,16.02,8.11,12.539090909090909
17.1875,2.94,-14.67,41.82,-35.12,64.04,20.29,2.0,12.79,21.59,9.03,8.91,12.147272727272728
17.203125,0.04,-24.92,39.92,-26.46,62.91,21.4,12.35,9.94,27.13,1.74,9.61,12.150909090909089
17.21875,-2.62,-34.77,38.74,-16.43,64.36,21.89,20.73,7.04,32.3,-5.82,10.22,12.330909090909092
17.234375,-4.81,-44.4,38.28,-6.13,66.79,21.54,27.18,4.21,36.84,-13.53,10.78,12.431818181818182
17.25,-6.53,-54.29,38.33,3.43,68.47,20.46,32.05,1.46,40.58,-21.2,11.24,12.18181818181818
17.265625,-8.05,-65.1,38.44,11.56,67.95,18.97,35.69,-1.21,43.49,-28.68,11.46,11.32
17.28125,-9.75,-77.41,38.13,17.9,64.28,17.38,38.2,-3.83,45.56,-35.92,11.23,9.615454545454547
17.296875,-12.02,-91.45,37.09,22.37,57.07,15.9,39.49,-6.4,46.84,-43.0,10.4,6.935454545454547
17.3125,-14.98,-106.75,35.28,25.09,46.56,14.53,39.35,-8.99,47.38,-50.16,9.02,3.3027272727272727
17.328125,-18.45,-121.86,32.98,26.27,33.46,13.25,37.76,-11.65,47.31,-57.64,7.3,-1.024545454545455
17.34375,-22.01,-134.45,30.57,26.15,18.78,12.05,34.94,-14.54,46.85,-65.64,5.59,-5.6099999999999985
17.359375,-25.19,-141.7,28.31,25.09,3.55,10.95,31.37,-17.75,46.29,-74.31,4.15,-9.93090909090909
17.375,-27.71,-141.08,26.18,23.44,-11.5,9.96,27.61,-21.35,45.91,-83.81,3.05,-13.572727272727274
17.390625,-29.6,-131.18,23.88,21.54,-25.97,9.03,24.21,-25.1,45.88,-94.18,2.12,-16.30636363636364
17.40625,-31.18,-112.17,21.06,19.64,-39.88,7.93,21.57,-28.57,46.13,-105.21,1.08,-18.145454545454545
17.421875,-32.94,-85.89,17.44,17.93,-53.34,6.37,19.95,-31.1,46.37,-116.08,-0.34,-19.239090909090905
17.4375,-35.37,-55.26,13.11,16.51,-66.43,4.12,19.44,-32.03,46.17,-125.15,-2.2,-19.735454545454544
17.453125,-38.75,-23.53,8.47,15.49,-78.98,1.15,19.88,-30.95,45.17,-130.14,-4.4,-19.69
17.46875,-43.09,6.56,4.09,14.98,-90.62,-2.22,20.86,-27.86,43.19,-128.65,-6.78,-19.04909090909091
17.484375,-47.91,33.11,0.5,15.08,-100.81,-5.42,21.79,-23.15,40.31,-119.07,-9.18,-17.704545454545453
17.5,-52.3,55.13,-2.08,15.84,-109.0,-7.69,22.05,-17.46,36.86,-101.41,-11.59,-15.604545454545455
17.515625,-55.04,72.26,-3.82,17.19,-114.64,-8.37,21.23,-11.52,33.26,-77.54,-14.07,-12.823636363636364
17.53125,-54.95,84.55,-5.21,18.96,-117.23,-7.13,19.29,-5.85,29.84,-50.77,-16.69,-9.562727272727273
17.546875,-51.26,92.27,-6.86,20.94,-116.4,-4.12,16.56,-0.76,26.76,-24.78,-19.34,-6.090000000000001
17.5625,-44.0,95.91,-9.3,22.86,-112.02,0.05,13.57,3.7,23.95,-2.5,-21.67,-2.6772727272727277
17.578125,-33.99,96.18,-12.73,24.49,-104.39,4.54,10.79,7.62,21.2,14.7,-23.18,0.4754545454545458
17.59375,-22.61,93.99,-16.91,25.61,-94.13,8.58,8.41,11.09,18.27,26.98,-23.36,3.2654545454545456
17.609375,-11.28,90.23,-21.29,26.11,-81.93,11.72,6.31,14.21,15.04,35.48,-21.87,5.702727272727272
17.625,-1.08,85.61,-25.19,25.92,-68.1,13.96,4.15,16.97,11.58,41.45,-18.74,7.866363636363638
17.640625,7.52,80.51,-28.15,25.12,-52.36,15.61,1.6,19.35,8.05,45.75,-14.28,9.883636363636363
17.65625,14.52,74.94,-30.08,23.82,-34.08,17.0,-1.56,21.21,4.68,48.61,-9.12,11.812727272727273
17.671875,20.1,68.76,-31.34,22.14,-12.89,18.27,-5.37,22.45,1.56,50.03,-3.88,13.620909090909093
17.6875,24.39,61.9,-32.54,20.12,10.56,19.26,-9.76,23.06,-1.33,50.1,0.91,15.15181818181818
17.703125,27.38,54.53,-34.39,17.77,34.3,19.62,-14.57,23.09,-4.23,49.33,4.98,16.16454545454545
17.71875,29.03,47.14,-37.44,15.07,55.45,19.05,-19.69,22.7,-7.38,48.56,8.26,16.431818181818183
17.734375,29.45,40.42,-41.85,12.1,71.3,17.4,-25.0,22.12,-10.94,48.69,10.74,15.857272727272727
17.75,29.01,35.01,-47.35,9.01,80.6,14.8,-30.43,21.52,-14.88,50.34,12.39,14.547272727272725
17.765625,28.21,31.22,-53.16,5.98,84.24,11.55,-35.92,20.97,-19.05,53.53,13.2,12.797272727272729
17.78125,27.52,28.87,-57.99,3.09,85.11,7.91,-41.44,20.46,-23.13,57.73,13.19,11.02909090909091
17.796875,27.13,27.25,-60.18,0.33,86.88,4.08,-47.03,19.97,-26.9,61.99,12.5,9.638181818181817
17.8125,26.95,25.38,-58.01,-2.42,92.67,0.07,-52.72,19.44,-30.26,65.29,11.47,8.896363636363636
17.828125,26.73,22.27,-50.25,-5.31,103.96,-4.18,-58.38,18.87,-33.32,66.83,10.47,8.88090909090909
17.84375,26.21,17.26,-36.68,-8.34,120.41,-8.66,-63.67,18.23,-36.39,66.21,9.82,9.490909090909092
17.859375,25.36,10.24,-18.44,-11.44,140.45,-13.3,-68.01,17.47,-39.91,63.41,9.62,10.495454545454544
17.875,24.32,1.58,2.12,-14.43,162.11,-17.95,-70.69,16.49,-44.34,58.68,9.79,11.607272727272727
17.890625,23.35,-8.11,22.1,-17.11,183.68,-22.47,-71.11,15.25,-49.98,52.35,10.11,12.55090909090909
17.90625,22.71,-18.12,38.96,-19.43,203.94,-26.85,-68.97,13.73,-56.85,44.69,10.38,13.108181818181817
17.921875,22.46,-28.02,51.24,-21.39,221.92,-31.14,-64.34,11.99,-64.41,35.86,10.45,13.147272727272723
17.9375,22.5,-37.68,58.89,-23.18,236.65,-35.42,-57.58,10.11,-71.53,25.98,10.3,12.640000000000002
17.953125,22.56,-47.35,62.92,-25.01,247.14,-39.65,-49.17,8.18,-76.63,15.14,9.96,11.644545454545453
17.96875,22.42,-57.48,64.77,-27.16,252.61,-43.56,-39.59,6.22,-78.11,3.53,9.45,10.281818181818183
17.984375,21.92,-68.57,65.54,-29.88,252.72,-46.58,-29.19,4.24,-74.87,-8.56,8.82,8.69
18.0,21.04,-80.82,65.66,-33.26,247.9,-48.05,-18.3,2.25,-66.8,-20.79,8.07,6.990909090909091
18.015625,19.88,-93.86,64.93,-37.24,239.12,-47.39,-7.26,0.29,-54.84,-32.8,7.17,5.272727272727275
18.03125,18.52,-106.5,63.01,-41.45,227.6,-44.37,3.5,-1.58,-40.77,-44.29,6.11,3.616363636363632
18.046875,17.1,-116.74,59.82,-45.31,214.46,-39.29,13.58,-3.33,-26.59,-55.16,4.79,2.120909090909093
18.0625,15.59,-122.21,55.75,-48.07,200.6,-32.92,22.6,-5.02,-13.93,-65.43,3.18,0.9218181818181825
18.078125,13.99,-120.75,51.59,-49.01,186.66,-26.22,30.39,-6.76,-3.69,-75.34,1.24,0.19090909090908958
18.09375,12.21,-111.1,47.99,-47.59,173.26,-20.16,36.91,-8.75,4.07,-85.21,-0.93,0.0636363636363645
18.109375,10.23,-93.45,45.23,-43.6,160.89,-15.35,42.2,-11.12,9.85,-95.46,-3.19,0.5663636363636365
18.125,8.03,-69.44,43.0,-37.21,149.84,-11.95,46.38,-13.93,14.37,-106.5,-5.41,1.5618181818181847
18.140625,5.71,-41.71,40.72,-28.93,140.08,-9.76,49.55,-17.11,18.26,-118.68,-7.54,2.7809090909090908
18.15625,3.4,-13.21,37.79,-19.53,131.21,-8.33,51.88,-20.51,21.86,-132.16,-9.69,3.8827272727272732
18.171875,1.27,13.51,33.93,-9.91,122.68,-7.24,53.61,-23.83,25.3,-146.71,-12.04,4.597272727272731
18.1875,-0.56,36.79,29.27,-0.85,114.16,-6.15,55.08,-26.69,28.52,-161.44,-14.76,4.851818181818179
18.203125,-2.03,55.8,24.19,7.07,105.73,-4.93,56.63,-28.59,31.41,-174.79,-17.92,4.77909090909091
18.21875,-3.16,70.36,19.09,13.58,97.84,-3.57,58.5,-29.08,33.9,-184.67,-21.33,4.678181818181818
18.234375,-4.08,80.59,14.19,18.63,90.97,-2.09,60.71,-27.78,35.94,-189.17,-24.58,4.848181818181823
18.25,-5.0,86.68,9.55,22.32,85.19,-0.57,63.04,-24.66,37.53,-187.13,-27.1,5.440909090909095
18.265625,-6.14,88.94,5.12,24.72,79.93,0.98,65.14,-20.03,38.66,-178.81,-28.38,6.37545454545455
18.28125,-7.67,87.88,0.93,25.87,74.14,2.52,66.65,-14.53,39.4,-165.87,-28.03,7.39
18.296875,-9.63,84.26,-2.9,25.8,66.78,4.05,67.36,-8.91,39.8,-150.97,-25.98,8.150909090909092
18.3125,-11.92,78.98,-6.23,24.67,57.23,5.59,67.36,-3.8,40.01,-136.82,-22.47,8.418181818181818
18.328125,-14.31,72.9,-8.97,22.8,45.53,7.11,66.92,0.55,40.16,-125.29,-17.91,8.135454545454545
18.34375,-16.49,66.57,-11.22,20.68,32.18,8.63,66.41,4.19,40.37,-116.96,-12.79,7.415454545454545
18.359375,-18.25,60.16,-13.2,18.81,17.83,10.11,66.15,7.37,40.65,-110.93,-7.53,6.4700000000000015
18.375,-19.56,53.55,-15.18,17.59,3.05,11.51,66.32,10.27,40.9,-105.45,-2.44,5.505454545454544
18.390625,-20.64,46.59,-17.31,17.2,-11.66,12.79,66.91,12.86,40.95,-98.59,2.18,4.661818181818181
18.40625,-21.87,39.38,-19.63,17.63,-25.58,13.94,67.73,14.92,40.56,-88.86,6.04,4.023636363636364
18.421875,-23.72,32.32,-22.03,18.75,-37.61,14.9,68.35,16.25,39.53,-75.68,8.84,3.6272727272727265
18.4375,-26.51,25.97,-24.34,20.35,-46.4,15.6,68.08,16.77,37.75,-59.32,10.43,3.489090909090909
18.453125,-30.26,20.73,-26.52,22.24,-51.06,15.97,66.11,16.65,35.21,-40.65,10.85,3.57
18.46875,-34.54,16.57,-28.72,24.17,-51.89,15.94,61.7,16.21,32.07,-20.7,10.4,3.7463636363636366
18.484375,-38.51,12.93,-31.26,25.95,-50.58,15.54,54.52,15.73,28.56,-0.39,9.57,3.8236363636363633
18.5,-41.13,8.9,-34.56,27.35,-49.52,14.84,44.88,15.38,24.96,19.67,8.81,3.598181818181818
18.515625,-41.38,3.61,-38.88,28.22,-50.56,14.02,33.68,15.14,21.52,39.05,8.39,2.9827272727272716
18.53125,-38.62,-3.39,-43.99,28.5,-53.99,13.23,22.32,14.93,18.37,57.38,8.34,2.098181818181818
18.546875,-32.79,-11.95,-49.06,28.21,-58.43,12.6,12.24,14.68,15.43,74.27,8.5,1.2454545454545458
18.5625,-24.46,-21.46,-52.7,27.41,-61.87,12.16,4.69,14.43,12.57,89.31,8.67,0.7954545454545466
18.578125,-14.65,-31.16,-53.24,26.24,-63.0,11.85,0.48,14.27,9.58,102.22,8.71,1.0272727272727264
18.59375,-4.59,-40.52,-49.4,24.77,-62.1,11.57,-0.03,14.24,6.37,112.93,8.62,1.987272727272728
18.609375,4.63,-49.43,-40.71,23.09,-60.73,11.22,3.11,14.26,2.99,121.7,8.48,3.51
18.625,12.25,-58.22,-27.88,21.28,-60.62,10.75,9.45,14.12,-0.41,128.9,8.35,5.270000000000002
18.640625,17.93,-67.48,-12.59,19.36,-62.33,10.08,18.14,13.54,-3.69,134.92,8.32,6.927272727272726
18.65625,21.72,-77.81,2.97,17.33,-64.81,9.21,27.98,12.39,-6.84,139.99,8.35,8.225454545454546
18.671875,23.82,-89.6,16.85,15.13,-66.01,8.11,37.61,10.7,-10.03,144.08,8.34,9.000000000000002
18.6875,24.57,-102.65,27.81,12.7,-64.09,6.78,45.77,8.67,-13.57,147.01,8.17,9.197272727272725
18.703125,24.26,-116.07,35.54,10.03,-58.54,5.27,51.67,6.6,-17.74,148.48,7.73,8.839090909090912
18.71875,23.12,-128.18,40.38,7.17,-50.38,3.61,55.18,4.7,-22.58,148.3,6.94,8.023636363636365
18.734375,21.34,-136.7,42.99,4.23,-41.57,1.86,56.7,3.06,-27.85,146.45,5.74,6.931818181818182
18.75,19.14,-139.24,43.93,1.37,-34.04,-0.02,56.94,1.62,-33.06,143.22,4.16,5.8199999999999985
18.765625,16.81,-133.94,43.58,-1.32,-28.94,-2.06,56.5,0.24,-37.7,139.14,2.22,4.957272727272724
18.78125,14.74,-120.12,42.14,-3.79,-26.54,-4.29,55.68,-1.12,-41.47,134.85,-0.03,4.55
18.796875,13.29,-98.52,39.89,-6.1,-26.53,-6.67,54.41,-2.46,-44.55,130.85,-2.44,4.651818181818182
18.8125,12.7,-71.18,37.18,-8.37,-28.57,-9.09,52.26,-3.69,-47.5,127.36,-4.9,5.10909090909091
18.828125,12.94,-40.98,34.49,-10.68,-32.46,-11.39,48.66,-4.77,-51.11,124.23,-7.23,5.609090909090909
18.84375,13.78,-10.87,32.17,-13.06,-38.23,-13.43,43.03,-5.78,-56.04,121.03,-9.3,5.754545454545456
18.859375,14.83,16.66,30.37,-15.46,-45.99,-15.14,34.88,-6.85,-62.5,117.18,-11.14,5.167272727272729
18.875,15.77,39.95,29.0,-17.8,-55.67,-16.53,24.02,-8.17,-70.04,112.18,-12.89,3.62
18.890625,16.45,58.25,27.79,-20.02,-66.69,-17.63,10.79,-9.86,-77.61,105.56,-14.78,1.113636363636365
18.90625,16.9,71.54,26.48,-22.13,-77.99,-18.48,-3.77,-11.96,-83.7,97.0,-17.02,-2.102727272727274
18.921875,17.25,80.27,24.84,-24.2,-88.23,-19.12,-17.93,-14.45,-86.8,86.26,-19.6,-5.61
18.9375,17.57,85.16,22.8,-26.41,-96.17,-19.61,-29.63,-17.27,-85.71,73.44,-22.24,-8.915454545454546
18.953125,17.76,86.95,20.36,-28.92,-101.13,-20.05,-37.18,-20.27,-80.0,59.25,-24.39,-11.601818181818182
18.96875,17.63,86.27,17.54,-31.93,-103.21,-20.59,-39.93,-23.17,-70.1,45.2,-25.38,-13.424545454545456
18.984375,17.01,83.65,14.4,-35.53,-103.09,-21.33,-38.6,-25.5,-57.25,33.49,-24.72,-14.315454545454543
19.0,15.82,79.46,11.03,-39.59,-101.81,-22.35,-35.11,-26.69,-43.15,26.48,-22.19,-14.372727272727273
19.015625,14.2,74.04,7.58,-43.67,-100.28,-23.6,-31.82,-26.19,-29.51,25.94,-18.03,-13.758181818181816
19.03125,12.44,67.7,4.2,-47.01,-99.02,-24.99,-30.65,-23.74,-17.6,32.36,-12.77,-12.64363636363636
19.046875,10.78,60.85,1.03,-48.66,-98.14,-26.46,-32.4,-19.52,-7.98,44.7,-7.05,-11.168181818181814
19.0625,9.37,53.88,-1.92,-47.79,-97.37,-28.05,-36.74,-14.18,-0.54,60.71,-1.45,-9.461818181818181
19.078125,8.13,47.12,-4.77,-43.95,-96.2,-29.9,-42.58,-8.52,5.31,77.71,3.68,-7.633636363636362
19.09375,6.84,40.86,-7.71,-37.31,-94.11,-32.16,-48.79,-3.32,10.23,93.38,8.19,-5.8090909090909095
19.109375,5.28,35.24,-10.91,-28.54,-90.62,-34.89,-54.65,1.02,14.78,106.41,12.0,-4.079999999999999
19.125,3.34,30.3,-14.44,-18.69,-85.45,-37.87,-59.98,4.48,19.19,116.51,14.98,-2.5118181818181817
19.140625,1.12,25.94,-18.19,-8.82,-78.61,-40.61,-64.95,7.27,23.42,124.23,16.97,-1.1118181818181823
19.15625,-1.13,21.92,-21.94,0.21,-70.43,-42.41,-69.72,9.63,27.24,130.32,17.82,0.1372727272727271
19.171875,-3.12,17.87,-25.41,7.83,-61.5,-42.57,-74.31,11.66,30.4,135.33,17.58,1.2509090909090914
19.1875,-4.76,13.41,-28.42,13.81,-52.48,-40.63,-78.56,13.28,32.7,139.27,16.56,2.198181818181821
19.203125,-6.13,8.16,-30.92,18.1,-43.96,-36.56,-82.39,14.39,34.09,141.7,15.24,2.883636363636363
19.21875,-7.54,1.96,-33.05,20.85,-36.13,-30.74,-85.97,15.02,34.64,141.95,14.07,3.187272727272727
19.234375,-9.3,-5.1,-35.11,22.27,-28.84,-23.83,-89.75,15.34,34.54,139.6,13.28,3.0090909090909084
19.25,-11.58,-12.73,-37.49,22.67,-21.74,-16.57,-94.24,15.64,34.04,134.81,12.84,2.331818181818182
19.265625,-14.33,-20.59,-40.65,22.32,-14.46,-9.59,-99.68,16.18,33.35,128.38,12.51,1.22181818181818
19.28125,-17.26,-28.51,-44.96,21.46,-7.06,-3.32,-105.74,16.99,32.66,121.55,12.02,-0.1972727272727284
19.296875,-20.08,-36.68,-50.55,20.3,-0.07,1.98,-111.46,17.98,32.12,115.51,11.3,-1.786363636363634
19.3125,-22.61,-45.7,-57.11,19.02,5.56,6.2,-115.51,18.98,31.77,110.89,10.37,-3.467272727272728
19.328125,-24.9,-56.34,-63.63,17.8,8.82,9.31,-116.6,19.83,31.56,107.64,9.42,-5.189999999999998
19.34375,-27.16,-69.15,-68.48,16.83,9.03,11.4,-114.0,20.54,31.3,105.11,8.58,-6.909090909090909
19.359375,-29.64,-83.96,-69.65,16.28,6.22,12.7,-107.74,21.18,30.74,102.55,7.9,-8.492727272727272
19.375,-32.56,-99.57,-65.38,16.23,1.22,13.51,-98.56,21.81,29.57,99.42,7.33,-9.725454545454541
19.390625,-35.97,-113.76,-54.86,16.71,-4.48,14.07,-87.58,22.4,27.61,95.62,6.75,-10.317272727272728
19.40625,-39.87,-123.7,-38.74,17.65,-9.18,14.5,-75.93,22.81,24.91,91.35,6.09,-10.010000000000002
19.421875,-44.12,-126.62,-19.06,18.98,-11.33,14.68,-64.47,22.86,21.81,86.83,5.25,-8.653636363636362
19.4375,-48.44,-120.69,1.34,20.6,-9.88,14.36,-53.77,22.49,18.91,82.15,4.18,-6.25
19.453125,-52.32,-105.49,19.73,22.41,-4.55,13.32,-44.12,21.78,16.93,77.17,2.87,-2.933636363636364
19.46875,-54.92,-82.27,34.38,24.26,4.22,11.52,-35.69,20.95,16.38,71.71,1.31,1.0772727272727265
19.484375,-55.28,-53.54,44.91,25.91,15.3,9.23,-28.43,20.27,17.39,65.65,-0.45,5.541818181818183
19.5,-52.58,-22.52,52.05,27.1,27.19,6.92,-22.12,19.93,19.49,59.02,-2.33,10.195454545454547
19.515625,-46.47,7.66,56.96,27.59,38.4,5.09,-16.24,19.94,21.82,51.92,-4.25,14.765454545454547
19.53125,-37.37,34.54,60.58,27.24,47.75,4.01,-10.15,20.22,23.4,44.5,-6.22,18.954545454545453
