Timestamp,Participant_11,Participant_12,Participant_13,Participant_14,Participant_15,Participant_16,Participant_17,Participant_18,Participant_22,Participant_23,Participant_24,Average
0.0,2056678.0,2001601.0,2127835.0,2079998.0,2196565.0,2086748.0,2240782.0,1825487.0,2101461.0,2183877.0,2037746.0,2085343.4545454546
0.015625,2052473.0,2002127.0,2128623.0,2080178.0,2197934.0,2088144.0,2239866.0,1825627.0,2099002.0,2185201.0,2038379.0,2085232.1818181819
0.03125,2049087.0,2002436.0,2127299.0,2080165.0,2199338.0,2090051.0,2232404.0,1825780.0,2094951.0,2186652.0,2039384.0,2084322.4545454546
0.046875,2045959.0,2003300.0,2129623.0,2080316.0,2200672.0,2091976.0,2237053.0,1826432.0,2091867.0,2188133.0,2040360.0,2085062.8181818181
0.0625,2043556.0,2004473.0,2137202.0,2080453.0,2202813.0,2093677.0,2227467.0,1826690.0,2093474.0,2189592.0,2041247.0,2085513.0909090908
0.078125,2040491.0,2006145.0,2124855.0,2079310.0,2204425.0,2095493.0,2222438.0,1827181.0,2097069.0,2189683.0,2041917.0,2084455.1818181819
0.09375,2037851.0,2007937.0,2131887.0,2076984.0,2206229.0,2096151.0,2217567.0,1827632.0,2102508.0,2187652.0,2043143.0,2085049.1818181819
0.109375,2035610.0,2010034.0,2129464.0,2074277.0,2207659.0,2094684.0,2214285.0,1828232.0,2108538.0,2185977.0,2043857.0,2084783.3636363635
0.125,2033287.0,2012393.0,2133191.0,2072365.0,2209308.0,2088297.0,2211406.0,1828802.0,2113710.0,2184578.0,2044680.0,2084728.8181818181
0.140625,2031644.0,2014631.0,2135142.0,2070890.0,2208132.0,2080926.0,2208609.0,1829276.0,2115415.0,2183923.0,2045291.0,2083989.0
0.15625,2030142.0,2014384.0,2134352.0,2070730.0,2202639.0,2075104.0,2206732.0,1830060.0,2110076.0,2183279.0,2045341.0,2082076.2727272727
0.171875,2029200.0,2010219.0,2130799.0,2070877.0,2197275.0,2070959.0,2204943.0,1830853.0,2102241.0,2183211.0,2045565.0,2079649.2727272727
0.1875,2028209.0,2005020.0,2121632.0,2071233.0,2193834.0,2067526.0,2203419.0,1830964.0,2095708.0,2182746.0,2046008.0,2076936.2727272727
0.203125,2027374.0,2000552.0,2135828.0,2071069.0,2191764.0,2062017.0,2202755.0,1829738.0,2089200.0,2182346.0,2047163.0,2076346.0
0.21875,2026865.0,1997912.0,2126836.0,2070755.0,2190862.0,2059020.0,2202003.0,1828792.0,2082504.0,2182131.0,2049574.0,2074295.8181818181
0.234375,2026539.0,1996354.0,2119018.0,2070348.0,2191335.0,2056747.0,2201644.0,1827758.0,2077315.0,2182349.0,2054249.0,2073059.6363636365
0.25,2026070.0,1995686.0,2117449.0,2070359.0,2191707.0,2064762.0,2201505.0,1826692.0,2074123.0,2182923.0,2059257.0,2073684.8181818181
0.265625,2025230.0,1996079.0,2115951.0,2070774.0,2191972.0,2055278.0,2201426.0,1825824.0,2070848.0,2183480.0,2064559.0,2072856.4545454546
0.28125,2024771.0,1996780.0,2116640.0,2070978.0,2192429.0,2054276.0,2201891.0,1825440.0,2068188.0,2184380.0,2069331.0,2073191.2727272727
0.296875,2024598.0,1997023.0,2115073.0,2070708.0,2192965.0,2053754.0,2203141.0,1825011.0,2066122.0,2185659.0,2073889.0,2073449.3636363635
0.3125,2025152.0,1997546.0,2114676.0,2071080.0,2193893.0,2053571.0,2203957.0,1825114.0,2064202.0,2186775.0,2078734.0,2074063.6363636365
0.328125,2025565.0,1998242.0,2114420.0,2071602.0,2194830.0,2054377.0,2205294.0,1824876.0,2062395.0,2187948.0,2083214.0,2074796.6363636365
0.34375,2026643.0,1999422.0,2115746.0,2072444.0,2196335.0,2055719.0,2204631.0,1824700.0,2057773.0,2189153.0,2086508.0,2075370.3636363635
0.359375,2027020.0,2000883.0,2118032.0,2073185.0,2197819.0,2057797.0,2202877.0,1824663.0,2052410.0,2190726.0,2088780.0,2075835.6363636365
0.375,2023228.0,2002633.0,2114990.0,2072896.0,2199280.0,2058782.0,2197107.0,1824910.0,2060288.0,2191064.0,2090470.0,2075968.0
0.390625,2016668.0,2004930.0,2116783.0,2071641.0,2200712.0,2060142.0,2189653.0,1825135.0,2057100.0,2189062.0,2092337.0,2074923.9090909092
0.40625,2010352.0,2006863.0,2119338.0,2070941.0,2202132.0,2061466.0,2181120.0,1825546.0,2053312.0,2186666.0,2094248.0,2073816.7272727273
0.421875,2006138.0,2009369.0,2120759.0,2070819.0,2203924.0,2063384.0,2174666.0,1825996.0,2050760.0,2184821.0,2096543.0,2073379.9090909092
0.4375,2002689.0,2010946.0,2123291.0,2070827.0,2205469.0,2065442.0,2169361.0,1826444.0,2045566.0,2183618.0,2101704.0,2073214.2727272727
0.453125,1999782.0,2008760.0,2128084.0,2071070.0,2206894.0,2067321.0,2163605.0,1826618.0,2049397.0,2182562.0,2099229.0,2073029.2727272727
0.46875,1997830.0,2003519.0,2130246.0,2072015.0,2208629.0,2069382.0,2158328.0,1827380.0,2050983.0,2182012.0,2103134.0,2073041.6363636365
0.484375,1995987.0,1998489.0,2132644.0,2072857.0,2209810.0,2071094.0,2154896.0,1828173.0,2053797.0,2181746.0,2104037.0,2073048.1818181819
0.5,1994230.0,1994845.0,2134348.0,2073561.0,2211831.0,2073164.0,2153123.0,1828961.0,2056935.0,2181374.0,2104887.0,2073387.1818181819
0.515625,1991497.0,1992896.0,2125612.0,2073670.0,2213001.0,2073914.0,2152580.0,1829687.0,2060217.0,2181195.0,2104961.0,2072657.2727272727
0.53125,1989467.0,1991950.0,2132060.0,2074115.0,2211959.0,2071731.0,2153620.0,1829978.0,2041361.0,2181362.0,2105868.0,2071224.6363636365
0.546875,1987653.0,1992364.0,2126993.0,2074742.0,2207769.0,2070246.0,2155194.0,1829559.0,2038020.0,2181724.0,2106026.0,2070026.3636363635
0.5625,1986320.0,1992910.0,2121476.0,2075395.0,2202628.0,2069360.0,2154553.0,1828595.0,2063334.0,2182612.0,2106524.0,2071246.0909090908
0.578125,1985328.0,1993286.0,2119691.0,2076380.0,2198725.0,2068913.0,2153724.0,1827350.0,2035059.0,2183623.0,2106086.0,2068015.0
0.59375,1984656.0,1993744.0,2119062.0,2077314.0,2195870.0,2068876.0,2153097.0,1826493.0,2032517.0,2184618.0,2107218.0,2067587.7272727273
0.609375,1984166.0,1994497.0,2123076.0,2078443.0,2193932.0,2069245.0,2153025.0,1825187.0,2031932.0,2185988.0,2107161.0,2067877.4545454546
0.625,1983822.0,1995467.0,2118878.0,2079671.0,2193594.0,2069696.0,2153045.0,1824559.0,2033754.0,2187165.0,2106606.0,2067841.5454545454
0.640625,1983665.0,1996944.0,2118707.0,2080844.0,2193993.0,2069330.0,2151907.0,1823933.0,2048825.0,2188505.0,2106086.0,2069339.9090909092
0.65625,1983211.0,1998449.0,2118813.0,2081270.0,2194384.0,2069354.0,2148258.0,1823957.0,2066395.0,2189627.0,2106011.0,2070884.4545454546
0.671875,1983039.0,2000641.0,2119738.0,2080776.0,2194832.0,2069743.0,2144043.0,1823924.0,2036382.0,2190943.0,2106030.0,2068190.0909090908
0.6875,1982797.0,2003128.0,2118786.0,2079676.0,2195234.0,2070350.0,2139265.0,1823765.0,2064609.0,2189949.0,2106996.0,2070414.0909090908
0.703125,1982883.0,2005578.0,2120906.0,2078638.0,2196532.0,2071587.0,2134067.0,1823779.0,2032192.0,2187800.0,2107504.0,2067406.0
0.71875,1982967.0,2008028.0,2122312.0,2078053.0,2197435.0,2072753.0,2129274.0,1823706.0,2037035.0,2185718.0,2107625.0,2067718.7272727273
0.734375,1983279.0,2008415.0,2123460.0,2077906.0,2199181.0,2074025.0,2125487.0,1824123.0,2035073.0,2184460.0,2108256.0,2067605.9090909092
0.75,1983797.0,2004526.0,2124415.0,2078170.0,2200573.0,2075519.0,2122416.0,1824466.0,2033645.0,2183394.0,2108466.0,2067217.0
0.765625,1982056.0,1999695.0,2126711.0,2078618.0,2201891.0,2077091.0,2119601.0,1824806.0,2030703.0,2182433.0,2108345.0,2066540.9090909092
0.78125,1976094.0,1995663.0,2127789.0,2078824.0,2203454.0,2078371.0,2116557.0,1825208.0,2029627.0,2182092.0,2109379.0,2065732.5454545454
0.796875,1969359.0,1993712.0,2125977.0,2078914.0,2205183.0,2079545.0,2114184.0,1825801.0,2029139.0,2181776.0,2109902.0,2064862.9090909092
0.8125,1963730.0,1992765.0,2128871.0,2079255.0,2206697.0,2081603.0,2112347.0,1826365.0,2028735.0,2181452.0,2110263.0,2064734.8181818181
0.828125,1960231.0,1992928.0,2130313.0,2079358.0,2208190.0,2082794.0,2110993.0,1826881.0,2028399.0,2181373.0,2109915.0,2064670.4545454546
0.84375,1957011.0,1993901.0,2129901.0,2079834.0,2210057.0,2085052.0,2109907.0,1827812.0,2029175.0,2181696.0,2109159.0,2064864.0909090908
0.859375,1955438.0,1995327.0,2125174.0,2080467.0,2211711.0,2085908.0,2109497.0,1828309.0,2029431.0,2182637.0,2109429.0,2064848.0
0.875,1953903.0,1995918.0,2117593.0,2081041.0,2213348.0,2085062.0,2109589.0,1829393.0,2029676.0,2183202.0,2109028.0,2064341.1818181819
0.890625,1952069.0,1996975.0,2117075.0,2081786.0,2214765.0,2081655.0,2110308.0,1829866.0,2026902.0,2184121.0,2108393.0,2063992.2727272727
0.90625,1949777.0,1998110.0,2117467.0,2082582.0,2216257.0,2078954.0,2112731.0,1829808.0,2019457.0,2185267.0,2108365.0,2063525.0
0.921875,1947917.0,1999445.0,2119210.0,2083490.0,2214568.0,2077161.0,2115972.0,1828426.0,2006183.0,2186334.0,2108405.0,2062464.6363636365
0.9375,1946511.0,2001735.0,2118039.0,2083912.0,2211152.0,2075763.0,2119617.0,1827672.0,2000782.0,2187616.0,2108973.0,2061979.2727272727
0.953125,1945555.0,2003668.0,2117589.0,2083317.0,2207219.0,2075291.0,2122542.0,1826873.0,1995689.0,2188642.0,2109092.0,2061407.0
0.96875,1944793.0,2006175.0,2121574.0,2082072.0,2204516.0,2075200.0,2122268.0,1826226.0,1992011.0,2189818.0,2109523.0,2061288.7272727273
0.984375,1944462.0,2008589.0,2117066.0,2080568.0,2202333.0,2074493.0,2120747.0,1825675.0,1988797.0,2189982.0,2109960.0,2060242.9090909092
1.0,1944312.0,2011423.0,2117307.0,2079478.0,2201686.0,2073103.0,2119019.0,1825878.0,1985940.0,2187852.0,2109733.0,2059611.9090909092
1.015625,1944276.0,2014085.0,2118371.0,2078835.0,2201809.0,2072157.0,2117264.0,1825578.0,1983588.0,2185479.0,2109911.0,2059213.9090909092
1.03125,1944609.0,2013000.0,2119336.0,2078722.0,2202244.0,2071647.0,2115919.0,1825816.0,1981735.0,2183979.0,2109851.0,2058805.2727272727
1.046875,1944903.0,2008837.0,2120604.0,2078831.0,2202532.0,2071544.0,2114551.0,1825828.0,1980558.0,2183030.0,2110247.0,2058315.0
1.0625,1945366.0,2004687.0,2122547.0,2078785.0,2203068.0,2071240.0,2114630.0,1826236.0,1980280.0,2181876.0,2110651.0,2058124.1818181819
1.078125,1945785.0,2001904.0,2123569.0,2078904.0,2203964.0,2071143.0,2114513.0,1826715.0,1982439.0,2181613.0,2110490.0,2058276.2727272727
1.09375,1946327.0,2001013.0,2124806.0,2078773.0,2205121.0,2070574.0,2114516.0,1827122.0,1986564.0,2181301.0,2110203.0,2058756.3636363635
1.109375,1947218.0,2000759.0,2121379.0,2078708.0,2206267.0,2069680.0,2114568.0,1827949.0,1991726.0,2180649.0,2109383.0,2058935.0909090908
1.125,1948212.0,2001862.0,2125012.0,2078739.0,2207879.0,2068007.0,2114766.0,1828400.0,1997093.0,2180189.0,2108031.0,2059835.4545454546
1.140625,1949172.0,2002958.0,2121199.0,2079124.0,2209085.0,2066703.0,2115050.0,1829222.0,2002169.0,2180359.0,2107809.0,2060259.0909090908
1.15625,1948722.0,2003787.0,2114621.0,2079718.0,2210873.0,2066469.0,2116086.0,1830019.0,2006584.0,2180753.0,2107645.0,2060479.7272727273
1.171875,1942994.0,2004752.0,2112771.0,2080216.0,2212019.0,2066604.0,2117387.0,1830768.0,2010350.0,2181051.0,2107414.0,2060575.0909090908
1.1875,1935536.0,2005543.0,2117267.0,2080768.0,2213712.0,2066463.0,2118333.0,1831613.0,2014422.0,2181559.0,2108755.0,2061270.0909090908
1.203125,1929456.0,2006868.0,2111887.0,2081409.0,2215201.0,2063090.0,2119075.0,1832564.0,2017634.0,2182211.0,2107357.0,2060613.8181818181
1.21875,1924158.0,2008375.0,2111462.0,2082037.0,2216417.0,2055306.0,2119646.0,1833470.0,2020375.0,2182960.0,2107014.0,2060110.9090909092
1.234375,1919812.0,2010151.0,2111118.0,2082714.0,2218311.0,2046956.0,2120550.0,1834028.0,2017318.0,2183839.0,2107101.0,2059263.4545454546
1.25,1916664.0,2012744.0,2110536.0,2083334.0,2220255.0,2039889.0,2121700.0,1834110.0,2011496.0,2184837.0,2107040.0,2058418.6363636365
1.265625,1914121.0,2015147.0,2110154.0,2079498.0,2221505.0,2033311.0,2122517.0,1833369.0,2005755.0,2185777.0,2107104.0,2057114.3636363635
1.28125,1911914.0,2017615.0,2110428.0,2075452.0,2220140.0,2027779.0,2121590.0,1832851.0,2000707.0,2186572.0,2107360.0,2055673.4545454546
1.296875,1909634.0,2017358.0,2111036.0,2081627.0,2217321.0,2023386.0,2118981.0,1832313.0,1994514.0,2185482.0,2107416.0,2054460.7272727273
1.3125,1907247.0,2013348.0,2112237.0,2074287.0,2213352.0,2018894.0,2116900.0,1831761.0,1988594.0,2182695.0,2107704.0,2051547.1818181819
1.328125,1905188.0,2008515.0,2113242.0,2077497.0,2209950.0,2014630.0,2114439.0,1831775.0,1984241.0,2180460.0,2107572.0,2049773.5454545454
1.34375,1903851.0,2005131.0,2114672.0,2083503.0,2207481.0,2010989.0,2112187.0,1831716.0,1980276.0,2179097.0,2107412.0,2048755.9090909092
1.359375,1902631.0,2003033.0,2115883.0,2073684.0,2207000.0,2007502.0,2110620.0,1832119.0,1976822.0,2177738.0,2106711.0,2046703.9090909092
1.375,1901682.0,2002129.0,2117187.0,2072956.0,2207540.0,2004910.0,2110142.0,1832253.0,1973467.0,2175626.0,2105710.0,2045782.0
1.390625,1900596.0,2002355.0,2118786.0,2072196.0,2208090.0,2002577.0,2109853.0,1832372.0,1971266.0,2175860.0,2105089.0,2045367.2727272727
1.40625,1899486.0,2003418.0,2118765.0,2070634.0,2208656.0,2000238.0,2109674.0,1832761.0,1970028.0,2176598.0,2104542.0,2044981.8181818181
1.421875,1898475.0,2004200.0,2114481.0,2071496.0,2209001.0,1998683.0,2110008.0,1833343.0,1969248.0,2176033.0,2103945.0,2044446.6363636365
1.4375,1898494.0,2004837.0,2109650.0,2069784.0,2210043.0,1996907.0,2110576.0,1833943.0,1968796.0,2176563.0,2104121.0,2043974.0
1.453125,1898024.0,2005594.0,2103276.0,2069273.0,2211143.0,1995600.0,2111271.0,1834691.0,1969012.0,2175479.0,2103470.0,2043348.4545454546
1.46875,1897783.0,2006519.0,2106321.0,2069161.0,2212502.0,1994874.0,2112465.0,1835339.0,1969481.0,2175819.0,2103161.0,2043947.7272727273
1.484375,1897959.0,2007891.0,2100881.0,2069021.0,2213979.0,1993493.0,2113450.0,1836171.0,1970482.0,2177107.0,2102789.0,2043929.3636363635
1.5,1898453.0,2009278.0,2099593.0,2069132.0,2215583.0,1993380.0,2114997.0,1836713.0,1971634.0,2178371.0,2102741.0,2044534.0909090908
1.515625,1898663.0,2011250.0,2098781.0,2069186.0,2217200.0,1992516.0,2116146.0,1837534.0,1972716.0,2179768.0,2102704.0,2045133.0909090908
1.53125,1899384.0,2013770.0,2097992.0,2069166.0,2218632.0,1992454.0,2117367.0,1838152.0,1973056.0,2181281.0,2102619.0,2045806.6363636365
1.546875,1900295.0,2016006.0,2097190.0,2069286.0,2220356.0,1992347.0,2118350.0,1838815.0,1970558.0,2185438.0,2102684.0,2046484.0909090908
1.5625,1896556.0,2015886.0,2097022.0,2069318.0,2221630.0,1989533.0,2119392.0,1839098.0,1964007.0,2185956.0,2102484.0,2045534.7272727273
1.578125,1890464.0,2011243.0,2097240.0,2069439.0,2223625.0,1982532.0,2122531.0,1839718.0,1957944.0,2183504.0,2102631.0,2043715.5454545454
1.59375,1885577.0,2005689.0,2097940.0,2069706.0,2225294.0,1974884.0,2124013.0,1837942.0,1953734.0,2184028.0,2102717.0,2041956.7272727273
1.609375,1881142.0,2001353.0,2098374.0,2068103.0,2227376.0,1968300.0,2123572.0,1834831.0,1949383.0,2182553.0,2102715.0,2039791.0909090908
1.625,1877513.0,1998684.0,2099561.0,2069756.0,2228859.0,1961800.0,2122356.0,1833560.0,1945114.0,2180891.0,2102196.0,2038208.1818181819
1.640625,1873380.0,1997021.0,2100479.0,2065107.0,2230588.0,1956260.0,2121530.0,1836272.0,1942470.0,2179782.0,2100827.0,2036701.4545454546
1.65625,1870202.0,1996684.0,2101760.0,2061842.0,2229028.0,1951699.0,2120585.0,1832246.0,1940486.0,2179182.0,2100270.0,2034907.6363636365
1.671875,1868371.0,1997105.0,2102932.0,2058914.0,2222445.0,1947850.0,2120116.0,1831575.0,1938713.0,2178995.0,2099563.0,2033325.3636363635
1.6875,1865708.0,1997760.0,2103249.0,2056942.0,2215798.0,1943553.0,2120487.0,1830691.0,1936614.0,2178556.0,2099327.0,2031698.6363636365
1.703125,1862939.0,1998109.0,2099166.0,2055516.0,2211532.0,1939841.0,2121238.0,1830461.0,1935636.0,2177888.0,2099065.0,2030126.4545454546
1.71875,1860091.0,1998547.0,2094409.0,2054785.0,2207988.0,1936997.0,2122742.0,1830255.0,1938639.0,2176800.0,2098930.0,2029107.5454545454
1.734375,1858176.0,1999498.0,2090713.0,2053916.0,2205572.0,1934562.0,2125346.0,1830170.0,1936169.0,2176184.0,2098715.0,2028092.8181818181
1.75,1857735.0,2000338.0,2087460.0,2052681.0,2205255.0,1932862.0,2128130.0,1831520.0,1942831.0,2176171.0,2101415.0,2028763.4545454546
1.765625,1856914.0,2001990.0,2084388.0,2051421.0,2205369.0,1931453.0,2130519.0,1830293.0,1948714.0,2176516.0,2098972.0,2028777.1818181819
1.78125,1855625.0,2003732.0,2082652.0,2050513.0,2205400.0,1930862.0,2132421.0,1830605.0,1956188.0,2176722.0,2099702.0,2029492.9090909092
1.796875,1855068.0,2005975.0,2081972.0,2049603.0,2205343.0,1930250.0,2134317.0,1830708.0,1963946.0,2177005.0,2098594.0,2030252.8181818181
1.8125,1855221.0,2008316.0,2081116.0,2049310.0,2205832.0,1930229.0,2135602.0,1831147.0,1969841.0,2180068.0,2098605.0,2031389.7272727273
1.828125,1855905.0,2008378.0,2080231.0,2048955.0,2206433.0,1929905.0,2136032.0,1831261.0,1974188.0,2181903.0,2098849.0,2032003.6363636365
1.84375,1857004.0,2003484.0,2079687.0,2048916.0,2207545.0,1929612.0,2136413.0,1830868.0,1974253.0,2184353.0,2098781.0,2031901.4545454546
1.859375,1857789.0,1997963.0,2080218.0,2049094.0,2208886.0,1930269.0,2138168.0,1830092.0,1969856.0,2186660.0,2098929.0,2031629.4545454546
1.875,1859418.0,1993548.0,2080868.0,2049219.0,2210359.0,1930988.0,2140312.0,1831358.0,1965681.0,2187575.0,2099127.0,2031677.5454545454
1.890625,1861302.0,1990529.0,2081607.0,2049318.0,2212032.0,1931670.0,2143245.0,1828005.0,1962551.0,2189089.0,2099127.0,2031679.5454545454
1.90625,1863477.0,1988761.0,2082739.0,2049626.0,2213848.0,1932718.0,2145507.0,1826213.0,1959883.0,2188074.0,2098601.0,2031767.9090909092
1.921875,1865861.0,1988502.0,2083975.0,2049984.0,2215572.0,1933720.0,2147308.0,1831208.0,1957644.0,2190896.0,2099179.0,2033077.1818181819
1.9375,1868580.0,1989000.0,2085120.0,2050219.0,2217481.0,1934983.0,2150326.0,1824389.0,1957165.0,2192565.0,2097040.0,2033351.6363636365
1.953125,1869050.0,1989823.0,2086547.0,2048682.0,2219159.0,1936619.0,2153603.0,1822412.0,1957445.0,2177388.0,2096017.0,2032431.3636363635
1.96875,1866068.0,1990462.0,2088020.0,2045734.0,2220940.0,1938458.0,2157025.0,1820670.0,1957327.0,2195055.0,2097909.0,2034333.4545454546
1.984375,1862153.0,1990890.0,2089652.0,2042686.0,2222761.0,1940358.0,2160918.0,1819914.0,1958175.0,2197388.0,2095887.0,2034616.5454545454
2.0,1859102.0,1991804.0,2091248.0,2040029.0,2224478.0,1941998.0,2162540.0,1819617.0,1958844.0,2199558.0,2095379.0,2034963.3636363635
2.015625,1857302.0,1993211.0,2089059.0,2038386.0,2226441.0,1943370.0,2161404.0,1819527.0,1959900.0,2178416.0,2095113.0,2032920.8181818181
2.03125,1856482.0,1994906.0,2084118.0,2037797.0,2223514.0,1946179.0,2159631.0,1818928.0,1961766.0,2201796.0,2095876.0,2034635.7272727273
2.046875,1857538.0,1997062.0,2080418.0,2037740.0,2215664.0,1949649.0,2157761.0,1818494.0,1963801.0,2203992.0,2096309.0,2034402.5454545454
2.0625,1858320.0,1999637.0,2077087.0,2037656.0,2208379.0,1952055.0,2156165.0,1818867.0,1965748.0,2206510.0,2094968.0,2034126.5454545454
2.078125,1856755.0,2001887.0,2074339.0,2037253.0,2202550.0,1952957.0,2154695.0,1820268.0,1968114.0,2208977.0,2094570.0,2033851.3636363635
2.09375,1858784.0,2004178.0,2072038.0,2036896.0,2198183.0,1950848.0,2152777.0,1821853.0,1970666.0,2211278.0,2094502.0,2033818.4545454546
2.109375,1859038.0,2002592.0,2071480.0,2036458.0,2195223.0,1946818.0,2152090.0,1822717.0,1972791.0,2213431.0,2094761.0,2033399.9090909092
2.125,1859765.0,1997541.0,2070949.0,2036634.0,2194044.0,1942428.0,2151389.0,1823871.0,1975534.0,2217872.0,2094844.0,2033170.0909090908
2.140625,1861082.0,1992249.0,2070452.0,2036709.0,2193102.0,1938768.0,2150829.0,1823004.0,1978368.0,2221866.0,2094960.0,2032853.5454545454
2.15625,1864420.0,1988842.0,2070379.0,2037503.0,2191924.0,1935741.0,2151527.0,1822144.0,1979316.0,2215607.0,2094815.0,2032019.8181818181
2.171875,1866717.0,1986632.0,2070615.0,2038254.0,2191245.0,1934330.0,2153792.0,1821398.0,1974377.0,2219833.0,2095102.0,2032026.8181818181
2.1875,1868463.0,1986073.0,2071157.0,2038944.0,2190960.0,1933401.0,2155851.0,1821565.0,1967522.0,2222545.0,2095094.0,2031961.3636363635
2.203125,1871042.0,1986534.0,2072219.0,2039889.0,2191342.0,1932873.0,2157142.0,1821218.0,1961713.0,2221047.0,2094801.0,2031801.8181818181
2.21875,1862564.0,1987349.0,2073833.0,2040887.0,2192031.0,1932491.0,2156735.0,1819721.0,1957120.0,2218729.0,2094067.0,2030502.4545454546
2.234375,1873308.0,1987977.0,2075143.0,2041933.0,2193132.0,1932952.0,2156197.0,1817152.0,1952472.0,2219684.0,2093654.0,2031236.7272727273
2.25,1876178.0,1988282.0,2076705.0,2043001.0,2194342.0,1933859.0,2156145.0,1814811.0,1947990.0,2218389.0,2093289.0,2031181.0
2.265625,1878520.0,1989096.0,2078204.0,2043707.0,2195484.0,1935000.0,2156667.0,1813000.0,1946148.0,2218450.0,2092667.0,2031540.2727272727
2.28125,1881035.0,1989814.0,2079969.0,2041912.0,2196465.0,1936309.0,2157961.0,1812062.0,1944452.0,2218763.0,2093083.0,2031984.0909090908
2.296875,1884082.0,1991160.0,2081805.0,2039119.0,2197297.0,1937794.0,2160213.0,1811569.0,1943207.0,2218665.0,2092640.0,2032504.6363636365
2.3125,1886749.0,1993043.0,2083765.0,2036642.0,2199176.0,1939658.0,2162727.0,1810799.0,1942554.0,2218881.0,2092415.0,2033309.9090909092
2.328125,1889308.0,1995023.0,2085318.0,2034512.0,2201441.0,1941600.0,2165573.0,1809328.0,1942527.0,2218497.0,2092452.0,2034143.5454545454
2.34375,1887185.0,1997236.0,2082800.0,2033379.0,2203663.0,1943692.0,2169118.0,1808008.0,1943420.0,2218832.0,2092568.0,2034536.4545454546
2.359375,1886319.0,1999631.0,2079017.0,2033148.0,2205944.0,1946376.0,2172030.0,1807821.0,1944918.0,2219488.0,2092354.0,2035186.0
2.375,1886321.0,1999653.0,2075944.0,2033558.0,2205569.0,1948690.0,2175354.0,1808509.0,1946421.0,2220386.0,2092576.0,2035725.5454545454
2.390625,1888773.0,1995208.0,2073488.0,2034047.0,2198425.0,1950894.0,2178275.0,1807708.0,1948570.0,2221464.0,2092534.0,2035398.7272727273
2.40625,1887125.0,1989504.0,2071586.0,2034245.0,2190895.0,1953756.0,2180517.0,1807468.0,1950435.0,2223433.0,2092958.0,2034720.1818181819
2.421875,1888668.0,1984941.0,2070310.0,2034104.0,2185672.0,1957004.0,2182335.0,1807077.0,1952544.0,2222453.0,2093161.0,2034388.0909090908
2.4375,1890619.0,1982081.0,2070717.0,2034473.0,2181599.0,1960189.0,2184891.0,1807302.0,1955085.0,2224487.0,2093187.0,2034966.3636363635
2.453125,1892222.0,1980699.0,2070716.0,2034957.0,2179040.0,1963975.0,2187512.0,1807091.0,1957368.0,2225292.0,2093518.0,2035671.8181818181
2.46875,1893787.0,1980814.0,2070579.0,2035755.0,2178360.0,1967119.0,2189769.0,1806949.0,1960583.0,2221731.0,2093404.0,2036259.0909090908
2.484375,1895537.0,1981395.0,2070818.0,2036615.0,2177933.0,1970655.0,2192463.0,1806411.0,1963650.0,2223959.0,2093288.0,2037520.3636363635
2.5,1897150.0,1982013.0,2071648.0,2037835.0,2176995.0,1974061.0,2194955.0,1805274.0,1966582.0,2220057.0,2092350.0,2038083.6363636365
2.515625,1899337.0,1982574.0,2072814.0,2039266.0,2176643.0,1977290.0,2197520.0,1803532.0,1964367.0,2219120.0,2091868.0,2038575.5454545454
2.53125,1901673.0,1983297.0,2074405.0,2040514.0,2176539.0,1981013.0,2199635.0,1801818.0,1957455.0,2218360.0,2091082.0,2038708.2727272727
2.546875,1904236.0,1984010.0,2076147.0,2041755.0,2177328.0,1983830.0,2200249.0,1800278.0,1950767.0,2217911.0,2090866.0,2038852.4545454546
2.5625,1907024.0,1985435.0,2077653.0,2043236.0,2178124.0,1984254.0,2200835.0,1797737.0,1945437.0,2218046.0,2090909.0,2038971.8181818181
2.578125,1912826.0,1987217.0,2079622.0,2044428.0,2179866.0,1983177.0,2201374.0,1799097.0,1940210.0,2217591.0,2090595.0,2039636.6363636365
2.59375,1915275.0,1989180.0,2081433.0,2045866.0,2181656.0,1982060.0,2201982.0,1796965.0,1934651.0,2217065.0,2090896.0,2039729.9090909092
2.609375,1909720.0,1991420.0,2083295.0,2047295.0,2183383.0,1981562.0,2201797.0,1797424.0,1930951.0,2217226.0,2090548.0,2039511.0
2.625,1918219.0,1993970.0,2085656.0,2047054.0,2184863.0,1981453.0,2199225.0,1796324.0,1928668.0,2218309.0,2090382.0,2040374.8181818181
2.640625,1921190.0,1994944.0,2087676.0,2045082.0,2186984.0,1981686.0,2196983.0,1796540.0,1926002.0,2217511.0,2090283.0,2040443.7272727273
2.65625,1924524.0,1991161.0,2088103.0,2043263.0,2189262.0,1982796.0,2196493.0,1796227.0,1924402.0,2218989.0,2090393.0,2040510.2727272727
2.671875,1927402.0,1984984.0,2085225.0,2041529.0,2191354.0,1983463.0,2197045.0,1796388.0,1923907.0,2219937.0,2090407.0,2040149.1818181819
2.6875,1933987.0,1979743.0,2082606.0,2040579.0,2193457.0,1984363.0,2196981.0,1796717.0,1924319.0,2220985.0,2090861.0,2040418.0
2.703125,1930949.0,1975889.0,2080648.0,2040295.0,2195388.0,1985088.0,2196539.0,1796616.0,1925060.0,2221951.0,2090411.0,2039894.0
2.71875,1936096.0,1973532.0,2079595.0,2040817.0,2197674.0,1986372.0,2194553.0,1797145.0,1926521.0,2222954.0,2091207.0,2040587.8181818181
2.734375,1935399.0,1972999.0,2079132.0,2041523.0,2195185.0,1987824.0,2192004.0,1798327.0,1927770.0,2221831.0,2090934.0,2040266.1818181819
2.75,1933839.0,1973128.0,2079298.0,2041935.0,2186016.0,1989546.0,2189434.0,1797998.0,1929780.0,2219223.0,2091071.0,2039206.1818181819
2.765625,1933225.0,1973819.0,2080162.0,2042350.0,2177285.0,1991929.0,2187187.0,1798615.0,1931748.0,2216873.0,2090241.0,2038494.0
2.78125,1933529.0,1974047.0,2080565.0,2042834.0,2170015.0,1993840.0,2185725.0,1797686.0,1934444.0,2215248.0,2089578.0,2037955.5454545454
2.796875,1934091.0,1974519.0,2081191.0,2043286.0,2164353.0,1995991.0,2184742.0,1796242.0,1937096.0,2213958.0,2089253.0,2037702.0
2.8125,1935153.0,1975057.0,2082212.0,2044092.0,2160232.0,1997894.0,2183879.0,1795227.0,1940074.0,2213010.0,2088885.0,2037792.2727272727
2.828125,1938542.0,1976176.0,2083680.0,2045163.0,2158280.0,1999971.0,2183511.0,1794306.0,1943352.0,2212768.0,2088668.0,2038583.3636363635
2.84375,1939919.0,1977908.0,2085377.0,2046439.0,2157250.0,2002210.0,2183160.0,1793548.0,1944287.0,2212236.0,2088831.0,2039196.8181818181
2.859375,1936888.0,1979877.0,2087129.0,2047661.0,2155796.0,2004871.0,2183054.0,1793411.0,1937895.0,2211822.0,2088383.0,2038798.8181818181
2.875,1941687.0,1982135.0,2089263.0,2049193.0,2154659.0,2007432.0,2181762.0,1793697.0,1929244.0,2211674.0,2088383.0,2039011.7272727273
2.890625,1943215.0,1984520.0,2091371.0,2050497.0,2153928.0,2010064.0,2179389.0,1793588.0,1920783.0,2211764.0,2088664.0,2038889.3636363635
2.90625,1945174.0,1987194.0,2093385.0,2051891.0,2154051.0,2012902.0,2177030.0,1794092.0,1912963.0,2212154.0,2088479.0,2039028.6363636365
2.921875,1947645.0,1987427.0,2095693.0,2053342.0,2154511.0,2016088.0,2175230.0,1794381.0,1906359.0,2213053.0,2088495.0,2039293.0909090908
2.9375,1951999.0,1982691.0,2097737.0,2054655.0,2155866.0,2019157.0,2173897.0,1794874.0,1900813.0,2213874.0,2088362.0,2039447.7272727273
2.953125,1954658.0,1976646.0,2100068.0,2056069.0,2157047.0,2022081.0,2172299.0,1795614.0,1897326.0,2214868.0,2088541.0,2039565.1818181819
2.96875,1959670.0,1971579.0,2102412.0,2057483.0,2158601.0,2025189.0,2171259.0,1796270.0,1895814.0,2215774.0,2088757.0,2040255.2727272727
2.984375,1962168.0,1968233.0,2101986.0,2058971.0,2159886.0,2026331.0,2169851.0,1796976.0,1894336.0,2217017.0,2088901.0,2040423.2727272727
3.0,1956987.0,1966179.0,2099744.0,2060279.0,2161472.0,2025851.0,2169488.0,1797763.0,1893415.0,2217651.0,2089005.0,2039803.0909090908
3.015625,1949951.0,1965557.0,2097901.0,2060526.0,2162986.0,2024674.0,2169601.0,1798615.0,1893203.0,2215953.0,2089163.0,2038920.9090909092
3.03125,1965017.0,1966002.0,2096797.0,2059100.0,2164975.0,2024348.0,2170568.0,1798460.0,1894229.0,2213344.0,2089239.0,2040189.0
3.046875,1967926.0,1966633.0,2096155.0,2057803.0,2167116.0,2024783.0,2171643.0,1797493.0,1895702.0,2211092.0,2088834.0,2040470.9090909092
3.0625,1970609.0,1967112.0,2096026.0,2056757.0,2169256.0,2025150.0,2172791.0,1796384.0,1897227.0,2209497.0,2089992.0,2040981.9090909092
3.078125,1973138.0,1967437.0,2096747.0,2056424.0,2171406.0,2025845.0,2174545.0,1795555.0,1899590.0,2208242.0,2091178.0,2041827.9090909092
3.09375,1976219.0,1968216.0,2097669.0,2056368.0,2166896.0,2026845.0,2176067.0,1795113.0,1902380.0,2207473.0,2093404.0,2042422.7272727273
3.109375,1978906.0,1969558.0,2098437.0,2056893.0,2157599.0,2027511.0,2177869.0,1794637.0,1905240.0,2207185.0,2097224.0,2042823.5454545454
3.125,1981162.0,1971247.0,2099309.0,2057651.0,2148121.0,2028382.0,2179299.0,1794594.0,1908280.0,2206816.0,2103467.0,2043484.3636363635
3.140625,1981291.0,1973450.0,2100735.0,2057902.0,2140598.0,2029463.0,2180582.0,1794972.0,1911520.0,2206383.0,2111228.0,2044374.9090909092
3.15625,1979833.0,1976038.0,2102627.0,2058101.0,2134599.0,2030489.0,2182475.0,1795183.0,1914640.0,2206086.0,2119798.0,2045442.6363636365
3.171875,1979163.0,1978484.0,2104180.0,2058513.0,2130050.0,2032565.0,2184506.0,1795510.0,1916895.0,2206341.0,2127227.0,2046675.8181818181
3.1875,1979311.0,1981216.0,2106232.0,2058898.0,2127938.0,2034413.0,2185406.0,1796179.0,1917226.0,2206824.0,2133897.0,2047958.1818181819
3.203125,1979884.0,1983782.0,2108400.0,2059445.0,2126806.0,2036378.0,2185513.0,1797380.0,1910804.0,2207611.0,2139740.0,2048703.9090909092
3.21875,1980760.0,1983314.0,2110507.0,2060218.0,2125274.0,2038640.0,2184966.0,1798040.0,1902956.0,2208514.0,2144294.0,2048862.0909090908
3.234375,1982111.0,1978028.0,2112638.0,2061040.0,2123411.0,2040507.0,2184658.0,1798665.0,1897349.0,2209341.0,2148339.0,2048735.1818181819
3.25,1983582.0,1972295.0,2114795.0,2061895.0,2123225.0,2043173.0,2184014.0,1799438.0,1893289.0,2210297.0,2150302.0,2048755.0
3.265625,1984836.0,1968099.0,2117086.0,2062970.0,2123115.0,2045728.0,2183297.0,1800110.0,1890330.0,2211466.0,2152410.0,2049040.6363636365
3.28125,1986177.0,1965355.0,2119342.0,2063900.0,2123639.0,2048662.0,2182849.0,1799676.0,1888770.0,2211994.0,2153814.0,2049470.7272727273
3.296875,1987527.0,1964085.0,2121705.0,2065027.0,2124536.0,2050977.0,2181744.0,1798829.0,1888262.0,2210465.0,2154330.0,2049771.5454545454
3.3125,1989548.0,1964224.0,2122535.0,2065926.0,2125502.0,2053992.0,2180706.0,1797590.0,1888207.0,2207471.0,2154218.0,2049992.6363636365
3.328125,1990980.0,1964892.0,2121533.0,2066956.0,2126514.0,2057171.0,2180218.0,1796682.0,1888115.0,2205142.0,2153673.0,2050170.5454545454
3.34375,1992775.0,1965427.0,2119633.0,2068049.0,2127567.0,2060051.0,2178771.0,1795783.0,1888724.0,2203715.0,2153326.0,2050347.3636363635
3.359375,1994731.0,1966059.0,2118708.0,2069072.0,2129142.0,2062880.0,2178291.0,1795085.0,1890764.0,2202511.0,2153231.0,2050952.1818181819
3.375,1996632.0,1966475.0,2118608.0,2070223.0,2130400.0,2065926.0,2177705.0,1794871.0,1893308.0,2201706.0,2152954.0,2051709.8181818181
3.390625,1998586.0,1967221.0,2118451.0,2071393.0,2132012.0,2068224.0,2176101.0,1794968.0,1896382.0,2201345.0,2152907.0,2052508.1818181819
3.40625,2000577.0,1968623.0,2119292.0,2072264.0,2133993.0,2067921.0,2173490.0,1794709.0,1899303.0,2200835.0,2153961.0,2053178.9090909092
3.421875,2002745.0,1970390.0,2120017.0,2071540.0,2135737.0,2063105.0,2171210.0,1794849.0,1902160.0,2200347.0,2154098.0,2053290.7272727273
3.4375,2004769.0,1972519.0,2121169.0,2070519.0,2137015.0,2057321.0,2169555.0,1794834.0,1905219.0,2199851.0,2154614.0,2053398.6363636365
3.453125,2006804.0,1974837.0,2121938.0,2069674.0,2131094.0,2047387.0,2169483.0,1795122.0,1907625.0,2200403.0,2154653.0,2052638.1818181819
3.46875,2009161.0,1977617.0,2123406.0,2069145.0,2121754.0,2028470.0,2169921.0,1795465.0,1909906.0,2200676.0,2155001.0,2050956.5454545454
3.484375,2011093.0,1979967.0,2124988.0,2069110.0,2113482.0,2017272.0,2169705.0,1796203.0,1913416.0,2201490.0,2154893.0,2050147.1818181819
3.5,2013208.0,1979505.0,2126543.0,2069445.0,2106929.0,2008262.0,2168504.0,1796557.0,1917850.0,2202299.0,2155061.0,2049469.3636363635
3.515625,2015162.0,1974198.0,2128230.0,2070305.0,2102075.0,1998402.0,2166965.0,1797356.0,1922670.0,2203332.0,2155489.0,2048562.1818181819
3.53125,2017095.0,1968613.0,2130114.0,2070733.0,2099576.0,1994771.0,2165692.0,1797805.0,1922897.0,2204377.0,2155294.0,2047906.0909090908
3.546875,2018164.0,1964090.0,2131911.0,2070865.0,2098260.0,1991108.0,2164648.0,1797996.0,1917241.0,2205682.0,2155095.0,2046823.6363636365
3.5625,2017383.0,1961246.0,2134153.0,2071207.0,2097215.0,1986061.0,2163667.0,1796976.0,1911384.0,2206742.0,2154041.0,2045461.3636363635
3.578125,2016123.0,1960073.0,2135951.0,2071530.0,2095634.0,1981823.0,2163014.0,1796234.0,1907684.0,2205513.0,2154054.0,2044330.2727272727
3.59375,2015518.0,1960234.0,2138180.0,2071886.0,2094920.0,1977693.0,2162163.0,1795429.0,1904093.0,2202705.0,2154304.0,2043375.0
3.609375,2015474.0,1961272.0,2139981.0,2072538.0,2094573.0,1974480.0,2161652.0,1794338.0,1901302.0,2200665.0,2152897.0,2042652.0
3.625,2015538.0,1961875.0,2142118.0,2073344.0,2094977.0,1971958.0,2161650.0,1794023.0,1899080.0,2199114.0,2151616.0,2042299.3636363635
3.640625,2016352.0,1962487.0,2144092.0,2074212.0,2096021.0,1969480.0,2161730.0,1793562.0,1897755.0,2197890.0,2151572.0,2042286.6363636365
3.65625,2017375.0,1963530.0,2145092.0,2075079.0,2096943.0,1967374.0,2161909.0,1793828.0,1896801.0,2197102.0,2153648.0,2042607.3636363635
3.671875,2018303.0,1964459.0,2144013.0,2075836.0,2098175.0,1965383.0,2162050.0,1794463.0,1897496.0,2197096.0,2152414.0,2042698.9090909092
3.6875,2018808.0,1966015.0,2142675.0,2076773.0,2099456.0,1963674.0,2161977.0,1794685.0,1900172.0,2196582.0,2154034.0,2043168.2727272727
3.703125,2019586.0,1967877.0,2142404.0,2077641.0,2101027.0,1962578.0,2162180.0,1795314.0,1902564.0,2196297.0,2148628.0,2043281.4545454546
3.71875,2020530.0,1970313.0,2142258.0,2078482.0,2102539.0,1961088.0,2162767.0,1795774.0,1906781.0,2195981.0,2146617.0,2043920.9090909092
3.734375,2021799.0,1972935.0,2142384.0,2079390.0,2104372.0,1960656.0,2163818.0,1796620.0,1911067.0,2196330.0,2146958.0,2045120.8181818181
3.75,2022863.0,1975848.0,2143235.0,2080308.0,2105968.0,1960138.0,2164338.0,1797324.0,1913069.0,2196959.0,2146935.0,2046089.5454545454
3.765625,2024263.0,1978446.0,2143807.0,2081421.0,2107796.0,1960280.0,2163081.0,1798476.0,1914337.0,2197785.0,2147165.0,2046987.0
3.78125,2025753.0,1977452.0,2144940.0,2082267.0,2110051.0,1960635.0,2161396.0,1798958.0,1916569.0,2198729.0,2146167.0,2047537.9090909092
3.796875,2027035.0,1971616.0,2145861.0,2081668.0,2112430.0,1961104.0,2159368.0,1800452.0,1918321.0,2199702.0,2145265.0,2047529.2727272727
3.8125,2028210.0,1965338.0,2146530.0,2080384.0,2111702.0,1961799.0,2157688.0,1801953.0,1920092.0,2200769.0,2144674.0,2047194.4545454546
3.828125,2029747.0,1960819.0,2148000.0,2078955.0,2103364.0,1962385.0,2156556.0,1803203.0,1922313.0,2201759.0,2143766.0,2046442.4545454546
3.84375,2032629.0,1957748.0,2149456.0,2078002.0,2093387.0,1963422.0,2155475.0,1803886.0,1925470.0,2203007.0,2146698.0,2046289.0909090908
3.859375,2031258.0,1956221.0,2151093.0,2077429.0,2085214.0,1964568.0,2155093.0,1803686.0,1928702.0,2202462.0,2142794.0,2045320.0
3.875,2035891.0,1955938.0,2152470.0,2077204.0,2077856.0,1965443.0,2154552.0,1803314.0,1930881.0,2199850.0,2142245.0,2045058.5454545454
3.890625,2039410.0,1956716.0,2154217.0,2077493.0,2072223.0,1964362.0,2154611.0,1802527.0,1926301.0,2197474.0,2141797.0,2044284.6363636365
3.90625,2040546.0,1957714.0,2155538.0,2077560.0,2068773.0,1960919.0,2154767.0,1802017.0,1920311.0,2195813.0,2141459.0,2043219.7272727273
3.921875,2039504.0,1958186.0,2157085.0,2077581.0,2067094.0,1956772.0,2155561.0,1801371.0,1915821.0,2194876.0,2140434.0,2042207.7272727273
3.9375,2037049.0,1958710.0,2158967.0,2077552.0,2065629.0,1953622.0,2156353.0,1801138.0,1911776.0,2194209.0,2139674.0,2041334.4545454546
3.953125,2035542.0,1959778.0,2160886.0,2077366.0,2063969.0,1951219.0,2157777.0,1801643.0,1907260.0,2194044.0,2139042.0,2040775.0909090908
3.96875,2034620.0,1961200.0,2162910.0,2077341.0,2063195.0,1949228.0,2159091.0,1801960.0,1904633.0,2193724.0,2139175.0,2040643.3636363635
3.984375,2033977.0,1963118.0,2164922.0,2077616.0,2063020.0,1947410.0,2160222.0,1802555.0,1902984.0,2193329.0,2139459.0,2040782.9090909092
4.0,2033696.0,1965510.0,2165620.0,2077994.0,2063215.0,1946650.0,2161082.0,1802982.0,1901552.0,2193052.0,2139351.0,2040973.0909090908
4.015625,2033796.0,1968294.0,2164543.0,2078313.0,2064147.0,1944675.0,2162239.0,1803770.0,1900295.0,2193174.0,2139306.0,2041141.0909090908
4.03125,2034194.0,1970925.0,2163505.0,2078744.0,2065088.0,1943160.0,2163122.0,1804365.0,1899896.0,2193754.0,2139185.0,2041448.9090909092
4.046875,2034175.0,1973574.0,2162893.0,2079441.0,2066478.0,1941897.0,2163460.0,1805019.0,1900473.0,2194373.0,2138633.0,2041856.0
4.0625,2034210.0,1972603.0,2163007.0,2079964.0,2068081.0,1940924.0,2162712.0,1805426.0,1902019.0,2195358.0,2137334.0,2041967.0909090908
4.078125,2034279.0,1966815.0,2163205.0,2080710.0,2069238.0,1940144.0,2161709.0,1806661.0,1903610.0,2196308.0,2136093.0,2041706.5454545454
4.09375,2037581.0,1960765.0,2164068.0,2081121.0,2071002.0,1940102.0,2160385.0,1807687.0,1905558.0,2197559.0,2134951.0,2041889.0
4.109375,2034622.0,1956084.0,2164708.0,2081671.0,2072861.0,1939607.0,2158797.0,1808746.0,1907864.0,2198651.0,2133678.0,2041571.7272727273
4.125,2036156.0,1953037.0,2165403.0,2082169.0,2074764.0,1940098.0,2157813.0,1809869.0,1909912.0,2199352.0,2131658.0,2041839.1818181819
4.140625,2037028.0,1951484.0,2166140.0,2082818.0,2077078.0,1941084.0,2157097.0,1810786.0,1912224.0,2198813.0,2132651.0,2042473.0
4.15625,2037849.0,1951724.0,2167089.0,2083183.0,2078970.0,1943590.0,2156505.0,1811490.0,1914762.0,2195842.0,2130216.0,2042838.1818181819
4.171875,2038539.0,1952580.0,2168340.0,2082055.0,2081290.0,1946165.0,2155829.0,1812212.0,1917695.0,2193384.0,2129439.0,2043411.6363636365
4.1875,2039730.0,1953209.0,2169813.0,2079875.0,2083545.0,1949921.0,2155374.0,1812375.0,1920988.0,2191503.0,2128577.0,2044082.7272727273
4.203125,2035699.0,1953983.0,2171174.0,2078069.0,2084540.0,1954218.0,2155079.0,1811928.0,1922390.0,2190305.0,2127214.0,2044054.4545454546
4.21875,2034928.0,1954413.0,2172443.0,2076351.0,2078886.0,1959135.0,2154768.0,1811018.0,1917122.0,2189496.0,2126700.0,2043205.4545454546
4.234375,2040860.0,1955480.0,2174117.0,2075256.0,2069651.0,1963835.0,2154968.0,1810505.0,1909767.0,2189107.0,2124991.0,2042594.2727272727
4.25,2041568.0,1956815.0,2176008.0,2074652.0,2061580.0,1967642.0,2154761.0,1810050.0,1903773.0,2188747.0,2124921.0,2041865.1818181819
4.265625,2042799.0,1959096.0,2177367.0,2074399.0,2054959.0,1970411.0,2154871.0,1809800.0,1899358.0,2187979.0,2124159.0,2041381.6363636365
4.28125,2044957.0,1961348.0,2179078.0,2074225.0,2049489.0,1970407.0,2154843.0,1809759.0,1895354.0,2187807.0,2123713.0,2040998.1818181819
4.296875,2044115.0,1964138.0,2180971.0,2073643.0,2046343.0,1970259.0,2154901.0,1810320.0,1891799.0,2188093.0,2122754.0,2040666.9090909092
4.3125,2046557.0,1967232.0,2182530.0,2073126.0,2044701.0,1975604.0,2155270.0,1810542.0,1891281.0,2188854.0,2121349.0,2041549.6363636365
4.328125,2045015.0,1969963.0,2182040.0,2072632.0,2043714.0,1989043.0,2155339.0,1810972.0,1892304.0,2189662.0,2119910.0,2042781.2727272727
4.34375,2042185.0,1969799.0,2180608.0,2072228.0,2042131.0,1998634.0,2155074.0,1811351.0,1893761.0,2190692.0,2118812.0,2043206.8181818181
4.359375,2040111.0,1964886.0,2179789.0,2072103.0,2041432.0,2007571.0,2153646.0,1812168.0,1895203.0,2191951.0,2117616.0,2043316.0
4.375,2038127.0,1959422.0,2179421.0,2071880.0,2041353.0,2018081.0,2149369.0,1812647.0,1896396.0,2193077.0,2125993.0,2044160.5454545454
4.390625,2047199.0,1956416.0,2179671.0,2071929.0,2041287.0,2028639.0,2151736.0,1813084.0,1898804.0,2194246.0,2116520.0,2045411.9090909092
4.40625,2036735.0,1954645.0,2179974.0,2072334.0,2042674.0,2036768.0,2147465.0,1813898.0,1901559.0,2195814.0,2116165.0,2045275.5454545454
4.421875,2036218.0,1954594.0,2180640.0,2072500.0,2043974.0,2041809.0,2145605.0,1814755.0,1904463.0,2195440.0,2115131.0,2045920.8181818181
4.4375,2035755.0,1955763.0,2181506.0,2072881.0,2045394.0,2045009.0,2144199.0,1815552.0,1907392.0,2192323.0,2114886.0,2046423.6363636365
4.453125,2034747.0,1957511.0,2181771.0,2073138.0,2047026.0,2045990.0,2143064.0,1816252.0,1910396.0,2189669.0,2114999.0,2046778.4545454546
4.46875,2034466.0,1958757.0,2182264.0,2073451.0,2048711.0,2047140.0,2141791.0,1816960.0,1913709.0,2188068.0,2115346.0,2047333.0
4.484375,2035268.0,1959647.0,2183394.0,2073741.0,2050522.0,2047509.0,2140281.0,1817697.0,1918287.0,2186724.0,2115448.0,2048047.0909090908
4.5,2034315.0,1960218.0,2184450.0,2073956.0,2052642.0,2047883.0,2139801.0,1818314.0,1924178.0,2185659.0,2117140.0,2048959.6363636365
4.515625,2033903.0,1961173.0,2185807.0,2074458.0,2054789.0,2047775.0,2139348.0,1818240.0,1930507.0,2185324.0,2116916.0,2049840.0
4.53125,2033846.0,1962339.0,2187256.0,2074813.0,2056939.0,2048295.0,2139066.0,1818030.0,1935859.0,2184776.0,2117325.0,2050776.7272727273
4.546875,2033788.0,1964045.0,2188468.0,2074109.0,2059176.0,2050131.0,2138447.0,1817382.0,1936949.0,2184539.0,2116804.0,2051258.0
4.5625,2033801.0,1965871.0,2189822.0,2071731.0,2061973.0,2052688.0,2138569.0,1816989.0,1932069.0,2183989.0,2117692.0,2051381.2727272727
4.578125,2033900.0,1967855.0,2191274.0,2069522.0,2064576.0,2054239.0,2138785.0,1816557.0,1927291.0,2184224.0,2115937.0,2051287.2727272727
4.59375,2034275.0,1970333.0,2192533.0,2067431.0,2066097.0,2060612.0,2138415.0,1816668.0,1923875.0,2185047.0,2117662.0,2052086.1818181819
4.609375,2034565.0,1971745.0,2194189.0,2065988.0,2061503.0,2068391.0,2138517.0,1816557.0,1920490.0,2185641.0,2117302.0,2052262.5454545454
4.625,2035167.0,1967450.0,2195410.0,2065112.0,2052301.0,2071797.0,2138428.0,1817071.0,1917810.0,2187043.0,2116773.0,2051305.6363636365
4.640625,2035986.0,1960833.0,2195381.0,2064816.0,2044197.0,2074332.0,2138624.0,1817336.0,1916526.0,2188027.0,2116054.0,2050192.0
4.65625,2036758.0,1955575.0,2194095.0,2064685.0,2037341.0,2064626.0,2140898.0,1817769.0,1917087.0,2189175.0,2115725.0,2048521.2727272727
4.671875,2037151.0,1951852.0,2193114.0,2063940.0,2031657.0,2056670.0,2137896.0,1818088.0,1918112.0,2190351.0,2115096.0,2046720.6363636365
4.6875,2037940.0,1949829.0,2192526.0,2063300.0,2028233.0,2074165.0,2138451.0,1818446.0,1919597.0,2191521.0,2114792.0,2048072.7272727273
4.703125,2037023.0,1949423.0,2192767.0,2062405.0,2026778.0,2073131.0,2135540.0,1818813.0,1921540.0,2192376.0,2114218.0,2047637.6363636365
4.71875,2033570.0,1949794.0,2193152.0,2062040.0,2025788.0,2075737.0,2132724.0,1819200.0,1923803.0,2190524.0,2113482.0,2047255.8181818181
4.734375,2029694.0,1950635.0,2194023.0,2061683.0,2024850.0,2079891.0,2129696.0,1819810.0,1925905.0,2187387.0,2112893.0,2046951.5454545454
4.75,2026598.0,1950820.0,2194485.0,2061655.0,2024040.0,2085424.0,2126085.0,1820371.0,1928627.0,2185264.0,2112285.0,2046877.6363636365
4.765625,2024158.0,1951437.0,2194842.0,2061745.0,2024549.0,2092193.0,2122655.0,1821179.0,1931417.0,2183959.0,2112114.0,2047295.2727272727
4.78125,2022267.0,1952026.0,2197733.0,2061816.0,2025094.0,2098706.0,2120065.0,1821970.0,1940897.0,2182751.0,2111866.0,2048653.7272727273
4.796875,2020931.0,1953285.0,2196553.0,2062128.0,2026360.0,2106088.0,2117571.0,1822469.0,1945639.0,2182231.0,2111824.0,2049552.6363636365
4.8125,2020193.0,1954825.0,2195894.0,2062274.0,2028066.0,2112664.0,2115560.0,1823259.0,1949176.0,2182029.0,2111472.0,2050492.0
4.828125,2018923.0,1956956.0,2198814.0,2062594.0,2030160.0,2118343.0,2111427.0,1823840.0,1952300.0,2181690.0,2111507.0,2051504.9090909092
4.84375,2017757.0,1959218.0,2200013.0,2062739.0,2031915.0,2129788.0,2113855.0,1823255.0,1955154.0,2181461.0,2111154.0,2053300.8181818181
4.859375,2016840.0,1961701.0,2201370.0,2063090.0,2034156.0,2123875.0,2110658.0,1823066.0,1957080.0,2181644.0,2111320.0,2053163.6363636365
4.875,2015817.0,1960862.0,2202565.0,2063465.0,2036449.0,2135628.0,2112405.0,1822641.0,1935700.0,2182194.0,2110462.0,2052562.5454545454
4.890625,2014590.0,1954674.0,2203765.0,2063970.0,2038737.0,2073103.0,2109966.0,1822204.0,1955789.0,2183199.0,2108238.0,2048021.3636363635
4.90625,2015157.0,1947813.0,2205416.0,2063752.0,2041481.0,2142247.0,2109347.0,1822363.0,1948333.0,2184559.0,2104620.0,2053189.8181818181
4.921875,2014312.0,1942407.0,2206721.0,2062210.0,2043861.0,2148982.0,2108716.0,1822460.0,1940760.0,2185910.0,2100785.0,2052465.8181818181
4.9375,2014145.0,1938946.0,2206562.0,2059891.0,2046529.0,2163283.0,2107582.0,1822699.0,1935211.0,2187229.0,2097273.0,2052668.1818181819
4.953125,2013952.0,1937161.0,2203348.0,2058134.0,2049476.0,2170095.0,2107295.0,1822681.0,1930902.0,2188537.0,2094623.0,2052382.1818181819
4.96875,2014083.0,1936612.0,2204828.0,2056730.0,2052590.0,2176636.0,2107040.0,1823259.0,1927369.0,2189962.0,2092214.0,2052847.5454545454
4.984375,2014437.0,1937303.0,2202569.0,2056087.0,2055311.0,2182616.0,2107024.0,1823284.0,1925364.0,2191382.0,2090103.0,2053225.4545454546
5.0,2014587.0,1937593.0,2201963.0,2056240.0,2053142.0,2185939.0,2106296.0,1823836.0,1924320.0,2191453.0,2088488.0,2053077.9090909092
5.015625,2014895.0,1938114.0,2202084.0,2056127.0,2045512.0,2185833.0,2108016.0,1824325.0,1923120.0,2188844.0,2086495.0,2052124.0909090908
5.03125,2009503.0,1938602.0,2202140.0,2055973.0,2037457.0,2185211.0,2104756.0,1824861.0,1921575.0,2186511.0,2084877.0,2050133.2727272727
5.046875,2004885.0,1939258.0,2202235.0,2055390.0,2031224.0,2184000.0,2102111.0,1825620.0,1920358.0,2185234.0,2083397.0,2048519.2727272727
5.0625,2001430.0,1940645.0,2202421.0,2054905.0,2026275.0,2180180.0,2099474.0,1826306.0,1920710.0,2184429.0,2081989.0,2047160.3636363635
5.078125,2014222.0,1942959.0,2202331.0,2054609.0,2022365.0,2156462.0,2096519.0,1826993.0,1923707.0,2183758.0,2080587.0,2045864.7272727273
5.09375,2013864.0,1944965.0,2202725.0,2054577.0,2021268.0,2185572.0,2093972.0,1827114.0,1925205.0,2183775.0,2079360.0,2048399.7272727273
5.109375,1998954.0,1947589.0,2203111.0,2054815.0,2020768.0,2175685.0,2091692.0,1827534.0,1921891.0,2183624.0,2078189.0,2045804.7272727273
5.125,1996927.0,1948349.0,2204046.0,2055150.0,2020243.0,2172111.0,2089806.0,1827723.0,1930407.0,2183288.0,2076849.0,2045899.9090909092
5.140625,1995581.0,1943491.0,2205254.0,2054646.0,2019728.0,2171708.0,2088485.0,1827003.0,1932773.0,2183230.0,2075854.0,2045250.2727272727
5.15625,1994659.0,1936287.0,2206023.0,2055639.0,2020053.0,2171537.0,2087322.0,1826257.0,1935998.0,2183658.0,2073949.0,2044671.0909090908
5.171875,1990210.0,1930223.0,2206948.0,2056072.0,2021031.0,2173519.0,2086146.0,1825483.0,1939122.0,2184467.0,2072151.0,2044124.7272727273
5.1875,1991008.0,1926043.0,2208225.0,2056301.0,2022471.0,2173801.0,2085364.0,1824912.0,1940151.0,2185433.0,2070359.0,2044006.1818181819
5.203125,1989667.0,1923067.0,2209198.0,2056813.0,2024175.0,2175876.0,2084903.0,1824507.0,1926536.0,2186427.0,2068471.0,2042694.5454545454
5.21875,1989075.0,1922148.0,2208930.0,2057582.0,2025990.0,2172355.0,2085032.0,1823978.0,1934892.0,2187629.0,2067059.0,2043151.8181818181
5.234375,1993488.0,1922645.0,2207232.0,2057975.0,2028517.0,2172355.0,2084992.0,1823746.0,1928616.0,2188655.0,2065992.0,2043110.2727272727
5.25,1992145.0,1923381.0,2205262.0,2057194.0,2030737.0,2174879.0,2085167.0,1824023.0,1927736.0,2189892.0,2064803.0,2043201.7272727273
5.265625,1988559.0,1923955.0,2203601.0,2056736.0,2033095.0,2167759.0,2085438.0,1823693.0,1921983.0,2191118.0,2063763.0,2041790.9090909092
5.28125,1988697.0,1924444.0,2203140.0,2054559.0,2035817.0,2163800.0,2085634.0,1823267.0,1916894.0,2191365.0,2062346.0,2040905.7272727273
5.296875,1988590.0,1925319.0,2202492.0,2052323.0,2038175.0,2159620.0,2086174.0,1823474.0,1911479.0,2189120.0,2061298.0,2039824.0
5.3125,1988520.0,1926920.0,2202828.0,2050668.0,2041146.0,2155010.0,2086722.0,1823645.0,1907335.0,2186138.0,2060503.0,2039039.5454545454
5.328125,1988775.0,1928910.0,2202423.0,2049402.0,2043998.0,2151435.0,2087205.0,1823616.0,1905754.0,2184492.0,2059682.0,2038699.2727272727
5.34375,1989166.0,1931320.0,2202626.0,2048997.0,2046805.0,2149562.0,2087705.0,1823699.0,1903524.0,2183537.0,2058545.0,2038680.5454545454
5.359375,1989610.0,1933980.0,2202604.0,2048922.0,2049847.0,2150912.0,2087521.0,1823850.0,1900617.0,2182707.0,2057693.0,2038933.0
5.375,1990007.0,1936829.0,2203259.0,2048667.0,2051422.0,2153777.0,2086776.0,1823883.0,1895953.0,2182312.0,2056903.0,2039071.6363636365
5.390625,1990627.0,1939099.0,2203542.0,2048213.0,2037991.0,2157107.0,2085353.0,1824046.0,1897818.0,2182257.0,2056043.0,2038372.3636363635
5.40625,1990377.0,1935377.0,2205530.0,2047599.0,2046118.0,2161265.0,2084115.0,1823783.0,1900366.0,2181865.0,2054701.0,2039190.5454545454
5.421875,1986638.0,1928231.0,2204587.0,2047064.0,2030913.0,2164738.0,2082963.0,1823091.0,1901609.0,2181480.0,2052544.0,2036714.3636363635
5.4375,1982198.0,1922212.0,2202541.0,2046998.0,2025352.0,2167371.0,2082027.0,1822482.0,1903428.0,2181824.0,2050678.0,2035191.9090909092
5.453125,1978684.0,1917580.0,2206396.0,2047215.0,2021454.0,2167098.0,2081127.0,1821777.0,1905106.0,2182609.0,2048895.0,2034358.2727272727
5.46875,1976233.0,1914348.0,2207613.0,2047101.0,2019237.0,2165285.0,2080698.0,1821405.0,1898958.0,2183542.0,2047198.0,2032874.3636363635
5.484375,1974773.0,1913465.0,2208369.0,2047525.0,2019199.0,2162995.0,2080015.0,1821316.0,1896795.0,2184652.0,2045959.0,2032278.4545454546
5.5,1973318.0,1913545.0,2202945.0,2047892.0,2018705.0,2162132.0,2079465.0,1821165.0,1896027.0,2185901.0,2044779.0,2031443.0909090908
5.515625,1972507.0,1914790.0,2206101.0,2049376.0,2018280.0,2162651.0,2079307.0,1820736.0,1897597.0,2187040.0,2043379.0,2031978.5454545454
5.53125,1971886.0,1915361.0,2200691.0,2049902.0,2018314.0,2163715.0,2079095.0,1820687.0,1907606.0,2188567.0,2042207.0,2032548.2727272727
5.546875,1970738.0,1915829.0,2199464.0,2050351.0,2019338.0,2165538.0,2078781.0,1820718.0,1910666.0,2190004.0,2041124.0,2032959.1818181819
5.5625,1969699.0,1917004.0,2198618.0,2051236.0,2020614.0,2166563.0,2078767.0,1820606.0,1912398.0,2190851.0,2040247.0,2033327.5454545454
5.578125,1968534.0,1918532.0,2199172.0,2051022.0,2022589.0,2167645.0,2078807.0,1821158.0,1900471.0,2189217.0,2039210.0,2032396.0909090908
5.59375,1968680.0,1920450.0,2199085.0,2049551.0,2024860.0,2168365.0,2078997.0,1821292.0,1908818.0,2186323.0,2038355.0,2033161.4545454546
5.609375,1968393.0,1923159.0,2199622.0,2047231.0,2027084.0,2169582.0,2079149.0,1821895.0,1892902.0,2184518.0,2037814.0,2031940.8181818181
5.625,1968361.0,1925863.0,2199807.0,2045474.0,2029611.0,2170944.0,2079662.0,1822246.0,1886952.0,2183301.0,2036913.0,2031739.4545454546
5.640625,1968593.0,1928679.0,2200284.0,2044095.0,2032029.0,2172380.0,2079933.0,1822831.0,1881975.0,2182255.0,2035739.0,2031708.4545454546
5.65625,1969033.0,1931794.0,2202302.0,2043120.0,2034591.0,2173896.0,2080407.0,1823510.0,1877872.0,2181782.0,2034216.0,2032047.5454545454
5.671875,1969753.0,1933307.0,2201495.0,2043010.0,2037329.0,2175937.0,2081111.0,1823619.0,1876285.0,2181620.0,2032107.0,2032324.8181818181
5.6875,1970422.0,1928861.0,2203281.0,2042631.0,2040281.0,2177618.0,2081514.0,1822917.0,1875513.0,2181329.0,2030263.0,2032239.0909090908
5.703125,1970676.0,1922418.0,2204445.0,2042252.0,2043067.0,2179803.0,2081190.0,1822537.0,1874726.0,2180863.0,2028190.0,2031833.3636363635
5.71875,1972312.0,1916771.0,2205827.0,2041807.0,2046028.0,2181538.0,2079858.0,1821860.0,1874675.0,2181102.0,2026690.0,2031678.9090909092
5.734375,1973354.0,1913008.0,2207097.0,2042748.0,2048863.0,2183136.0,2078498.0,1821429.0,1874808.0,2181529.0,2025602.0,2031824.7272727273
5.75,1974215.0,1910892.0,2208145.0,2041623.0,2052606.0,2185667.0,2076836.0,1821296.0,1873874.0,2182459.0,2024412.0,2032002.2727272727
5.765625,1972364.0,1910324.0,2205379.0,2048973.0,2055482.0,2187288.0,2075052.0,1821348.0,1873216.0,2183543.0,2023028.0,2032363.3636363635
5.78125,1966050.0,1911170.0,2208055.0,2048399.0,2054224.0,2189606.0,2073816.0,1821750.0,1874394.0,2184621.0,2021989.0,2032188.5454545454
5.796875,1969399.0,1912339.0,2202859.0,2041779.0,2046535.0,2191563.0,2072842.0,1822001.0,1876756.0,2185606.0,2020686.0,2031124.0909090908
5.8125,1967396.0,1913662.0,2200328.0,2041947.0,2038747.0,2193187.0,2072359.0,1822562.0,1879247.0,2187067.0,2019701.0,2030563.9090909092
5.828125,1965219.0,1914456.0,2199252.0,2042311.0,2032168.0,2190833.0,2071683.0,1823218.0,1881875.0,2188397.0,2018960.0,2029852.0
5.84375,1971465.0,1916084.0,2198205.0,2043056.0,2027260.0,2187203.0,2071295.0,1823919.0,1884864.0,2189974.0,2018161.0,2030135.0909090908
5.859375,1965718.0,1917954.0,2197275.0,2044318.0,2023470.0,2183587.0,2071035.0,1824449.0,1887404.0,2190235.0,2017369.0,2029346.7272727273
5.875,1966126.0,1920226.0,2198088.0,2043734.0,2022013.0,2180449.0,2071084.0,1825223.0,1891205.0,2187955.0,2016476.0,2029325.3636363635
5.890625,1966105.0,1923147.0,2195846.0,2044900.0,2021778.0,2178216.0,2070931.0,1826041.0,1894316.0,2185099.0,2014723.0,2029191.0909090908
5.90625,1966624.0,1926334.0,2194561.0,2045592.0,2021554.0,2176384.0,2071325.0,1826906.0,1897011.0,2183287.0,2012661.0,2029294.4545454546
5.921875,1966768.0,1929368.0,2193540.0,2046480.0,2021333.0,2175123.0,2071559.0,1827925.0,1895509.0,2181958.0,2010613.0,2029106.9090909092
5.9375,1967291.0,1933075.0,2193370.0,2047296.0,2021962.0,2173767.0,2071821.0,1828172.0,1890658.0,2180728.0,2008464.0,2028782.1818181819
5.953125,1968479.0,1935731.0,2193575.0,2046156.0,2022908.0,2171890.0,2072255.0,1827976.0,1886208.0,2180281.0,2007013.0,2028406.5454545454
5.96875,1970315.0,1933699.0,2193518.0,2044295.0,2024511.0,2171293.0,2072717.0,1827521.0,1883456.0,2179978.0,2005696.0,2027909.0
5.984375,1971432.0,1928289.0,2194007.0,2047748.0,2026435.0,2170972.0,2073330.0,1827202.0,1881356.0,2179548.0,2004294.0,2027692.0909090908
6.0,1972779.0,1923251.0,2194322.0,2048005.0,2028544.0,2170497.0,2073695.0,1826721.0,1879396.0,2179320.0,2003361.0,2027262.8181818181
6.015625,1975300.0,1919951.0,2195099.0,2042092.0,2030705.0,2170298.0,2073874.0,1826872.0,1879465.0,2179353.0,2001866.0,2026806.8181818181
6.03125,1969187.0,1918428.0,2195953.0,2041860.0,2033071.0,2170825.0,2074564.0,1826660.0,1879976.0,2179785.0,2000608.0,2026447.0
6.046875,1976803.0,1918357.0,2193392.0,2042944.0,2034977.0,2171705.0,2074295.0,1827045.0,1880468.0,2180726.0,1999610.0,2027302.0
6.0625,1966279.0,1919736.0,2189539.0,2041631.0,2035766.0,2171336.0,2073048.0,1827358.0,1881271.0,2181915.0,1998709.0,2026053.4545454546
6.078125,1978350.0,1921310.0,2186553.0,2042089.0,2036257.0,2172298.0,2070989.0,1827503.0,1882981.0,2183006.0,1997930.0,2027206.0
6.09375,1980173.0,1922620.0,2195927.0,2042029.0,2034206.0,2172938.0,2068858.0,1827974.0,1885163.0,2184227.0,1997070.0,2028289.5454545454
6.109375,1974130.0,1923676.0,2182657.0,2042040.0,2029911.0,2174118.0,2066880.0,1828650.0,1888426.0,2185394.0,1996112.0,2026544.9090909092
6.125,1981475.0,1925320.0,2184647.0,2041867.0,2022911.0,2175810.0,2065036.0,1829064.0,1891678.0,2186779.0,1994887.0,2027224.9090909092
6.140625,1979146.0,1927470.0,2181315.0,2042083.0,2015512.0,2179215.0,2063532.0,1829645.0,1894890.0,2188319.0,1992998.0,2026738.6363636365
6.15625,1975809.0,1929683.0,2181946.0,2042526.0,2009255.0,2177691.0,2062350.0,1830344.0,1898696.0,2189154.0,1991040.0,2026226.7272727273
6.171875,1981427.0,1932655.0,2181089.0,2042945.0,2005095.0,2180791.0,2061501.0,1831095.0,1902384.0,2187404.0,1988681.0,2026824.2727272727
6.1875,1977001.0,1935719.0,2180294.0,2043654.0,1992889.0,2180209.0,2060808.0,1832430.0,1905948.0,2184784.0,1987011.0,2025522.4545454546
6.203125,1974506.0,1939119.0,2180166.0,2044414.0,1977369.0,2175906.0,2060402.0,1832811.0,1909611.0,2182589.0,1985548.0,2023858.2727272727
6.21875,1975074.0,1942660.0,2180649.0,2045167.0,1959224.0,2167300.0,2060393.0,1832735.0,1913597.0,2181572.0,1984329.0,2022063.6363636365
6.234375,1974830.0,1944738.0,2180205.0,2045984.0,1943559.0,2160523.0,2060111.0,1832169.0,1917634.0,2180043.0,1983257.0,2020277.5454545454
6.25,1975050.0,1941341.0,2181067.0,2046845.0,1928242.0,2163666.0,2060055.0,1831487.0,1921549.0,2179643.0,1981953.0,2019172.5454545454
6.265625,1975420.0,1936111.0,2182648.0,2047619.0,1916469.0,2171397.0,2060347.0,1831146.0,1925264.0,2179273.0,1980893.0,2018780.6363636365
6.28125,1976064.0,1932360.0,2181684.0,2048525.0,1907368.0,2157124.0,2060666.0,1830360.0,1923604.0,2178572.0,1979636.0,2015996.6363636365
6.296875,1976406.0,1929856.0,2183321.0,2049360.0,1898565.0,2157872.0,2061001.0,1830314.0,1917904.0,2178867.0,1978844.0,2014755.4545454546
6.3125,1976708.0,1929098.0,2184240.0,2050380.0,1890075.0,2159371.0,2061588.0,1830580.0,1913251.0,2179861.0,1977920.0,2013915.6363636365
6.328125,1977508.0,1929762.0,2185032.0,2051253.0,1884060.0,2167813.0,2062424.0,1830707.0,1905768.0,2179088.0,1977269.0,2013698.5454545454
6.34375,1978680.0,1931613.0,2187254.0,2052189.0,1882161.0,2163279.0,2062814.0,1831642.0,1902030.0,2181038.0,1976325.0,2013547.7272727273
6.359375,1979582.0,1933290.0,2185305.0,2051652.0,1883164.0,2170679.0,2063366.0,1831115.0,1900003.0,2179990.0,1975770.0,2013992.3636363635
6.375,1980771.0,1935267.0,2186355.0,2050414.0,1885404.0,2172193.0,2064257.0,1831022.0,1899758.0,2182169.0,1975356.0,2014815.0909090908
6.390625,1982063.0,1936608.0,2182507.0,2049256.0,1885404.0,2173759.0,2064767.0,1831605.0,1899238.0,2183401.0,1974043.0,2014786.4545454546
6.40625,1983566.0,1938685.0,2179754.0,2048338.0,1886376.0,2174456.0,2062767.0,1832174.0,1899084.0,2184713.0,1972317.0,2014748.1818181819
6.421875,1985013.0,1940898.0,2176615.0,2047791.0,1885001.0,2174890.0,2058741.0,1832708.0,1899741.0,2185924.0,1970658.0,2014361.8181818181
6.4375,1986146.0,1943730.0,2178075.0,2047884.0,1882664.0,2174305.0,2052748.0,1833270.0,1900941.0,2187530.0,1968683.0,2014179.6363636365
6.453125,1987821.0,1947221.0,2175994.0,2048154.0,1878216.0,2174445.0,2035915.0,1833858.0,1902492.0,2189147.0,1967109.0,2012761.0909090908
6.46875,1989629.0,1950468.0,2175496.0,2048387.0,1875686.0,2174387.0,2024812.0,1834619.0,1904514.0,2188753.0,1966133.0,2012080.3636363635
6.484375,1991019.0,1953904.0,2175189.0,2048623.0,1871683.0,2173695.0,2017985.0,1834925.0,1906738.0,2186237.0,1964942.0,2011358.1818181819
6.5,1992684.0,1957651.0,2174777.0,2048715.0,1865265.0,2173413.0,2012177.0,1835700.0,1909078.0,2183646.0,1963787.0,2010626.6363636365
6.515625,1993837.0,1960740.0,2174573.0,2048654.0,1861398.0,2173305.0,2004580.0,1836394.0,1911866.0,2182629.0,1962835.0,2010073.7272727273
6.53125,1992591.0,1958866.0,2174953.0,2049118.0,1859735.0,2173625.0,1998719.0,1836056.0,1914476.0,2181517.0,1962038.0,2009244.9090909092
6.546875,1990676.0,1954089.0,2175348.0,2049428.0,1861055.0,2174042.0,1992888.0,1836087.0,1917369.0,2180652.0,1961341.0,2008452.2727272727
6.5625,1989599.0,1950188.0,2176263.0,2049909.0,1860256.0,2174847.0,1992576.0,1835786.0,1920467.0,2180654.0,1960672.0,2008292.4545454546
6.578125,1989203.0,1947506.0,2177206.0,2050881.0,1850773.0,2175772.0,1995166.0,1835841.0,1923549.0,2180454.0,1959940.0,2007844.6363636365
6.59375,1989279.0,1946291.0,2177982.0,2051540.0,1837131.0,2176800.0,1998910.0,1835633.0,1927087.0,2180225.0,1959681.0,2007323.5454545454
6.609375,1989470.0,1946265.0,2178947.0,2052166.0,1825724.0,2178229.0,2000565.0,1835469.0,1930460.0,2180090.0,1959024.0,2006946.2727272727
6.625,1990138.0,1947994.0,2180081.0,2052922.0,1818614.0,2179703.0,2002508.0,1835686.0,1933938.0,2180356.0,1958995.0,2007357.7272727273
6.640625,1990821.0,1950087.0,2181015.0,2053718.0,1812465.0,2180793.0,2004016.0,1836188.0,1934308.0,2181243.0,1958714.0,2007578.9090909092
6.65625,1991370.0,1951577.0,2181044.0,2054401.0,1807681.0,2179673.0,2003331.0,1836305.0,1929318.0,2182197.0,1958277.0,2006834.0
6.671875,1991920.0,1953259.0,2176435.0,2055206.0,1806160.0,2174530.0,2005598.0,1837010.0,1924351.0,2183077.0,1957712.0,2005932.5454545454
6.6875,1992903.0,1955549.0,2178885.0,2056090.0,1804155.0,2169706.0,2008487.0,1837491.0,1920450.0,2184163.0,1956509.0,2005853.4545454546
6.703125,1993895.0,1957452.0,2174620.0,2056768.0,1802223.0,2165171.0,2013676.0,1838086.0,1917244.0,2185514.0,1955243.0,2005444.7272727273
6.71875,1994927.0,1960100.0,2173226.0,2057521.0,1800664.0,2161473.0,2019368.0,1838666.0,1914538.0,2186617.0,1953937.0,2005548.8181818181
6.734375,1996052.0,1963396.0,2172371.0,2058418.0,1800234.0,2158312.0,2026232.0,1839247.0,1912706.0,2188097.0,1952822.0,2006171.5454545454
6.75,1997152.0,1966533.0,2172426.0,2059261.0,1800901.0,2156184.0,2030165.0,1840009.0,1911762.0,2189271.0,1952472.0,2006921.4545454546
6.765625,1998587.0,1970045.0,2172294.0,2060000.0,1800416.0,2154369.0,2034707.0,1840667.0,1910495.0,2189305.0,1951736.0,2007511.0
6.78125,1999753.0,1973650.0,2172283.0,2060783.0,1801410.0,2152386.0,2041575.0,1841428.0,1910107.0,2186721.0,1951266.0,2008305.6363636365
6.796875,2001136.0,1977217.0,2172502.0,2060146.0,1804476.0,2150637.0,2047606.0,1842479.0,1911036.0,2184299.0,1950803.0,2009303.3636363635
6.8125,2002688.0,1977256.0,2172651.0,2058781.0,1805641.0,2149827.0,2055247.0,1843096.0,1913812.0,2182805.0,1950360.0,2010196.7272727273
6.828125,2004181.0,1973596.0,2173883.0,2057852.0,1806616.0,2149169.0,2060279.0,1843231.0,1920096.0,2181030.0,1950109.0,2010912.9090909092
6.84375,2005590.0,1969869.0,2174640.0,2057105.0,1809828.0,2149079.0,2064968.0,1843262.0,1926554.0,2181729.0,1950122.0,2012067.8181818181
6.859375,2007195.0,1967237.0,2175440.0,2056995.0,1814211.0,2149461.0,2070797.0,1848342.0,1932069.0,2181110.0,1949931.0,2013889.8181818181
6.875,2008753.0,1966323.0,2176555.0,2057193.0,1816572.0,2150309.0,2076036.0,1843062.0,1935877.0,2180753.0,1950036.0,2014679.0
6.890625,2010459.0,1966750.0,2177861.0,2057664.0,1823268.0,2150784.0,2079835.0,1849275.0,1939133.0,2181028.0,1950029.0,2016916.9090909092
6.90625,2011569.0,1968223.0,2178975.0,2057816.0,1822632.0,2152064.0,2083675.0,1842993.0,1941931.0,2180695.0,1950314.0,2017353.3636363635
6.921875,2010178.0,1970086.0,2180343.0,2057805.0,1825254.0,2153149.0,2087769.0,1843265.0,1945554.0,2181824.0,1950527.0,2018704.9090909092
6.9375,2008623.0,1971915.0,2181476.0,2057755.0,1824394.0,2154336.0,2090903.0,1847449.0,1950833.0,2182901.0,1950665.0,2020113.6363636365
6.953125,2007646.0,1973673.0,2182912.0,2057962.0,1817538.0,2155617.0,2093042.0,1843458.0,1957364.0,2184046.0,1950652.0,2020355.4545454546
6.96875,2007109.0,1975582.0,2182379.0,2058339.0,1807758.0,2157474.0,2095844.0,1843979.0,1965120.0,2185443.0,1950552.0,2020870.8181818181
6.984375,2007303.0,1977608.0,2180259.0,2058741.0,1800643.0,2159441.0,2099085.0,1844426.0,1973090.0,2181235.0,1949889.0,2021065.4545454546
7.0,2008325.0,1980072.0,2177786.0,2059329.0,1795001.0,2160996.0,2101045.0,1844733.0,1980632.0,2186588.0,1949269.0,2022161.4545454546
7.015625,2009277.0,1982772.0,2175947.0,2060026.0,1790691.0,2162707.0,2102308.0,1849676.0,1984172.0,2187770.0,1948823.0,2023106.2727272727
7.03125,2009647.0,1985804.0,2174426.0,2060691.0,1788599.0,2164939.0,2103203.0,1845072.0,1981473.0,2189118.0,1948953.0,2022902.2727272727
7.046875,2010249.0,1988817.0,2173702.0,2061525.0,1784978.0,2166837.0,2104007.0,1845594.0,1978957.0,2190646.0,1949003.0,2023119.5454545454
7.0625,2010841.0,1992593.0,2173531.0,2062216.0,1787557.0,2169180.0,2104357.0,1846480.0,1977571.0,2191008.0,1948924.0,2024023.4545454546
7.078125,2011900.0,1994989.0,2173241.0,2063001.0,1786160.0,2171949.0,2105053.0,1846847.0,1974311.0,2188667.0,1948707.0,2024075.0
7.09375,2012710.0,1993067.0,2172983.0,2063752.0,1784134.0,2174217.0,2105801.0,1851284.0,1970092.0,2186049.0,1949094.0,2023925.7272727273
7.109375,2013778.0,1989301.0,2173034.0,2064607.0,1784234.0,2175019.0,2106984.0,1851872.0,1966198.0,2184266.0,1949314.0,2023509.7272727273
7.125,2008001.0,1986283.0,2173271.0,2065328.0,1784752.0,2172109.0,2108201.0,1852131.0,1963715.0,2182898.0,1949388.0,2022370.6363636365
7.140625,2008714.0,1984610.0,2173756.0,2066270.0,1785265.0,2168486.0,2109221.0,1852432.0,1961080.0,2181798.0,1950089.0,2021974.6363636365
7.15625,2014606.0,1984106.0,2174849.0,2066960.0,1785844.0,2165188.0,2109293.0,1850676.0,1958421.0,2181412.0,1950556.0,2021991.9090909092
7.171875,2015725.0,1985030.0,2175524.0,2067982.0,1786802.0,2163305.0,2109196.0,1852531.0,1956503.0,2180949.0,1951029.0,2022234.1818181819
7.1875,2016867.0,1986714.0,2176520.0,2068701.0,1786511.0,2160987.0,2109083.0,1852956.0,1955441.0,2180512.0,1951598.0,2022353.6363636365
7.203125,2017873.0,1988724.0,2177788.0,2068265.0,1787077.0,2159933.0,2109031.0,1853449.0,1955442.0,2180440.0,1952259.0,2022752.8181818181
7.21875,2019352.0,1990449.0,2178970.0,2067200.0,1788178.0,2158998.0,2108516.0,1854256.0,1955826.0,2180328.0,1952721.0,2023163.0909090908
7.234375,2021654.0,1992010.0,2180248.0,2065977.0,1789722.0,2157730.0,2107991.0,1854925.0,1956101.0,2181145.0,1953653.0,2023741.4545454546
7.25,2020250.0,1993840.0,2181500.0,2064988.0,1792039.0,2156055.0,2107702.0,1853971.0,1956424.0,2181852.0,1953913.0,2023866.7272727273
7.265625,2022858.0,1995679.0,2182570.0,2064531.0,1792248.0,2154904.0,2107312.0,1854322.0,1957424.0,2182969.0,1954159.0,2024452.3636363635
7.28125,2024152.0,1998191.0,2182334.0,2064531.0,1787610.0,2154584.0,2103763.0,1853252.0,1958384.0,2183937.0,1954239.0,2024088.8181818181
7.296875,2024376.0,2000959.0,2179881.0,2064255.0,1780335.0,2154618.0,2101029.0,1855624.0,1960002.0,2185110.0,1954121.0,2023664.5454545454
7.3125,2022672.0,2003886.0,2176554.0,2064489.0,1773763.0,2155310.0,2097862.0,1856260.0,1962506.0,2186165.0,1954456.0,2023083.9090909092
7.328125,2020639.0,2006951.0,2174188.0,2064660.0,1769731.0,2156040.0,2094494.0,1856849.0,1964563.0,2187482.0,1954931.0,2022775.2727272727
7.34375,2020078.0,2009130.0,2173191.0,2064349.0,1766890.0,2157627.0,2090934.0,1857526.0,1966942.0,2188780.0,1955506.0,2022813.9090909092
7.359375,2020349.0,2006688.0,2173762.0,2064055.0,1766394.0,2158876.0,2088034.0,1858151.0,1969515.0,2189741.0,1956157.0,2022883.8181818181
7.375,2021270.0,2002180.0,2175263.0,2064042.0,1766565.0,2160236.0,2084905.0,1858688.0,1971979.0,2187726.0,1956354.0,2022655.2727272727
7.390625,2021095.0,1998490.0,2177767.0,2064119.0,1766237.0,2161749.0,2081992.0,1859641.0,1973494.0,2185029.0,1956971.0,2022416.7272727273
7.40625,2021279.0,1996369.0,2180303.0,2064357.0,1764961.0,2163327.0,2080554.0,1860342.0,1968519.0,2183138.0,1957627.0,2021888.7272727273
7.421875,2021472.0,1995463.0,2183021.0,2064722.0,1765196.0,2164737.0,2079404.0,1861189.0,1961805.0,2182008.0,1958123.0,2021558.1818181819
7.4375,2021895.0,1995450.0,2185201.0,2065137.0,1765549.0,2166869.0,2077811.0,1861873.0,1957012.0,2181004.0,1958839.0,2021512.7272727273
7.453125,2022187.0,1996595.0,2187565.0,2065712.0,1769953.0,2168919.0,2078000.0,1862085.0,1952583.0,2180372.0,1959821.0,2022162.9090909092
7.46875,2023038.0,1998100.0,2190101.0,2066288.0,1767912.0,2171399.0,2080548.0,1863014.0,1948014.0,2180352.0,1960336.0,2022645.6363636365
7.484375,2023457.0,1999471.0,2192354.0,2066815.0,1775059.0,2173640.0,2085357.0,1864224.0,1944179.0,2180087.0,1961083.0,2024156.9090909092
7.5,2024316.0,2000447.0,2194350.0,2067514.0,1777523.0,2175623.0,2089539.0,1866374.0,1941929.0,2179683.0,1961965.0,2025387.5454545454
7.515625,2025216.0,2001650.0,2196622.0,2068155.0,1779684.0,2177762.0,2093389.0,1870823.0,1939588.0,2180092.0,1962994.0,2026906.8181818181
7.53125,2029499.0,2003255.0,2199255.0,2068774.0,1765173.0,2178786.0,2097655.0,1877931.0,1937177.0,2180609.0,1963212.0,2027393.2727272727
7.546875,2028518.0,2005556.0,2201894.0,2069564.0,1772681.0,2176020.0,2101187.0,1883809.0,1935654.0,2181396.0,1963703.0,2029089.2727272727
7.5625,2027134.0,2007742.0,2203985.0,2070210.0,1782286.0,2171210.0,2103945.0,1889376.0,1934739.0,2182470.0,1963888.0,2030635.0
7.578125,2032142.0,2010221.0,2206145.0,2070954.0,1784031.0,2166341.0,2104050.0,1895176.0,1934730.0,2183739.0,1964081.0,2031964.5454545454
7.59375,2026193.0,2012761.0,2207899.0,2071623.0,1783898.0,2162996.0,2104458.0,1901533.0,1935035.0,2185133.0,1964417.0,2032358.7272727273
7.609375,2033671.0,2013646.0,2209641.0,2072449.0,1784103.0,2159743.0,2104244.0,1907976.0,1935744.0,2186153.0,1965044.0,2033855.8181818181
7.625,2030627.0,2009990.0,2210515.0,2072951.0,1784722.0,2157886.0,2104504.0,1913870.0,1936390.0,2187731.0,1965386.0,2034052.0
7.640625,2035032.0,2004787.0,2209726.0,2072132.0,1782687.0,2156206.0,2103592.0,1919092.0,1937427.0,2189310.0,1965982.0,2034179.3636363635
7.65625,2037173.0,2000968.0,2208398.0,2070339.0,1781879.0,2154712.0,2103067.0,1924629.0,1938630.0,2190667.0,1966401.0,2034260.2727272727
7.671875,2036100.0,1998377.0,2207672.0,2068708.0,1782596.0,2153015.0,2102513.0,1930097.0,1940174.0,2190093.0,1967113.0,2034223.4545454546
7.6875,2035458.0,1997042.0,2207401.0,2067344.0,1782463.0,2151723.0,2100585.0,1934477.0,1941568.0,2187361.0,1967868.0,2033935.4545454546
7.703125,2033295.0,1997472.0,2206999.0,2066383.0,1782450.0,2151080.0,2098068.0,1938991.0,1943448.0,2185553.0,1968270.0,2033819.0
7.71875,2030791.0,1998089.0,2207365.0,2066061.0,1781423.0,2150830.0,2096728.0,1943079.0,1945708.0,2184220.0,1969032.0,2033938.7272727273
7.734375,2029635.0,1999014.0,2207625.0,2065907.0,1781514.0,2151063.0,2096384.0,1946560.0,1948612.0,2183353.0,1969728.0,2034490.4545454546
7.75,2028953.0,1999921.0,2208183.0,2065540.0,1783356.0,2151660.0,2096805.0,1948935.0,1947632.0,2182597.0,1970478.0,2034914.5454545454
7.765625,2028907.0,2000692.0,2208325.0,2065197.0,1785942.0,2152536.0,2097634.0,1950901.0,1944141.0,2182673.0,1971297.0,2035295.0
7.78125,2031663.0,2001668.0,2208360.0,2064749.0,1790008.0,2153635.0,2098894.0,1952470.0,1937883.0,2182453.0,1972263.0,2035822.3636363635
7.796875,2028969.0,2003126.0,2208628.0,2064324.0,1796051.0,2155267.0,2100030.0,1954135.0,1933288.0,2182122.0,1972540.0,2036225.4545454546
7.8125,2028525.0,2004886.0,2209411.0,2064175.0,1801895.0,2156809.0,2101508.0,1955575.0,1930616.0,2182054.0,1972815.0,2037115.3636363635
7.828125,2028853.0,2007062.0,2210216.0,2064167.0,1808016.0,2157923.0,2104087.0,1956594.0,1928163.0,2182526.0,1973049.0,2038241.4545454546
7.84375,2028560.0,2009383.0,2211396.0,2064432.0,1813997.0,2159346.0,2106325.0,1957761.0,1927582.0,2183376.0,1973086.0,2039567.6363636365
7.859375,2028603.0,2011633.0,2211733.0,2064748.0,1817839.0,2160764.0,2108309.0,1958977.0,1929202.0,2184456.0,1973547.0,2040891.9090909092
7.875,2028647.0,2011309.0,2212421.0,2065115.0,1817173.0,2162585.0,2110066.0,1960118.0,1931397.0,2185409.0,1973934.0,2041652.1818181819
7.890625,2029794.0,2006427.0,2212678.0,2065556.0,1814964.0,2164241.0,2109693.0,1961337.0,1934833.0,2186405.0,1974370.0,2041845.2727272727
7.90625,2030524.0,2001289.0,2213171.0,2066191.0,1812891.0,2166606.0,2106256.0,1963157.0,1938083.0,2187855.0,1974887.0,2041900.9090909092
7.921875,2029380.0,1997083.0,2213010.0,2066735.0,1812259.0,2168186.0,2103155.0,1965167.0,1942239.0,2189141.0,1975428.0,2041980.2727272727
7.9375,2031320.0,1994551.0,2210937.0,2067230.0,1813082.0,2170346.0,2101195.0,1967954.0,1947412.0,2190379.0,1975743.0,2042740.8181818181
7.953125,2031746.0,1993215.0,2208949.0,2067791.0,1817262.0,2170825.0,2100639.0,1970020.0,1952700.0,2191752.0,1976351.0,2043750.0
7.96875,2032618.0,1993307.0,2208258.0,2068407.0,1821080.0,2169327.0,2102122.0,1971536.0,1958180.0,2191223.0,1976655.0,2044792.0909090908
7.984375,2033934.0,1993772.0,2207162.0,2069101.0,1822742.0,2165275.0,2104610.0,1974070.0,1963048.0,2188525.0,1977208.0,2045404.2727272727
8.0,2034751.0,1994396.0,2206163.0,2069649.0,1825531.0,2161593.0,2107289.0,1976155.0,1967287.0,2186805.0,1977816.0,2046130.4545454546
8.015625,2035523.0,1994836.0,2204888.0,2070273.0,1827614.0,2159549.0,2109116.0,1978166.0,1972233.0,2185539.0,1978268.0,2046909.5454545454
8.03125,2036675.0,1995093.0,2204194.0,2071041.0,1830259.0,2157730.0,2111442.0,1979647.0,1978104.0,2184589.0,1979000.0,2047979.4545454546
8.046875,2037814.0,1995942.0,2203429.0,2071620.0,1833565.0,2156171.0,2114304.0,1980254.0,1985685.0,2184154.0,1979504.0,2049312.9090909092
8.0625,2038819.0,1996842.0,2203365.0,2071233.0,1837320.0,2155529.0,2117282.0,1981412.0,1994425.0,2184209.0,1979734.0,2050924.5454545454
8.078125,2038347.0,1998627.0,2203451.0,2069247.0,1840797.0,2154024.0,2119986.0,1982818.0,2003445.0,2183942.0,1979944.0,2052238.9090909092
8.09375,2036633.0,2000305.0,2204339.0,2067111.0,1844159.0,2152482.0,2122535.0,1984003.0,2013260.0,2183616.0,1979849.0,2053481.0909090908
8.109375,2034311.0,2002449.0,2204806.0,2065395.0,1847629.0,2151994.0,2124761.0,1985077.0,2020340.0,2183580.0,1979888.0,2054566.3636363635
8.125,2033110.0,2003470.0,2205559.0,2064256.0,1851094.0,2151314.0,2126703.0,1986381.0,2017765.0,2184215.0,1980042.0,2054900.8181818181
8.140625,2032208.0,1999885.0,2206125.0,2063643.0,1851846.0,2150980.0,2129688.0,1987391.0,2010656.0,2184868.0,1980314.0,2054327.6363636365
8.15625,2031915.0,1993879.0,2209022.0,2063311.0,1849981.0,2151729.0,2131960.0,1988794.0,2005507.0,2185901.0,1980546.0,2053867.7272727273
8.171875,2031936.0,1988730.0,2207183.0,2062954.0,1847794.0,2151177.0,2134292.0,1990525.0,2000385.0,2186978.0,1980966.0,2052992.7272727273
8.1875,2032208.0,1985183.0,2209996.0,2062546.0,1846154.0,2150437.0,2136719.0,1992592.0,1994118.0,2188048.0,1981263.0,2052660.3636363635
8.203125,2032232.0,1982643.0,2208086.0,2061852.0,1845245.0,2149462.0,2138977.0,1994556.0,1987711.0,2189459.0,1981482.0,2051973.1818181819
8.21875,2032317.0,1982128.0,2210307.0,2061271.0,1845084.0,2148344.0,2139814.0,1996457.0,1982036.0,2190741.0,1981817.0,2051846.9090909092
8.234375,2032407.0,1982222.0,2209346.0,2060657.0,1846343.0,2147461.0,2138900.0,1998285.0,1977386.0,2192046.0,1981997.0,2051550.0
8.25,2032693.0,1982916.0,2207958.0,2060541.0,1847624.0,2146281.0,2137454.0,1999969.0,1972457.0,2193166.0,1982340.0,2051218.0909090908
8.265625,2033147.0,1983219.0,2206852.0,2060582.0,1848838.0,2145262.0,2135870.0,2001650.0,1968602.0,2192047.0,1982851.0,2050810.9090909092
8.28125,2033879.0,1983554.0,2206183.0,2060727.0,1850041.0,2143521.0,2133607.0,2002917.0,1965604.0,2189366.0,1983181.0,2050234.5454545454
8.296875,2034759.0,1984081.0,2205497.0,2060798.0,1851866.0,2141337.0,2132149.0,2003148.0,1963594.0,2187473.0,1983713.0,2049855.9090909092
8.3125,2035631.0,1985006.0,2205438.0,2061112.0,1853873.0,2137201.0,2132106.0,2003392.0,1962494.0,2186368.0,1983901.0,2049683.8181818181
8.328125,2036567.0,1986670.0,2205612.0,2061410.0,1856325.0,2132722.0,2133067.0,2003256.0,1962137.0,2185440.0,1983913.0,2049738.0909090908
8.34375,2037725.0,1988432.0,2205337.0,2061632.0,1859059.0,2129692.0,2135241.0,2003550.0,1962310.0,2184880.0,1983694.0,2050141.0909090908
8.359375,2038841.0,1990483.0,2205158.0,2061907.0,1861957.0,2127185.0,2137751.0,2003640.0,1962762.0,2184805.0,1983435.0,2050720.3636363635
8.375,2040219.0,1992572.0,2206576.0,2062161.0,1864889.0,2123488.0,2140041.0,2004152.0,1963886.0,2184653.0,1983453.0,2051462.7272727273
8.390625,2041751.0,1992999.0,2207128.0,2062474.0,1867653.0,2116473.0,2141062.0,2004863.0,1964743.0,2184383.0,1983751.0,2051570.9090909092
8.40625,2042989.0,1988185.0,2207777.0,2062774.0,1871139.0,2108878.0,2142183.0,2005094.0,1966249.0,2184483.0,1983850.0,2051236.4545454546
8.421875,2044651.0,1981723.0,2205820.0,2063092.0,1873840.0,2099763.0,2143518.0,2005789.0,1967976.0,2184799.0,1983972.0,2050449.3636363635
8.4375,2046436.0,1976654.0,2205388.0,2063627.0,1877397.0,2089764.0,2144198.0,2005846.0,1969757.0,2185564.0,1983991.0,2049874.7272727273
8.453125,2047552.0,1972904.0,2208563.0,2064003.0,1880707.0,2077832.0,2145461.0,2006648.0,1971694.0,2186608.0,1984031.0,2049636.6363636365
8.46875,2049638.0,1970516.0,2209497.0,2062957.0,1884197.0,2063520.0,2147653.0,2007037.0,1973110.0,2188013.0,1984312.0,2049131.8181818181
8.484375,2050243.0,1969677.0,2210365.0,2060725.0,1887588.0,2047026.0,2149818.0,2007447.0,1970495.0,2189037.0,1984664.0,2047916.8181818181
8.5,2050536.0,1969972.0,2210703.0,2058938.0,1890865.0,2030686.0,2152197.0,2008278.0,1962555.0,2190173.0,1984582.0,2046316.8181818181
8.515625,2051289.0,1970377.0,2212004.0,2057551.0,1894212.0,2017682.0,2154926.0,2008482.0,1954641.0,2191472.0,1985082.0,2045247.0909090908
8.53125,2051879.0,1970785.0,2208428.0,2056690.0,1895522.0,2007810.0,2158389.0,2009379.0,1948085.0,2192990.0,1985323.0,2044116.3636363635
8.546875,2051198.0,1970959.0,2211250.0,2056432.0,1893976.0,2000702.0,2161452.0,2009266.0,1942377.0,2193848.0,1985508.0,2043360.7272727273
8.5625,2048445.0,1971665.0,2206539.0,2056295.0,1891882.0,1995604.0,2164031.0,2008245.0,1936434.0,2192517.0,1985748.0,2041582.2727272727
8.578125,2044565.0,1973013.0,2205124.0,2056015.0,1891078.0,1991205.0,2165841.0,2006884.0,1932356.0,2189822.0,1985433.0,2040121.4545454546
8.59375,2040422.0,1974521.0,2203971.0,2055488.0,1890286.0,1987427.0,2166925.0,2005518.0,1929023.0,2187778.0,1984810.0,2038742.6363636365
8.609375,2037290.0,1976730.0,2203252.0,2054996.0,1890540.0,1985322.0,2165860.0,2004402.0,1925130.0,2185249.0,1984369.0,2037558.1818181819
8.625,2036178.0,1979032.0,2202520.0,2054408.0,1891357.0,1984428.0,2164875.0,2003804.0,1921652.0,2186434.0,1984040.0,2037157.0909090908
8.640625,2036101.0,1981508.0,2202320.0,2054288.0,1892563.0,1984587.0,2167008.0,2003687.0,1918738.0,2184519.0,1983866.0,2037198.6363636365
8.65625,2038145.0,1983344.0,2202548.0,2054362.0,1894229.0,1985590.0,2164755.0,2003321.0,1916986.0,2183999.0,1983920.0,2037381.7272727273
8.671875,2041403.0,1983849.0,2202944.0,2054596.0,1895820.0,1987355.0,2165880.0,2002971.0,1915759.0,2183627.0,1983689.0,2037990.2727272727
8.6875,2045026.0,1978612.0,2202630.0,2054867.0,1897604.0,1989819.0,2167200.0,2002868.0,1915330.0,2183236.0,1983715.0,2038264.2727272727
8.703125,2047775.0,1973073.0,2202950.0,2055289.0,1899635.0,1993350.0,2168858.0,2003061.0,1915591.0,2183305.0,1983748.0,2038785.0
8.71875,2050636.0,1968336.0,2204212.0,2055867.0,1902007.0,1998240.0,2170500.0,2003199.0,1915690.0,2183330.0,1983499.0,2039592.3636363635
8.734375,2054103.0,1965610.0,2203387.0,2056477.0,1904263.0,2002855.0,2172084.0,2003948.0,1916446.0,2184198.0,1983752.0,2040647.5454545454
8.75,2057440.0,1963740.0,2204793.0,2057070.0,1907229.0,2008501.0,2173579.0,2004357.0,1917165.0,2185006.0,1983653.0,2042048.4545454546
8.765625,2061515.0,1963655.0,2205600.0,2057482.0,1910412.0,2013903.0,2175001.0,2004888.0,1917965.0,2186887.0,1983884.0,2043744.7272727273
8.78125,2065047.0,1964439.0,2206357.0,2057963.0,1913233.0,2019150.0,2176887.0,2006016.0,1919254.0,2186212.0,1983792.0,2045304.5454545454
8.796875,2067402.0,1965406.0,2207297.0,2058678.0,1915998.0,2024763.0,2179112.0,2006880.0,1921196.0,2189414.0,1984003.0,2047286.2727272727
8.8125,2070027.0,1966056.0,2208267.0,2059310.0,1918830.0,2030283.0,2183481.0,2007081.0,1923040.0,2188165.0,1983414.0,2048904.9090909092
8.828125,2073039.0,1967207.0,2208988.0,2059042.0,1918830.0,2035190.0,2185882.0,2005890.0,1924336.0,2190485.0,1982307.0,2050108.7272727273
8.84375,2075729.0,1968265.0,2208397.0,2057298.0,1922367.0,2039753.0,2187057.0,2004868.0,1920804.0,2191672.0,1981856.0,2050733.2727272727
8.859375,2076785.0,1970090.0,2206162.0,2055379.0,1925485.0,2044002.0,2181370.0,2004274.0,1912399.0,2190577.0,1981109.0,2049784.7272727273
8.875,2077084.0,1972182.0,2204132.0,2053685.0,1928768.0,2047097.0,2189386.0,2003760.0,1905181.0,2187947.0,1983886.0,2050282.5454545454
8.890625,2078699.0,1974477.0,2201683.0,2052525.0,1931804.0,2050437.0,2191139.0,2003315.0,1899081.0,2185798.0,1980866.0,2049984.0
8.90625,2081132.0,1976998.0,2200669.0,2052065.0,1935193.0,2057705.0,2192164.0,2002679.0,1893632.0,2184755.0,1980538.0,2050684.5454545454
8.921875,2084060.0,1979788.0,2202919.0,2051943.0,1938242.0,2053918.0,2193241.0,2003403.0,1887775.0,2183335.0,1980354.0,2050816.1818181819
8.9375,2086979.0,1982714.0,2201045.0,2051954.0,1941442.0,2061848.0,2194346.0,2002999.0,1883645.0,2182709.0,1979877.0,2051778.0
8.953125,2092223.0,1985448.0,2200274.0,2051695.0,1944092.0,2065791.0,2196259.0,2001995.0,1880861.0,2182401.0,1979587.0,2052784.1818181819
8.96875,2097459.0,1984727.0,2199911.0,2051309.0,1944585.0,2070190.0,2196770.0,2001929.0,1878352.0,2182196.0,1979357.0,2053344.0909090908
8.984375,2101919.0,1980361.0,2199749.0,2051024.0,1944631.0,2081498.0,2197170.0,2001431.0,1876299.0,2181728.0,1979239.0,2054095.3636363635
9.0,2106700.0,1975905.0,2199656.0,2050772.0,1945159.0,2074969.0,2197688.0,2000484.0,1874715.0,2181653.0,1979111.0,2053346.5454545454
9.015625,2112502.0,1972923.0,2200148.0,2050932.0,1946187.0,2077827.0,2196790.0,1999706.0,1874071.0,2182028.0,1978964.0,2053825.2727272727
9.03125,2117734.0,1971333.0,2200602.0,2051193.0,1947650.0,2079771.0,2195947.0,1998507.0,1874522.0,2182787.0,1978768.0,2054437.6363636365
9.046875,2122430.0,1971286.0,2201270.0,2051648.0,1949175.0,2079874.0,2195691.0,1998286.0,1875118.0,2183776.0,1978788.0,2055212.9090909092
9.0625,2123968.0,1972045.0,2201910.0,2052060.0,1951192.0,2079166.0,2195945.0,1998359.0,1876082.0,2184753.0,1978643.0,2055829.3636363635
9.078125,2123495.0,1973616.0,2202746.0,2052811.0,1953885.0,2082450.0,2196015.0,1996678.0,1877357.0,2185925.0,1978031.0,2056637.1818181819
9.09375,2120614.0,1974742.0,2203418.0,2053321.0,1956020.0,2079088.0,2195835.0,1993758.0,1879097.0,2187116.0,1976929.0,2056358.0
9.109375,2117965.0,1975758.0,2204095.0,2055174.0,1958222.0,2079568.0,2196041.0,1990509.0,1880497.0,2188267.0,1976007.0,2056554.8181818181
9.125,2115128.0,1977145.0,2205293.0,2054699.0,1960683.0,2080557.0,2197035.0,1986794.0,1882806.0,2189616.0,1975297.0,2056823.0
9.140625,2112963.0,1978706.0,2206047.0,2055893.0,1963106.0,2083511.0,2198538.0,1985975.0,1884604.0,2191114.0,1974396.0,2057713.9090909092
9.15625,2106344.0,1980523.0,2206840.0,2056711.0,1965983.0,2083397.0,2199989.0,1985731.0,1887380.0,2190242.0,1974097.0,2057930.6363636365
9.171875,2102129.0,1983164.0,2205236.0,2057043.0,1968813.0,2081940.0,2201429.0,1986674.0,1890067.0,2187678.0,1973669.0,2057985.6363636365
9.1875,2103639.0,1985654.0,2202656.0,2055822.0,1971525.0,2080578.0,2202798.0,1989518.0,1892712.0,2185761.0,1972363.0,2058456.9090909092
9.203125,2109386.0,1988669.0,2200882.0,2054042.0,1974494.0,2079029.0,2203740.0,1991819.0,1892355.0,2184529.0,1972074.0,2059183.5454545454
9.21875,2112864.0,1991481.0,2199133.0,2053646.0,1977165.0,2078846.0,2205051.0,1993186.0,1885690.0,2183336.0,1973011.0,2059400.8181818181
9.234375,2114326.0,1994623.0,2198292.0,2051896.0,1979904.0,2078277.0,2206229.0,1993506.0,1878588.0,2182836.0,1971349.0,2059075.0909090908
9.25,2114231.0,1995187.0,2197724.0,2050487.0,1983001.0,2079218.0,2207512.0,1992019.0,1872907.0,2182610.0,1971079.0,2058725.0
9.265625,2113257.0,1992079.0,2197450.0,2049381.0,1985729.0,2078756.0,2211452.0,1989088.0,1868037.0,2182260.0,1971025.0,2058046.7272727273
9.28125,2112194.0,1987909.0,2197285.0,2049134.0,1988409.0,2076426.0,2209442.0,1986576.0,1863231.0,2181814.0,1971203.0,2056693.0
9.296875,2111429.0,1984976.0,2196813.0,2048881.0,1991331.0,2074426.0,2210407.0,1982664.0,1859641.0,2181912.0,1971680.0,2055832.7272727273
9.3125,2110118.0,1983602.0,2196631.0,2048788.0,1994042.0,2069711.0,2208689.0,1977610.0,1857684.0,2182278.0,1970950.0,2054554.8181818181
9.328125,2108511.0,1983277.0,2197332.0,2048380.0,1996972.0,2067940.0,2212178.0,1970909.0,1855758.0,2182919.0,1970842.0,2054092.5454545454
9.34375,2107679.0,1984231.0,2197808.0,2047932.0,1999554.0,2066186.0,2210929.0,1966016.0,1853818.0,2183851.0,1970394.0,2053490.7272727273
9.359375,2107901.0,1985769.0,2196864.0,2047494.0,2001536.0,2065905.0,2210082.0,1959374.0,1852879.0,2184936.0,1969455.0,2052926.8181818181
9.375,2108718.0,1987163.0,2198269.0,2047516.0,2002297.0,2072106.0,2211427.0,1952870.0,1852867.0,2185775.0,1968478.0,2053407.8181818181
9.390625,2110752.0,1988628.0,2199653.0,2047712.0,2003285.0,2065324.0,2210217.0,1947088.0,1853534.0,2187147.0,1967604.0,2052813.0909090908
9.40625,2114462.0,1989940.0,2199096.0,2048203.0,2004389.0,2065484.0,2210061.0,1942232.0,1854645.0,2188081.0,1966627.0,2053020.0
9.421875,2118954.0,1991673.0,2200692.0,2048531.0,2005597.0,2065111.0,2210054.0,1938068.0,1856362.0,2189357.0,1965836.0,2053657.7272727273
9.4375,2122534.0,1993836.0,2201302.0,2049150.0,2007165.0,2064989.0,2210784.0,1933961.0,1857990.0,2190666.0,1965403.0,2054343.6363636365
9.453125,2124785.0,1996120.0,2202218.0,2050964.0,2009174.0,2065636.0,2211844.0,1930089.0,1862063.0,2190353.0,1964842.0,2055280.7272727273
9.46875,2124851.0,1999079.0,2201597.0,2051689.0,2011084.0,2065287.0,2212243.0,1926617.0,1860131.0,2185656.0,1963869.0,2054736.6363636365
9.484375,2125441.0,2001697.0,2199026.0,2052831.0,2012732.0,2046576.0,2212855.0,1924098.0,1864491.0,2184429.0,1963187.0,2053396.6363636365
9.5,2126159.0,2004760.0,2196311.0,2049893.0,2014873.0,2045184.0,2213338.0,1923494.0,1866948.0,2183365.0,1963055.0,2053398.1818181819
9.515625,2126609.0,2007831.0,2194708.0,2053621.0,2017057.0,2043293.0,2211863.0,1922472.0,1873155.0,2182783.0,1962629.0,2054183.7272727273
9.53125,2126244.0,2011034.0,2192476.0,2054201.0,2018984.0,2041496.0,2210858.0,1926149.0,1875710.0,2182419.0,1962457.0,2054729.8181818181
9.546875,2125276.0,2012463.0,2193421.0,2053280.0,2021074.0,2059420.0,2211226.0,1924759.0,1873711.0,2182179.0,1962980.0,2056344.4545454546
9.5625,2124532.0,2009953.0,2192149.0,2052146.0,2023494.0,2055291.0,2213186.0,1921247.0,1869825.0,2181829.0,1964038.0,2055244.5454545454
9.578125,2124511.0,2006204.0,2191726.0,2050448.0,2025682.0,2039960.0,2215200.0,1918797.0,1867727.0,2181661.0,1964316.0,2053293.8181818181
9.59375,2124082.0,2003472.0,2191330.0,2051198.0,2027670.0,2051855.0,2216892.0,1916462.0,1863265.0,2182111.0,1964823.0,2053923.6363636365
9.609375,2124281.0,2001917.0,2190880.0,2049390.0,2030018.0,2038169.0,2218477.0,1914152.0,1857489.0,2182780.0,1965491.0,2052094.9090909092
9.625,2123650.0,2001539.0,2190975.0,2047994.0,2032098.0,2048842.0,2219758.0,1912326.0,1855130.0,2183455.0,1965758.0,2052865.9090909092
9.640625,2123072.0,2002230.0,2191401.0,2046927.0,2034174.0,2037471.0,2220136.0,1908878.0,1860231.0,2184656.0,1965860.0,2052276.0
9.65625,2122480.0,2003512.0,2191805.0,2046717.0,2036161.0,2063256.0,2220252.0,1904469.0,1854805.0,2185707.0,1965726.0,2054080.9090909092
9.671875,2122270.0,2004943.0,2192445.0,2046666.0,2038338.0,2037429.0,2220277.0,1902210.0,1854260.0,2186838.0,1966494.0,2052015.4545454546
9.6875,2121998.0,2006360.0,2193019.0,2046398.0,2040879.0,2037225.0,2220130.0,1900845.0,1853710.0,2187891.0,1967048.0,2052318.4545454546
9.703125,2121312.0,2007515.0,2193848.0,2045799.0,2042806.0,2037122.0,2222005.0,1898780.0,1853755.0,2189474.0,1967553.0,2052724.4545454546
9.71875,2121457.0,2009229.0,2195325.0,2045421.0,2044788.0,2038327.0,2225545.0,1896888.0,1854576.0,2190425.0,1968438.0,2053674.4545454546
9.734375,2121363.0,2011340.0,2194347.0,2045216.0,2046403.0,2039631.0,2228799.0,1896059.0,1856457.0,2189599.0,1969578.0,2054435.6363636365
9.75,2121047.0,2013336.0,2196426.0,2045021.0,2046615.0,2040795.0,2231063.0,1894226.0,1858865.0,2187055.0,1970354.0,2054982.0909090908
9.765625,2121808.0,2016061.0,2196433.0,2045146.0,2047003.0,2044460.0,2232492.0,1892744.0,1861389.0,2184451.0,1971436.0,2055765.7272727273
9.78125,2121618.0,2018777.0,2193868.0,2045381.0,2048234.0,2046249.0,2233443.0,1891828.0,1863919.0,2183068.0,1972669.0,2056277.6363636365
9.796875,2121848.0,2021652.0,2191005.0,2045617.0,2048768.0,2047947.0,2234509.0,1890859.0,1866684.0,2181622.0,1974195.0,2056791.4545454546
9.8125,2122427.0,2024698.0,2188306.0,2046161.0,2049876.0,2047767.0,2234858.0,1890144.0,1869574.0,2180741.0,1975470.0,2057274.7272727273
9.828125,2122713.0,2027708.0,2186504.0,2046576.0,2051347.0,2044991.0,2235094.0,1889849.0,1875559.0,2180227.0,1977085.0,2057968.4545454546
9.84375,2123271.0,2030281.0,2184560.0,2047092.0,2052671.0,2042408.0,2234837.0,1889413.0,1872592.0,2179635.0,1978494.0,2057750.3636363635
9.859375,2123170.0,2029859.0,2183855.0,2048324.0,2054179.0,2041651.0,2236240.0,1888922.0,1886241.0,2179090.0,1979473.0,2059182.1818181819
9.875,2123687.0,2026630.0,2183007.0,2047488.0,2055597.0,2038427.0,2237165.0,1888608.0,1863325.0,2178942.0,1980764.0,2056694.5454545454
9.890625,2123797.0,2023666.0,2182336.0,2047932.0,2056461.0,2035952.0,2238210.0,1887886.0,1879083.0,2179036.0,1982067.0,2057856.9090909092
9.90625,2124028.0,2021656.0,2181687.0,2048972.0,2058210.0,2033860.0,2238229.0,1885978.0,1867717.0,2179671.0,1983082.0,2056644.5454545454
9.921875,2124667.0,2021519.0,2181052.0,2049540.0,2059565.0,2032037.0,2237994.0,1883680.0,1874764.0,2180323.0,1983511.0,2057150.1818181819
9.9375,2125510.0,2021648.0,2181180.0,2049813.0,2061450.0,2030582.0,2237744.0,1881409.0,1863102.0,2181260.0,1983678.0,2056125.0909090908
9.953125,2125913.0,2022942.0,2181507.0,2048918.0,2063031.0,2028870.0,2236779.0,1879381.0,1882361.0,2182188.0,1983203.0,2057735.7272727273
9.96875,2126158.0,2024625.0,2181907.0,2047212.0,2064572.0,2027814.0,2235566.0,1877423.0,1871263.0,2183258.0,1982529.0,2056575.1818181819
9.984375,2126143.0,2025966.0,2182245.0,2045514.0,2066346.0,2026749.0,2234533.0,1875461.0,1884756.0,2184268.0,1981860.0,2057621.9090909092
10.0,2125541.0,2027236.0,2182868.0,2044500.0,2067838.0,2026168.0,2232900.0,1874102.0,1879057.0,2185494.0,1981433.0,2057012.4545454546
10.015625,2125870.0,2028623.0,2183424.0,2044096.0,2069396.0,2026206.0,2230991.0,1873509.0,1888382.0,2186664.0,1981192.0,2058032.0909090908
10.03125,2126201.0,2030228.0,2183888.0,2044171.0,2071089.0,2026395.0,2227954.0,1871986.0,1863627.0,2186145.0,1980920.0,2055691.2727272727
10.046875,2126977.0,2032346.0,2184239.0,2044178.0,2072605.0,2026725.0,2225539.0,1870849.0,1862927.0,2183503.0,1980447.0,2055485.0
10.0625,2127517.0,2034550.0,2185149.0,2044014.0,2073990.0,2027711.0,2224013.0,1869605.0,1863126.0,2181078.0,1980474.0,2055566.0909090908
10.078125,2127318.0,2036900.0,2185564.0,2043521.0,2075746.0,2028921.0,2222827.0,1868529.0,1864651.0,2179347.0,1980236.0,2055778.1818181819
10.09375,2128056.0,2039581.0,2183008.0,2043221.0,2076646.0,2029286.0,2221182.0,1868167.0,1865573.0,2177922.0,1980094.0,2055703.2727272727
10.109375,2128326.0,2042258.0,2179296.0,2042936.0,2076873.0,2030484.0,2220141.0,1867918.0,1867702.0,2176811.0,1980067.0,2055710.1818181819
10.125,2128834.0,2044875.0,2175899.0,2042957.0,2075982.0,2029458.0,2220209.0,1867409.0,1870335.0,2176275.0,1980185.0,2055674.3636363635
10.140625,2129778.0,2046186.0,2173218.0,2043032.0,2075806.0,2028305.0,2219505.0,1867186.0,1872635.0,2175860.0,1980237.0,2055613.4545454546
10.15625,2130297.0,2043460.0,2170820.0,2043300.0,2075473.0,2027853.0,2218912.0,1866873.0,1875690.0,2175327.0,1980568.0,2055324.8181818181
10.171875,2130439.0,2040280.0,2169485.0,2043634.0,2075771.0,2028642.0,2218865.0,1866526.0,1878662.0,2174971.0,1980621.0,2055263.2727272727
10.1875,2130914.0,2037941.0,2168529.0,2043979.0,2076033.0,2030882.0,2218173.0,1864901.0,1881676.0,2175045.0,1980638.0,2055337.3636363635
10.203125,2131174.0,2036729.0,2167707.0,2044300.0,2076551.0,2033574.0,2217233.0,1862961.0,1888151.0,2175877.0,1980857.0,2055919.4545454546
10.21875,2131608.0,2037039.0,2166690.0,2044756.0,2077162.0,2036053.0,2216085.0,1861477.0,1884962.0,2176567.0,1980485.0,2055716.7272727273
10.234375,2131954.0,2037790.0,2166065.0,2045361.0,2077678.0,2039263.0,2214768.0,1860080.0,1891812.0,2177598.0,1980085.0,2056586.7272727273
10.25,2132730.0,2039215.0,2165831.0,2045850.0,2077837.0,2039669.0,2212239.0,1858769.0,1895608.0,2178459.0,1979635.0,2056894.7272727273
10.265625,2133382.0,2040703.0,2165785.0,2046353.0,2078614.0,2036474.0,2208002.0,1858176.0,1899105.0,2179499.0,1979186.0,2056843.5454545454
10.28125,2133636.0,2041923.0,2166135.0,2046880.0,2079365.0,2032451.0,2203135.0,1857576.0,1900038.0,2180435.0,1978942.0,2056410.5454545454
10.296875,2134288.0,2043008.0,2166524.0,2047069.0,2080327.0,2029017.0,2197619.0,1857424.0,1895454.0,2181800.0,1979328.0,2055623.4545454546
10.3125,2134737.0,2044373.0,2166895.0,2044245.0,2081291.0,2026943.0,2192362.0,1857208.0,1890506.0,2182951.0,1979301.0,2054619.2727272727
10.328125,2135528.0,2046185.0,2167504.0,2042736.0,2081974.0,2025334.0,2187091.0,1857379.0,1887316.0,2184130.0,1979263.0,2054040.0
10.34375,2135835.0,2048081.0,2168158.0,2045965.0,2083496.0,2024681.0,2182563.0,1857500.0,1884336.0,2182364.0,1979178.0,2053832.4545454546
10.359375,2135422.0,2050544.0,2169549.0,2041738.0,2084640.0,2024438.0,2178945.0,1858076.0,1881311.0,2179767.0,1979181.0,2053055.5454545454
10.375,2134834.0,2052814.0,2168780.0,2041149.0,2085880.0,2024289.0,2175082.0,1858364.0,1879455.0,2178029.0,1979471.0,2052558.8181818181
10.390625,2134718.0,2055091.0,2170391.0,2041170.0,2088431.0,2024232.0,2171594.0,1858764.0,1879209.0,2176646.0,1979644.0,2052717.2727272727
10.40625,2134737.0,2058050.0,2169536.0,2041144.0,2090117.0,2023680.0,2168174.0,1859415.0,1878790.0,2175759.0,1979569.0,2052633.7272727273
10.421875,2134580.0,2058723.0,2165885.0,2041053.0,2092463.0,2023650.0,2165342.0,1860355.0,1878759.0,2175164.0,1980004.0,2052361.6363636365
10.4375,2134470.0,2055402.0,2161944.0,2040401.0,2094732.0,2024081.0,2162884.0,1860773.0,1879164.0,2174628.0,1980184.0,2051696.6363636365
10.453125,2134215.0,2051581.0,2159018.0,2040272.0,2095167.0,2025077.0,2161219.0,1860535.0,1880576.0,2174376.0,1980642.0,2051152.5454545454
10.46875,2134023.0,2048326.0,2156569.0,2040117.0,2092652.0,2026136.0,2159346.0,1860017.0,1882179.0,2174127.0,1981026.0,2050410.7272727273
10.484375,2134325.0,2046038.0,2154692.0,2040238.0,2088484.0,2027150.0,2157706.0,1859364.0,1884751.0,2174205.0,1980692.0,2049785.9090909092
10.5,2134481.0,2044967.0,2153678.0,2040555.0,2083266.0,2028379.0,2156719.0,1859230.0,1887264.0,2174770.0,1980318.0,2049420.6363636365
10.515625,2134455.0,2044785.0,2152725.0,2040984.0,2079110.0,2029703.0,2158832.0,1858683.0,1890019.0,2175515.0,1979658.0,2049497.1818181819
10.53125,2134331.0,2045781.0,2151707.0,2041718.0,2075887.0,2030735.0,2160723.0,1858926.0,1892997.0,2176364.0,1979301.0,2049860.9090909092
10.546875,2134331.0,2046520.0,2150799.0,2042262.0,2073506.0,2032383.0,2161313.0,1859434.0,1896024.0,2177429.0,1979008.0,2050273.5454545454
10.5625,2134334.0,2047066.0,2150522.0,2042944.0,2071463.0,2033641.0,2161199.0,1860135.0,1898800.0,2178328.0,1979139.0,2050688.2727272727
10.578125,2134443.0,2047448.0,2150387.0,2043449.0,2069955.0,2034803.0,2159185.0,1861463.0,1901999.0,2179610.0,1979039.0,2051071.0
10.59375,2134252.0,2048277.0,2150811.0,2044049.0,2068281.0,2035252.0,2156409.0,1862668.0,1905303.0,2180701.0,1979007.0,2051364.5454545454
10.609375,2134054.0,2049491.0,2151272.0,2044701.0,2067391.0,2036285.0,2152344.0,1863939.0,1908399.0,2182086.0,1979213.0,2051743.1818181819
10.625,2134141.0,2050789.0,2152021.0,2046415.0,2066031.0,2038153.0,2147600.0,1864537.0,1912107.0,2183586.0,1979128.0,2052228.0
10.640625,2134309.0,2052721.0,2152557.0,2045503.0,2063966.0,2040640.0,2143078.0,1865303.0,1915708.0,2182646.0,1979175.0,2052327.8181818181
10.65625,2134617.0,2054604.0,2153223.0,2046735.0,2063727.0,2042643.0,2139181.0,1866329.0,1914726.0,2180088.0,1979140.0,2052273.9090909092
10.671875,2134784.0,2056436.0,2154089.0,2045787.0,2063112.0,2044864.0,2135058.0,1867296.0,1909366.0,2178234.0,1979512.0,2051685.2727272727
10.6875,2134703.0,2058842.0,2155055.0,2043622.0,2064217.0,2047420.0,2131227.0,1867785.0,1904721.0,2176885.0,1980100.0,2051325.1818181819
10.703125,2135171.0,2058994.0,2156047.0,2041447.0,2067076.0,2049799.0,2126731.0,1867755.0,1901226.0,2175675.0,1980307.0,2050929.8181818181
10.71875,2135447.0,2054949.0,2157133.0,2039810.0,2069368.0,2051608.0,2123253.0,1866484.0,1898951.0,2175209.0,1980723.0,2050266.8181818181
10.734375,2135352.0,2050343.0,2156501.0,2038436.0,2070715.0,2050584.0,2121034.0,1865662.0,1896562.0,2174824.0,1981083.0,2049190.5454545454
10.75,2134435.0,2046007.0,2152538.0,2037797.0,2072516.0,2048585.0,2121271.0,1864766.0,1895594.0,2174555.0,1981278.0,2048122.0
10.765625,2133946.0,2043154.0,2148472.0,2037407.0,2078497.0,2046144.0,2120632.0,1864077.0,1895312.0,2173838.0,1980860.0,2047485.3636363635
10.78125,2133063.0,2041809.0,2145613.0,2036913.0,2075731.0,2044252.0,2119159.0,1863708.0,1895309.0,2173872.0,1980474.0,2046354.8181818181
10.796875,2132268.0,2041234.0,2143181.0,2036483.0,2080465.0,2042867.0,2117540.0,1863785.0,1895639.0,2174119.0,1979795.0,2046125.0909090908
10.8125,2132030.0,2041552.0,2141332.0,2035900.0,2079643.0,2041630.0,2116160.0,1863828.0,1896650.0,2175717.0,1979552.0,2045817.6363636365
10.828125,2131353.0,2042264.0,2140226.0,2035453.0,2074890.0,2041349.0,2115327.0,1864164.0,1898533.0,2174738.0,1979318.0,2045237.7272727273
10.84375,2130741.0,2042139.0,2139465.0,2035387.0,2073013.0,2040687.0,2114564.0,1864467.0,1901915.0,2176575.0,1979357.0,2045300.9090909092
10.859375,2130621.0,2042479.0,2138593.0,2035538.0,2071704.0,2039874.0,2113376.0,1865164.0,1909069.0,2177690.0,1979181.0,2045753.5454545454
10.875,2130157.0,2042834.0,2137696.0,2035930.0,2077352.0,2039211.0,2109902.0,1865677.0,1917545.0,2178755.0,1979212.0,2046751.9090909092
10.890625,2129530.0,2043679.0,2137517.0,2036434.0,2070466.0,2038098.0,2105202.0,1866068.0,1927411.0,2179696.0,1979457.0,2046687.0909090908
10.90625,2128983.0,2044834.0,2137439.0,2036932.0,2069708.0,2037886.0,2099582.0,1867001.0,1939074.0,2180831.0,1979099.0,2047397.1818181819
10.921875,2128653.0,2046533.0,2137832.0,2037843.0,2069099.0,2037411.0,2094505.0,1867711.0,1959439.0,2182062.0,1979123.0,2049110.0909090908
10.9375,2128303.0,2048183.0,2138417.0,2038557.0,2068313.0,2037553.0,2089025.0,1868413.0,1950339.0,2181218.0,1979373.0,2047972.1818181819
10.953125,2128117.0,2050092.0,2139097.0,2039197.0,2067682.0,2037937.0,2084669.0,1868476.0,1967955.0,2178608.0,1979448.0,2049207.0909090908
10.96875,2128646.0,2051956.0,2139595.0,2039872.0,2066479.0,2038667.0,2080402.0,1867963.0,1975822.0,2176206.0,1979481.0,2049553.5454545454
10.984375,2128762.0,2052676.0,2140438.0,2040750.0,2066232.0,2039499.0,2076310.0,1867218.0,1982288.0,2174737.0,1979838.0,2049886.1818181819
11.0,2129183.0,2048635.0,2141324.0,2041466.0,2066037.0,2039807.0,2072768.0,1866954.0,1988252.0,2173515.0,1980087.0,2049820.7272727273
11.015625,2129154.0,2042958.0,2142042.0,2042228.0,2065715.0,2040992.0,2069826.0,1866410.0,1993385.0,2172618.0,1980236.0,2049596.7272727273
11.03125,2129496.0,2037918.0,2143116.0,2043244.0,2065675.0,2041365.0,2067527.0,1866203.0,1993228.0,2171891.0,1979904.0,2049051.5454545454
11.046875,2129751.0,2034504.0,2144385.0,2043311.0,2065784.0,2042149.0,2066118.0,1866711.0,1988316.0,2171422.0,1979559.0,2048364.5454545454
11.0625,2130017.0,2032451.0,2142910.0,2041424.0,2065993.0,2043284.0,2065530.0,1866468.0,1983662.0,2170829.0,1978871.0,2047403.5454545454
11.078125,2130341.0,2031643.0,2138373.0,2039119.0,2066167.0,2044607.0,2065218.0,1866992.0,1979482.0,2170542.0,1978526.0,2046455.4545454546
11.09375,2129742.0,2031393.0,2134489.0,2036835.0,2066229.0,2046103.0,2064925.0,1867478.0,1975105.0,2173462.0,1978095.0,2045805.0909090908
11.109375,2129284.0,2031441.0,2131554.0,2035038.0,2066749.0,2047579.0,2064763.0,1868142.0,1969789.0,2172966.0,1978116.0,2045038.2727272727
11.125,2128290.0,2031470.0,2129096.0,2033723.0,2067402.0,2049348.0,2064052.0,1868765.0,1965441.0,2172006.0,1978189.0,2044343.8181818181
11.140625,2127700.0,2031342.0,2127399.0,2033270.0,2066599.0,2051061.0,2063050.0,1869331.0,1962068.0,2174937.0,1978059.0,2044074.1818181819
11.15625,2127356.0,2031331.0,2126663.0,2032971.0,2063019.0,2052596.0,2062148.0,1869586.0,1957466.0,2177413.0,1978258.0,2043527.9090909092
11.171875,2127445.0,2032079.0,2125870.0,2032834.0,2057793.0,2054912.0,2060478.0,1870281.0,1953107.0,2170823.0,1978222.0,2042167.6363636365
11.1875,2126938.0,2032605.0,2125187.0,2032461.0,2044849.0,2056581.0,2057251.0,1871066.0,1949373.0,2175984.0,1978429.0,2040974.9090909092
11.203125,2127082.0,2034027.0,2124321.0,2032061.0,2042232.0,2055799.0,2051720.0,1871944.0,1946860.0,2173629.0,1978481.0,2039832.3636363635
11.21875,2127380.0,2035468.0,2124233.0,2031996.0,2039943.0,2053391.0,2046841.0,1871993.0,1944888.0,2178585.0,1978854.0,2039415.6363636365
11.234375,2127384.0,2036997.0,2124434.0,2032062.0,2037717.0,2050269.0,2042358.0,1871191.0,1943546.0,2175936.0,1979090.0,2038271.2727272727
11.25,2127599.0,2038661.0,2124737.0,2032719.0,2035323.0,2047977.0,2037273.0,1871630.0,1942839.0,2171285.0,1979524.0,2037233.3636363635
11.265625,2127706.0,2038643.0,2125521.0,2033273.0,2029971.0,2045812.0,2033406.0,1870845.0,1942481.0,2178653.0,1979765.0,2036916.0
11.28125,2127813.0,2033163.0,2126266.0,2034388.0,2031374.0,2044664.0,2029716.0,1870125.0,1942544.0,2171865.0,1980050.0,2035633.4545454546
11.296875,2128109.0,2026824.0,2127055.0,2035262.0,2029353.0,2043776.0,2027357.0,1869853.0,1942729.0,2170476.0,1979793.0,2034598.8181818181
11.3125,2128472.0,2021600.0,2127864.0,2036301.0,2033125.0,2043305.0,2025350.0,1869944.0,1943121.0,2169490.0,1979417.0,2034362.6363636365
11.328125,2128737.0,2017970.0,2128779.0,2037323.0,2052822.0,2042257.0,2023603.0,1870133.0,1943912.0,2168878.0,1978917.0,2035757.3636363635
11.34375,2128670.0,2015817.0,2129908.0,2038502.0,2048405.0,2040963.0,2022518.0,1870141.0,1944919.0,2167962.0,1978481.0,2035116.9090909092
11.359375,2128724.0,2014775.0,2130995.0,2039490.0,2028443.0,2040165.0,2022700.0,1870203.0,1946577.0,2168482.0,1978069.0,2033511.1818181819
11.375,2128366.0,2014450.0,2131124.0,2040835.0,2028286.0,2039513.0,2022980.0,1870502.0,1948114.0,2167740.0,1978052.0,2033632.9090909092
11.390625,2129301.0,2014516.0,2126884.0,2041998.0,2027708.0,2039853.0,2023560.0,1870860.0,1949527.0,2167830.0,1978195.0,2033657.4545454546
11.40625,2129733.0,2013696.0,2122116.0,2043239.0,2027194.0,2040004.0,2024228.0,1871689.0,1948204.0,2168248.0,1978078.0,2033311.7272727273
11.421875,2130243.0,2013734.0,2118043.0,2044239.0,2027188.0,2040798.0,2024535.0,1872051.0,1941765.0,2169214.0,1977935.0,2032704.0909090908
11.4375,2130487.0,2013442.0,2115023.0,2045495.0,2026872.0,2041612.0,2025326.0,1872663.0,1935763.0,2170216.0,1977697.0,2032236.0
11.453125,2130533.0,2013907.0,2112798.0,2046199.0,2027120.0,2042505.0,2026208.0,1873106.0,1930878.0,2171189.0,1977691.0,2032012.1818181819
11.46875,2129367.0,2014599.0,2111020.0,2044913.0,2026646.0,2043058.0,2026738.0,1873780.0,1926747.0,2172346.0,1977800.0,2031546.7272727273
11.484375,2128213.0,2016020.0,2110249.0,2042066.0,2022192.0,2044088.0,2027741.0,1874531.0,1922965.0,2173517.0,1978031.0,2030873.9090909092
11.5,2127628.0,2017618.0,2109226.0,2039492.0,2016000.0,2044799.0,2029885.0,1874908.0,1920837.0,2174766.0,1978309.0,2030315.2727272727
11.515625,2127408.0,2019227.0,2108163.0,2037302.0,2010106.0,2046132.0,2030364.0,1874431.0,1919348.0,2176269.0,1978504.0,2029750.3636363635
11.53125,2126879.0,2020186.0,2107821.0,2035831.0,2005342.0,2047360.0,2028726.0,1873465.0,1917519.0,2177087.0,1978866.0,2029007.4545454546
11.546875,2126644.0,2015970.0,2107995.0,2034927.0,2001418.0,2048483.0,2025179.0,1873041.0,1915976.0,2175216.0,1979236.0,2027644.0909090908
11.5625,2126341.0,2008973.0,2108217.0,2034777.0,1998701.0,2049994.0,2021588.0,1872693.0,1915028.0,2170615.0,1978890.0,2025983.3636363635
11.578125,2126138.0,2002342.0,2108845.0,2034936.0,1996281.0,2051737.0,2018235.0,1872323.0,1915198.0,2169527.0,1978600.0,2024923.8181818181
11.59375,2125886.0,1996846.0,2109590.0,2035010.0,1994229.0,2053569.0,2014866.0,1872677.0,1915830.0,2172403.0,1977833.0,2024430.8181818181
11.609375,2125489.0,1993316.0,2110533.0,2035019.0,1991621.0,2054962.0,2013553.0,1872943.0,1917035.0,2167572.0,1977403.0,2023586.0
11.625,2125128.0,1991061.0,2111403.0,2034953.0,1989571.0,2056771.0,2012825.0,1873265.0,1920196.0,2166861.0,1976932.0,2023542.3636363635
11.640625,2124634.0,1990211.0,2112251.0,2034882.0,1987953.0,2058885.0,2011763.0,1873602.0,1922708.0,2166653.0,1976649.0,2023653.7272727273
11.65625,2124735.0,1989614.0,2113511.0,2034523.0,1986819.0,2059300.0,2010476.0,1874079.0,1918598.0,2166542.0,1976673.0,2023170.0
11.671875,2124264.0,1989181.0,2114693.0,2033960.0,1985755.0,2057224.0,2008926.0,1874755.0,1927703.0,2167178.0,1976468.0,2023646.0909090908
11.6875,2124072.0,1988571.0,2117332.0,2035693.0,1985617.0,2053647.0,2007781.0,1875199.0,1933353.0,2167385.0,1976263.0,2024083.0
11.703125,2115717.0,1988262.0,2115850.0,2039921.0,1985256.0,2050503.0,2007540.0,1875905.0,1936574.0,2167940.0,1976358.0,2023620.5454545454
11.71875,2114996.0,1988450.0,2115981.0,2038237.0,1985381.0,2047641.0,2007701.0,1876598.0,1939976.0,2168802.0,1976282.0,2023640.4545454546
11.734375,2113918.0,1989355.0,2110632.0,2030307.0,1984921.0,2045496.0,2008176.0,1877269.0,1930382.0,2171270.0,1976239.0,2021633.1818181819
11.75,2124323.0,1990483.0,2105568.0,2028535.0,1984874.0,2043547.0,2008896.0,1878062.0,1925178.0,2170006.0,1976324.0,2021436.0
11.765625,2123942.0,1991797.0,2101786.0,2033474.0,1985205.0,2042768.0,2010067.0,1878456.0,1941226.0,2172529.0,1976436.0,2023426.0
11.78125,2123039.0,1993546.0,2098490.0,2050373.0,1985537.0,2040801.0,2011942.0,1878416.0,1936301.0,2173785.0,1976633.0,2024442.0909090908
11.796875,2121114.0,1995417.0,2096084.0,2069050.0,1985821.0,2039168.0,2014583.0,1878134.0,1930517.0,2175115.0,1976882.0,2025625.9090909092
11.8125,2119699.0,1996889.0,2094671.0,2087756.0,1984907.0,2037134.0,2017902.0,1877704.0,1926137.0,2176377.0,1977244.0,2026947.2727272727
11.828125,2117976.0,1993186.0,2093713.0,2099685.0,1979696.0,2035491.0,2021876.0,1877598.0,1922690.0,2175326.0,1977347.0,2026780.3636363635
11.84375,2116811.0,1985806.0,2092650.0,2107689.0,1972857.0,2034562.0,2025374.0,1877123.0,1919108.0,2172929.0,1977073.0,2025634.7272727273
11.859375,2123985.0,1978576.0,2091900.0,2098034.0,1967293.0,2034321.0,2026986.0,1877232.0,1915855.0,2171026.0,1976533.0,2023794.6363636365
11.875,2124241.0,1972577.0,2091518.0,2085031.0,1962138.0,2034135.0,2025923.0,1877159.0,1914150.0,2168345.0,1975574.0,2020981.0
11.890625,2113017.0,1968720.0,2091631.0,2073183.0,1958319.0,2033697.0,2024878.0,1877411.0,1913315.0,2170111.0,1975045.0,2018120.6363636365
11.90625,2112571.0,1966273.0,2092156.0,2063517.0,1955211.0,2033730.0,2023810.0,1878181.0,1912530.0,2169192.0,1974576.0,2016522.4545454546
11.921875,2124458.0,1965502.0,2092926.0,2057898.0,1953149.0,2033886.0,2022150.0,1878618.0,1914486.0,2168777.0,1974421.0,2016933.7272727273
11.9375,2124230.0,1965235.0,2093699.0,2055968.0,1950964.0,2034428.0,2021447.0,1877790.0,1923693.0,2168298.0,1974306.0,2017278.0
11.953125,2111841.0,1964691.0,2094588.0,2055725.0,1948747.0,2035067.0,2021434.0,1877615.0,1911922.0,2168578.0,1974193.0,2014945.5454545454
11.96875,2124098.0,1964568.0,2095704.0,2057986.0,1946948.0,2035333.0,2022407.0,1879168.0,1928521.0,2168134.0,1974033.0,2017900.0
11.984375,2111609.0,1964248.0,2096779.0,2060231.0,1945442.0,2036551.0,2023479.0,1879596.0,1932551.0,2168513.0,1974117.0,2017556.0
12.0,2111097.0,1964939.0,2098195.0,2061877.0,1945119.0,2037264.0,2024984.0,1880185.0,1918720.0,2167921.0,1974071.0,2016761.0909090908
12.015625,2110787.0,1965880.0,2099534.0,2064155.0,1944490.0,2038582.0,2026691.0,1880692.0,1938599.0,2169502.0,1974326.0,2019385.2727272727
12.03125,2110357.0,1967580.0,2101055.0,2066270.0,1944384.0,2039615.0,2028573.0,1881298.0,1935924.0,2170461.0,1974360.0,2019988.8181818181
12.046875,2109808.0,1969234.0,2102714.0,2067137.0,1944749.0,2041062.0,2030920.0,1882149.0,1941507.0,2171169.0,1974500.0,2021359.0
12.0625,2108990.0,1971537.0,2104260.0,2066180.0,1945082.0,2042554.0,2033458.0,1882122.0,1943811.0,2172454.0,1974601.0,2022277.1818181819
12.078125,2108975.0,1974000.0,2104955.0,2065166.0,1945280.0,2044309.0,2036234.0,1881863.0,1946185.0,2173839.0,1974811.0,2023237.9090909092
12.09375,2108661.0,1976199.0,2100551.0,2063496.0,1946990.0,2046121.0,2042013.0,1881151.0,1949061.0,2175024.0,1974986.0,2024023.0
12.109375,2108316.0,1978046.0,2095372.0,2063322.0,1948784.0,2045940.0,2039405.0,1880578.0,1951897.0,2176324.0,1975203.0,2023926.0909090908
12.125,2108221.0,1974230.0,2091328.0,2063483.0,1948069.0,2043228.0,2045073.0,1880062.0,1954710.0,2177228.0,1975398.0,2023730.0
12.140625,2107609.0,1967631.0,2088213.0,2063318.0,1945632.0,2039359.0,2048487.0,1879695.0,1954601.0,2175736.0,1974645.0,2022266.0
12.15625,2106157.0,1961022.0,2085733.0,2062301.0,1946592.0,2036182.0,2051943.0,1879590.0,1949478.0,2172805.0,1974071.0,2020534.0
12.171875,2104305.0,1956850.0,2084516.0,2061066.0,1945598.0,2033835.0,2055929.0,1879514.0,1942836.0,2168665.0,1973404.0,2018774.3636363635
12.1875,2102721.0,1953854.0,2083713.0,2060190.0,1940039.0,2032118.0,2054730.0,1879638.0,1938563.0,2171005.0,1972803.0,2017215.8181818181
12.203125,2101076.0,1952494.0,2082933.0,2060114.0,1934341.0,2030924.0,2055592.0,1879624.0,1935345.0,2168059.0,1972554.0,2015732.3636363635
12.21875,2099512.0,1952543.0,2082000.0,2060056.0,1930258.0,2030440.0,2054658.0,1879852.0,1931764.0,2169676.0,1972386.0,2014831.3636363635
12.234375,2098056.0,1952908.0,2081457.0,2059503.0,1927269.0,2028993.0,2053669.0,1880306.0,1929425.0,2167814.0,1972185.0,2013780.4545454546
12.25,2095288.0,1953419.0,2082019.0,2056137.0,1924707.0,2028029.0,2053005.0,1880741.0,1928184.0,2167030.0,1972226.0,2012798.6363636365
12.265625,2097092.0,1953518.0,2082639.0,2050842.0,1921827.0,2026655.0,2053211.0,1881204.0,1926888.0,2167439.0,1972145.0,2012132.7272727273
12.28125,2093964.0,1953986.0,2083428.0,2045844.0,1923511.0,2025831.0,2054469.0,1881785.0,1925728.0,2167597.0,1972041.0,2011653.0909090908
12.296875,2093093.0,1954805.0,2084524.0,2042338.0,1919446.0,2025352.0,2055916.0,1882596.0,1924743.0,2167010.0,1971810.0,2011057.5454545454
12.3125,2091757.0,1956516.0,2085641.0,2040080.0,1916487.0,2025408.0,2057652.0,1883456.0,1924810.0,2168359.0,1972433.0,2011145.3636363635
12.328125,2091133.0,1958503.0,2086825.0,2038232.0,1913102.0,2025763.0,2059332.0,1884443.0,1925511.0,2169314.0,1972136.0,2011299.4545454546
12.34375,2090214.0,1960790.0,2088243.0,2038206.0,1910403.0,2026347.0,2061554.0,1885469.0,1926611.0,2170410.0,1972405.0,2011877.4545454546
12.359375,2089515.0,1963281.0,2089751.0,2037843.0,1907855.0,2026978.0,2063969.0,1886063.0,1927510.0,2171402.0,1972689.0,2012441.4545454546
12.375,2088834.0,1966106.0,2091599.0,2036721.0,1906144.0,2027586.0,2066731.0,1886175.0,1928944.0,2172546.0,1972939.0,2013120.4545454546
12.390625,2088104.0,1968665.0,2093145.0,2035758.0,1904770.0,2028093.0,2069882.0,1885392.0,1930661.0,2173902.0,1973304.0,2013788.7272727273
12.40625,2087243.0,1970437.0,2095054.0,2035044.0,1904005.0,2028432.0,2073020.0,1886304.0,1935430.0,2175268.0,1973620.0,2014896.0909090908
12.421875,2086829.0,1966231.0,2096855.0,2034839.0,1903455.0,2029571.0,2076624.0,1885829.0,1938001.0,2175975.0,1972948.0,2015196.0909090908
12.4375,2096178.0,1959875.0,2098864.0,2035074.0,1903738.0,2030522.0,2080134.0,1884694.0,1932800.0,2169119.0,1972430.0,2014857.0909090908
12.453125,2086269.0,1954771.0,2096721.0,2035404.0,1904065.0,2031925.0,2083112.0,1884275.0,1940702.0,2174325.0,1973548.0,2015010.6363636365
12.46875,2085698.0,1951276.0,2092104.0,2036002.0,1904364.0,2033497.0,2085988.0,1884448.0,1944258.0,2171335.0,1972129.0,2014645.3636363635
12.484375,2085009.0,1949550.0,2088029.0,2036940.0,1905476.0,2034716.0,2088371.0,1884528.0,1947792.0,2167896.0,1971600.0,2014537.0
12.5,2083196.0,1949144.0,2085343.0,2037800.0,1905913.0,2036684.0,2091255.0,1884234.0,1951712.0,2166254.0,1971191.0,2014793.2727272727
12.515625,2080613.0,1949964.0,2083076.0,2038410.0,1906323.0,2038353.0,2093513.0,1884055.0,1954037.0,2165464.0,1971660.0,2015042.5454545454
12.53125,2077652.0,1950934.0,2081927.0,2039413.0,1904543.0,2040052.0,2093796.0,1884299.0,1945746.0,2164943.0,1970966.0,2014024.6363636365
12.546875,2074896.0,1951390.0,2081662.0,2040321.0,1899705.0,2041800.0,2094021.0,1884655.0,1950431.0,2164434.0,1971134.0,2014040.8181818181
12.5625,2072679.0,1952155.0,2081380.0,2041022.0,1898804.0,2042728.0,2093305.0,1884899.0,1942038.0,2164064.0,1971030.0,2013100.3636363635
12.578125,2070588.0,1952948.0,2080813.0,2041790.0,1901700.0,2040262.0,2092717.0,1885099.0,1938848.0,2163918.0,1970945.0,2012693.4545454546
12.59375,2068683.0,1954382.0,2080781.0,2042744.0,1902249.0,2036077.0,2091917.0,1885779.0,1935627.0,2164263.0,1971353.0,2012168.6363636365
12.609375,2066931.0,1956330.0,2081284.0,2043950.0,1903486.0,2032398.0,2091817.0,1886129.0,1933479.0,2164872.0,1971173.0,2011986.2727272727
12.625,2065430.0,1958687.0,2082227.0,2045274.0,1904866.0,2029631.0,2092359.0,1886736.0,1933757.0,2165765.0,1971453.0,2012380.4545454546
12.640625,2063622.0,1961338.0,2083297.0,2044234.0,1906370.0,2026841.0,2093234.0,1887144.0,1934227.0,2166603.0,1971698.0,2012600.7272727273
12.65625,2062239.0,1964094.0,2084395.0,2040570.0,1906959.0,2024742.0,2093946.0,1887769.0,1934963.0,2167551.0,1972001.0,2012657.1818181819
12.671875,2060762.0,1966862.0,2085955.0,2035906.0,1907258.0,2023022.0,2095583.0,1888250.0,1936697.0,2168608.0,1972168.0,2012824.6363636365
12.6875,2059692.0,1968328.0,2087452.0,2032029.0,1907978.0,2021671.0,2098419.0,1887885.0,1939758.0,2170055.0,1972809.0,2013279.6363636365
12.703125,2058865.0,1964379.0,2088953.0,2029804.0,1909340.0,2019328.0,2100182.0,1887266.0,1943158.0,2171271.0,1972987.0,2013230.2727272727
12.71875,2057991.0,1958190.0,2090567.0,2029020.0,1910472.0,2017925.0,2102016.0,1886791.0,1946895.0,2172438.0,1973102.0,2013218.8181818181
12.734375,2057208.0,1952839.0,2092627.0,2029011.0,1912211.0,2016639.0,2104248.0,1886185.0,1951666.0,2171970.0,1972835.0,2013403.5454545454
12.75,2056735.0,1949358.0,2094111.0,2029439.0,1913931.0,2015688.0,2106563.0,1885806.0,1953030.0,2168785.0,1972105.0,2013231.9090909092
12.765625,2056230.0,1947203.0,2096138.0,2029555.0,1915850.0,2015703.0,2108955.0,1885745.0,1954540.0,2166617.0,1971512.0,2013458.9090909092
12.78125,2055808.0,1946935.0,2098244.0,2029258.0,1917419.0,2015613.0,2111214.0,1885474.0,1955682.0,2165120.0,1971020.0,2013798.8181818181
12.796875,2055433.0,1947580.0,2100159.0,2028917.0,1919347.0,2016255.0,2113573.0,1885414.0,1956342.0,2163708.0,1970886.0,2014328.5454545454
12.8125,2055483.0,1948604.0,2100993.0,2028786.0,1921168.0,2016680.0,2116081.0,1885304.0,1957192.0,2162882.0,1970788.0,2014905.5454545454
12.828125,2054651.0,1949200.0,2097365.0,2028842.0,1923175.0,2017407.0,2118376.0,1885150.0,1957971.0,2162577.0,1970720.0,2015039.4545454546
12.84375,2052179.0,1950073.0,2093370.0,2029487.0,1925160.0,2018403.0,2119868.0,1885326.0,1959136.0,2162132.0,1970535.0,2015060.8181818181
12.859375,2049088.0,1951127.0,2090545.0,2030602.0,1927041.0,2019271.0,2119760.0,1885492.0,1960881.0,2161761.0,1970617.0,2015107.7272727273
12.875,2046487.0,1952597.0,2089131.0,2031770.0,1929463.0,2020321.0,2119080.0,1885594.0,1962660.0,2161769.0,1970399.0,2015388.2727272727
12.890625,2044345.0,1954715.0,2087765.0,2033127.0,1930168.0,2021641.0,2118199.0,1885726.0,1961272.0,2162201.0,1970549.0,2015428.0
12.90625,2041672.0,1956909.0,2087496.0,2034459.0,1926974.0,2022995.0,2117292.0,1885544.0,1954790.0,2162979.0,1970573.0,2014698.4545454546
12.921875,2041672.0,1959860.0,2087457.0,2035690.0,1922952.0,2024067.0,2115691.0,1885690.0,1948039.0,2164127.0,1971015.0,2014205.4545454546
12.9375,2038123.0,1962503.0,2087522.0,2036959.0,1919696.0,2025831.0,2115011.0,1885759.0,1943522.0,2165367.0,1970947.0,2013749.0909090908
12.953125,2036115.0,1965387.0,2087309.0,2038091.0,1917600.0,2026902.0,2115001.0,1885818.0,1939356.0,2166721.0,1971280.0,2013598.1818181819
12.96875,2034495.0,1968204.0,2087836.0,2039174.0,1915993.0,2028582.0,2114862.0,1886084.0,1935005.0,2168018.0,1971419.0,2013606.5454545454
12.984375,2033244.0,1966542.0,2088822.0,2040300.0,1915044.0,2030250.0,2114871.0,1885526.0,1931430.0,2169535.0,1972049.0,2013419.3636363635
13.0,2032838.0,1960969.0,2089848.0,2041607.0,1914735.0,2032237.0,2115149.0,1884595.0,1929678.0,2171135.0,1972033.0,2013165.8181818181
13.015625,2032590.0,1955147.0,2091182.0,2042783.0,1914328.0,2033019.0,2115923.0,1883752.0,1927441.0,2172811.0,1972224.0,2012836.3636363635
13.03125,2033331.0,1951142.0,2092765.0,2041273.0,1914162.0,2029391.0,2117074.0,1882819.0,1925863.0,2174218.0,1972022.0,2012187.2727272727
13.046875,2035599.0,1948755.0,2094374.0,2037977.0,1914259.0,2025254.0,2118407.0,1881906.0,1924917.0,2173224.0,1971395.0,2011460.6363636365
13.0625,2038426.0,1947811.0,2096151.0,2034688.0,1914500.0,2020858.0,2120350.0,1881185.0,1925328.0,2170970.0,1970756.0,2011002.0909090908
13.078125,2040674.0,1948123.0,2097679.0,2032519.0,1915200.0,2016524.0,2122410.0,1880882.0,1926254.0,2169154.0,1970284.0,2010882.0909090908
13.09375,2042346.0,1949006.0,2099560.0,2031483.0,1916520.0,2012511.0,2124849.0,1880842.0,1927544.0,2168152.0,1969905.0,2011156.1818181819
13.109375,2038356.0,1950263.0,2101577.0,2031641.0,1917932.0,2008946.0,2127251.0,1880380.0,1928763.0,2167316.0,1969778.0,2011109.3636363635
13.125,2031182.0,1950682.0,2103331.0,2032612.0,1919147.0,2006307.0,2130140.0,1880429.0,1930463.0,2167064.0,1969630.0,2010998.8181818181
13.140625,2022964.0,1951810.0,2105408.0,2033257.0,1920815.0,2002307.0,2133061.0,1880288.0,1932977.0,2167000.0,1969705.0,2010872.0
13.15625,2015123.0,1953181.0,2107502.0,2033407.0,1922330.0,1997463.0,2135832.0,1880436.0,1935426.0,2166885.0,1969612.0,2010654.2727272727
13.171875,2007779.0,1955071.0,2108247.0,2033353.0,1923991.0,1991420.0,2138107.0,1880466.0,1937816.0,2166762.0,1969488.0,2010227.2727272727
13.1875,2002288.0,1957317.0,2105064.0,2033350.0,1925653.0,1982963.0,2141027.0,1880840.0,1940604.0,2166997.0,1969618.0,2009611.0
13.203125,1997679.0,1959956.0,2101642.0,2033785.0,1927527.0,1974163.0,2143313.0,1881416.0,1943683.0,2167655.0,1969967.0,2009162.3636363635
13.21875,1991736.0,1963005.0,2099524.0,2034522.0,1929060.0,1968847.0,2143449.0,1881148.0,1946451.0,2168645.0,1970129.0,2008774.1818181819
13.234375,1989985.0,1966115.0,2098205.0,2035562.0,1931358.0,1966681.0,2142917.0,1881822.0,1949506.0,2169585.0,1970166.0,2009263.8181818181
13.25,1989707.0,1968972.0,2097390.0,2036926.0,1931043.0,1965935.0,2141544.0,1881578.0,1948784.0,2170753.0,1970515.0,2009377.0
13.265625,1987662.0,1971231.0,2097543.0,2038505.0,1927577.0,1965966.0,2140771.0,1882184.0,1942842.0,2172026.0,1970596.0,2008809.3636363635
13.28125,1985905.0,1968010.0,2097822.0,2040231.0,1923962.0,1967009.0,2139702.0,1881735.0,1936598.0,2173288.0,1970965.0,2007747.9090909092
13.296875,1983939.0,1962155.0,2097931.0,2041804.0,1921115.0,1967943.0,2139507.0,1881129.0,1932446.0,2174527.0,1971331.0,2006711.5454545454
13.3125,1982356.0,1957572.0,2098202.0,2043415.0,1919429.0,1969224.0,2138727.0,1880370.0,1928495.0,2175975.0,1971610.0,2005943.1818181819
13.328125,1980572.0,1954364.0,2098715.0,2044758.0,1918518.0,1971061.0,2137201.0,1878958.0,1924383.0,2177452.0,1971465.0,2005222.4545454546
13.34375,1978414.0,1952955.0,2099627.0,2046296.0,1918192.0,1973289.0,2135463.0,1879320.0,1921445.0,2178245.0,1970739.0,2004907.7272727273
13.359375,1976523.0,1952983.0,2100798.0,2047797.0,1918104.0,1975535.0,2132766.0,1878508.0,1920084.0,2176599.0,1970143.0,2004530.9090909092
13.375,1974038.0,1953693.0,2102125.0,2048469.0,1917998.0,1978744.0,2131908.0,1878250.0,1918430.0,2174119.0,1969714.0,2004317.0909090908
13.390625,1972502.0,1955166.0,2103414.0,2046942.0,1917557.0,1982139.0,2129435.0,1878261.0,1917327.0,2172381.0,1969558.0,2004062.0
13.40625,1970318.0,1956317.0,2104891.0,2044414.0,1917999.0,1988064.0,2133929.0,1878361.0,1915889.0,2171646.0,1969306.0,2004648.5454545454
13.421875,1968374.0,1957248.0,2106566.0,2042489.0,1918799.0,1999375.0,2122127.0,1878511.0,1916043.0,2170607.0,1969296.0,2004494.0909090908
13.4375,1966749.0,1958480.0,2108080.0,2041333.0,1919387.0,2005599.0,2116879.0,1878687.0,1916552.0,2170205.0,1969288.0,2004658.0909090908
13.453125,1964956.0,1959979.0,2110045.0,2041343.0,1921071.0,2009323.0,2115060.0,1878928.0,1917595.0,2170071.0,1969218.0,2005235.3636363635
13.46875,1963194.0,1962351.0,2111489.0,2041753.0,1922361.0,2008974.0,2114766.0,1879230.0,1918343.0,2169749.0,1969146.0,2005577.8181818181
13.484375,1961382.0,1964670.0,2113535.0,2042826.0,1923810.0,2007321.0,2113973.0,1879761.0,1919854.0,2169395.0,1969049.0,2005961.4545454546
13.5,1959774.0,1967590.0,2115622.0,2043478.0,1925308.0,2006881.0,2113674.0,1880087.0,1921619.0,2169774.0,1969349.0,2006650.5454545454
13.515625,1958741.0,1970369.0,2116111.0,2043774.0,1926791.0,2005690.0,2113711.0,1880569.0,1923198.0,2170315.0,1969292.0,2007141.9090909092
13.53125,1955943.0,1973555.0,2113076.0,2044154.0,1928352.0,2003837.0,2113545.0,1881080.0,1925435.0,2171235.0,1969632.0,2007258.5454545454
13.546875,1952242.0,1976629.0,2109854.0,2044481.0,1930196.0,2001457.0,2112701.0,1881283.0,1927608.0,2172048.0,1969914.0,2007128.4545454546
13.5625,1948488.0,1979452.0,2107778.0,2045263.0,1931919.0,1995820.0,2111708.0,1881465.0,1930336.0,2173517.0,1970227.0,2006906.6363636365
13.578125,1945102.0,1977622.0,2106712.0,2046353.0,1933927.0,1985213.0,2111093.0,1880786.0,1932688.0,2174412.0,1970379.0,2005844.2727272727
13.59375,1942550.0,1972407.0,2105835.0,2047527.0,1935920.0,1974782.0,2111188.0,1879556.0,1935794.0,2175625.0,1970839.0,2004729.3636363635
13.609375,1939949.0,1968101.0,2106218.0,2049058.0,1935151.0,1969956.0,2112520.0,1878578.0,1936217.0,2177060.0,1970694.0,2003954.7272727273
13.625,1937761.0,1965606.0,2106681.0,2050504.0,1931188.0,1968049.0,2112914.0,1877617.0,1930863.0,2178686.0,1970563.0,2002766.5454545454
13.640625,1935597.0,1964403.0,2106362.0,2052011.0,1926657.0,1968502.0,2112907.0,1876783.0,1924225.0,2179858.0,1969878.0,2001562.0909090908
13.65625,1933859.0,1964643.0,2106475.0,2053409.0,1923436.0,1970291.0,2114080.0,1876392.0,1919822.0,2179403.0,1971448.0,2001205.2727272727
13.671875,1931965.0,1966064.0,2106742.0,2054724.0,1920817.0,1976097.0,2115239.0,1875768.0,1915714.0,2176601.0,1987313.0,2002458.5454545454
13.6875,1930226.0,1967352.0,2107607.0,2056071.0,1918772.0,1988794.0,2116104.0,1875647.0,1911148.0,2174164.0,2019566.0,2005950.0909090908
13.703125,1928982.0,1968721.0,2108750.0,2057323.0,1917436.0,2010311.0,2118890.0,1875444.0,1907942.0,2172489.0,2030352.0,2008785.4545454546
