Timestamp,Participant_11,Participant_12,Participant_13,Participant_14,Participant_15,Participant_16,Participant_17,Participant_18,Participant_22,Participant_23,Participant_24,Average
0.0,2250520.0,2003859.0,2063489.0,2148250.0,2016708.0,2324179.0,2145775.0,1826840.0,2160295.0,2069207.0,2041660.0,2095525.6363636365
0.015625,2251985.0,2004534.0,2065377.0,2148783.0,2011193.0,2323064.0,2153288.0,1826742.0,2160474.0,2070285.0,2043495.0,2096292.7272727273
0.03125,2253757.0,2005246.0,2066710.0,2151142.0,2006278.0,2322263.0,2156475.0,1826685.0,2160564.0,2071326.0,2044607.0,2096823.0
0.046875,2255068.0,2006194.0,2065991.0,2152361.0,2002169.0,2321112.0,2157211.0,1826689.0,2161489.0,2072102.0,2045814.0,2096927.2727272727
0.0625,2256345.0,2006800.0,2064596.0,2153737.0,1998562.0,2320615.0,2148581.0,1827162.0,2162747.0,2073376.0,2047323.0,2096349.4545454546
0.078125,2258082.0,2008099.0,2063233.0,2153863.0,1996187.0,2320151.0,2158531.0,1827459.0,2164303.0,2074253.0,2048984.0,2097558.6363636362
0.09375,2259598.0,2009369.0,2062354.0,2153813.0,1994914.0,2319033.0,2160649.0,1827870.0,2166041.0,2075279.0,2049819.0,2098067.1818181816
0.109375,2260919.0,2010936.0,2062493.0,2154024.0,1994407.0,2318939.0,2164967.0,1828340.0,2167935.0,2074076.0,2051700.0,2098976.0
0.125,2262066.0,2011967.0,2062944.0,2150088.0,1993946.0,2317890.0,2166810.0,1828954.0,2169968.0,2072500.0,2053002.0,2099103.1818181816
0.140625,2262424.0,2009459.0,2063875.0,2154612.0,1993618.0,2318076.0,2168795.0,1829399.0,2172042.0,2071692.0,2053928.0,2099810.909090909
0.15625,2263022.0,2005000.0,2064798.0,2156778.0,1993013.0,2317267.0,2170747.0,1830267.0,2174421.0,2070883.0,2054491.0,2100062.4545454546
0.171875,2264311.0,2001311.0,2065935.0,2158024.0,1993266.0,2317082.0,2173477.0,1830838.0,2177142.0,2070633.0,2055004.0,2100638.4545454546
0.1875,2265506.0,1998122.0,2066907.0,2155715.0,1994801.0,2317335.0,2168965.0,1831166.0,2179463.0,2070544.0,2056818.0,2100485.6363636362
0.203125,2266865.0,1994288.0,2068071.0,2159169.0,1996673.0,2316225.0,2176533.0,1831941.0,2180518.0,2070750.0,2056948.0,2101634.6363636362
0.21875,2268070.0,1992274.0,2069531.0,2159852.0,1999145.0,2316993.0,2166224.0,1832089.0,2177580.0,2070704.0,2057136.0,2100872.5454545454
0.234375,2269778.0,1993103.0,2071051.0,2161283.0,2000592.0,2317147.0,2162643.0,1832047.0,2174360.0,2070926.0,2057639.0,2100960.8181818184
0.25,2271472.0,1995105.0,2072614.0,2163202.0,2001167.0,2316646.0,2162883.0,1831930.0,2172243.0,2071003.0,2057222.0,2101407.909090909
0.265625,2272324.0,1993988.0,2074240.0,2164402.0,2002893.0,2317497.0,2165638.0,1831539.0,2170198.0,2071570.0,2058794.0,2102098.4545454546
0.28125,2273720.0,1989794.0,2075940.0,2166295.0,2004849.0,2317561.0,2166579.0,1831409.0,2168378.0,2072570.0,2060039.0,2102466.727272727
0.296875,2274975.0,1984271.0,2077718.0,2169048.0,2007717.0,2318313.0,2167540.0,1830992.0,2167247.0,2073205.0,2060278.0,2102845.8181818184
0.3125,2276668.0,1975695.0,2079250.0,2161978.0,2010851.0,2318962.0,2168527.0,1830698.0,2167402.0,2074146.0,2060859.0,2102276.0
0.328125,2278071.0,1968599.0,2081300.0,2160763.0,2014156.0,2317970.0,2170074.0,1831045.0,2167829.0,2075173.0,2061358.0,2102394.3636363638
0.34375,2279577.0,1965417.0,2083498.0,2172201.0,2015076.0,2318704.0,2167574.0,1830832.0,2167961.0,2076208.0,2061404.0,2103495.6363636362
0.359375,2281122.0,1962296.0,2086793.0,2175535.0,2013633.0,2318973.0,2174969.0,1831437.0,2168228.0,2077236.0,2062200.0,2104765.6363636362
0.375,2282840.0,1956096.0,2089842.0,2179003.0,2011747.0,2318903.0,2169525.0,1831543.0,2169290.0,2078593.0,2063053.0,2104585.0
0.390625,2284015.0,1950535.0,2091848.0,2181359.0,2010423.0,2318029.0,2177542.0,1831469.0,2170458.0,2078098.0,2063542.0,2105210.727272727
0.40625,2285749.0,1946580.0,2094195.0,2184968.0,2010027.0,2316418.0,2177178.0,1831842.0,2172220.0,2076437.0,2064287.0,2105445.5454545454
0.421875,2286884.0,1945785.0,2096959.0,2187524.0,2010158.0,2315738.0,2177285.0,1832163.0,2174045.0,2075470.0,2065733.0,2106158.5454545454
0.4375,2288818.0,1946844.0,2099526.0,2190230.0,2012447.0,2317228.0,2178868.0,1832578.0,2175354.0,2074453.0,2066536.0,2107534.727272727
0.453125,2289949.0,1949951.0,2102376.0,2193582.0,2011025.0,2314270.0,2177362.0,1832465.0,2175473.0,2073936.0,2067448.0,2107985.1818181816
0.46875,2291520.0,1952627.0,2105088.0,2195820.0,2013372.0,2314688.0,2175235.0,1832280.0,2176249.0,2073245.0,2068150.0,2108934.0
0.484375,2292439.0,1954588.0,2107467.0,2200672.0,2014629.0,2313269.0,2172532.0,1831814.0,2177299.0,2073122.0,2068265.0,2109645.090909091
0.5,2293197.0,1957450.0,2109828.0,2198523.0,2016119.0,2312333.0,2168613.0,1831586.0,2179221.0,2073000.0,2068216.0,2109826.0
0.515625,2293796.0,1959999.0,2111871.0,2200524.0,2017546.0,2312961.0,2164791.0,1830973.0,2181876.0,2072753.0,2068277.0,2110487.909090909
0.53125,2295009.0,1962695.0,2114056.0,2201089.0,2019514.0,2311029.0,2163623.0,1830495.0,2183988.0,2072630.0,2067639.0,2111069.727272727
0.546875,2295921.0,1968343.0,2116228.0,2198066.0,2021919.0,2311547.0,2175327.0,1830344.0,2184206.0,2072895.0,2068296.0,2113008.3636363638
0.5625,2296863.0,1972219.0,2118087.0,2193668.0,2024170.0,2310800.0,2178592.0,1830601.0,2183817.0,2073654.0,2068865.0,2113757.8181818184
0.578125,2297758.0,1972133.0,2120045.0,2186418.0,2026368.0,2311021.0,2168068.0,1830403.0,2183074.0,2073898.0,2069045.0,2112566.4545454546
0.59375,2298921.0,1970540.0,2121806.0,2178050.0,2028595.0,2311019.0,2154297.0,1830559.0,2182642.0,2074546.0,2068492.0,2110860.6363636362
0.609375,2299849.0,1969202.0,2123326.0,2170674.0,2030270.0,2310380.0,2143924.0,1830700.0,2182745.0,2075487.0,2052320.0,2108079.727272727
0.625,2300598.0,1965040.0,2124814.0,2163380.0,2033913.0,2310792.0,2138770.0,1830897.0,2183815.0,2076789.0,2038570.0,2106125.272727273
0.640625,2301912.0,1959596.0,2126145.0,2156247.0,2031971.0,2310708.0,2136483.0,1831219.0,2186676.0,2077673.0,2029981.0,2104419.1818181816
0.65625,2302886.0,1956150.0,2127145.0,2151012.0,2035977.0,2310852.0,2133417.0,1831306.0,2188525.0,2079311.0,2029485.0,2104187.8181818184
0.671875,2304202.0,1953446.0,2128841.0,2147648.0,2038285.0,2310851.0,2131981.0,1831719.0,2190230.0,2080583.0,2032348.0,2104557.6363636362
0.6875,2305321.0,1950643.0,2130190.0,2144364.0,2036269.0,2311598.0,2130052.0,1831976.0,2192271.0,2081668.0,2037501.0,2104713.909090909
0.703125,2306680.0,1948335.0,2130464.0,2141564.0,2038639.0,2311977.0,2128247.0,1831703.0,2194165.0,2082706.0,2044173.0,2105332.090909091
0.71875,2307825.0,1946864.0,2130621.0,2138553.0,2032019.0,2312380.0,2127108.0,1831232.0,2195421.0,2083715.0,2046794.0,2104775.6363636362
0.734375,2309204.0,1949117.0,2131432.0,2132877.0,2033709.0,2312553.0,2125615.0,1830625.0,2196728.0,2084859.0,2046083.0,2104800.1818181816
0.75,2310497.0,1949393.0,2132370.0,2135273.0,2030670.0,2312460.0,2121577.0,1830102.0,2198551.0,2086234.0,2045434.0,2104778.272727273
0.765625,2311454.0,1947819.0,2133457.0,2131027.0,2030636.0,2311823.0,2117884.0,1829472.0,2199140.0,2087643.0,2046326.0,2104243.727272727
0.78125,2312854.0,1942428.0,2134419.0,2129387.0,2031750.0,2311146.0,2113940.0,1829261.0,2199830.0,2088780.0,2047053.0,2103713.4545454546
0.796875,2313775.0,1938402.0,2135308.0,2128303.0,2032898.0,2310110.0,2110416.0,1828980.0,2200631.0,2090827.0,2047322.0,2103361.090909091
0.8125,2313292.0,1935023.0,2136689.0,2126877.0,2034273.0,2308998.0,2107524.0,1828802.0,2201500.0,2092903.0,2049389.0,2103206.3636363638
0.828125,2312125.0,1931145.0,2137803.0,2125442.0,2033348.0,2307915.0,2105039.0,1828780.0,2202428.0,2095062.0,2048434.0,2102501.909090909
0.84375,2311708.0,1927621.0,2138871.0,2124002.0,2035494.0,2306909.0,2102447.0,1828887.0,2203557.0,2097329.0,2049630.0,2102405.0
0.859375,2310575.0,1924676.0,2139866.0,2124304.0,2037072.0,2306559.0,2099995.0,1828914.0,2203294.0,2099378.0,2052760.0,2102490.272727273
0.875,2309900.0,1920764.0,2141207.0,2121998.0,2038963.0,2305629.0,2097801.0,1828914.0,2198586.0,2101342.0,2055509.0,2101873.909090909
0.890625,2307922.0,1917007.0,2142994.0,2120492.0,2040861.0,2304747.0,2095489.0,1829207.0,2193252.0,2103398.0,2056866.0,2101112.272727273
0.90625,2302795.0,1913378.0,2144589.0,2119577.0,2042798.0,2303978.0,2092465.0,1829517.0,2189211.0,2105749.0,2058411.0,2100224.3636363638
0.921875,2304870.0,1909501.0,2145973.0,2118974.0,2044834.0,2303593.0,2093778.0,1829680.0,2186124.0,2107492.0,2061606.0,2100584.090909091
0.9375,2309019.0,1907241.0,2146862.0,2118767.0,2046557.0,2302898.0,2088036.0,1830021.0,2181864.0,2109415.0,2064839.0,2100501.727272727
0.953125,2310785.0,1907287.0,2147535.0,2118627.0,2048432.0,2302441.0,2091006.0,1829708.0,2178881.0,2111249.0,2067848.0,2101254.4545454546
0.96875,2321375.0,1906155.0,2148357.0,2118695.0,2050945.0,2302205.0,2089395.0,1828656.0,2178128.0,2112698.0,2069057.0,2102333.272727273
0.984375,2321112.0,1901962.0,2148619.0,2118090.0,2053395.0,2302171.0,2086719.0,1827670.0,2176968.0,2113553.0,2072784.0,2102094.8181818184
1.0,2319550.0,1896903.0,2147081.0,2117942.0,2055751.0,2302119.0,2082185.0,1827036.0,2175360.0,2114551.0,2075202.0,2101243.6363636362
1.015625,2320218.0,1891009.0,2146148.0,2117860.0,2057946.0,2302161.0,2074678.0,1826751.0,2173751.0,2115580.0,2078277.0,2100398.090909091
1.03125,2320171.0,1885628.0,2145816.0,2118099.0,2057658.0,2302122.0,2070926.0,1826750.0,2172926.0,2116832.0,2083917.0,2100076.8181818184
1.046875,2323978.0,1881758.0,2145570.0,2117990.0,2054924.0,2302357.0,2078258.0,1826773.0,2172133.0,2118230.0,2083299.0,2100479.090909091
1.0625,2329389.0,1878291.0,2145681.0,2116788.0,2051279.0,2302785.0,2087273.0,1826745.0,2172461.0,2119443.0,2078023.0,2100741.6363636362
1.078125,2332389.0,1875441.0,2145900.0,2114793.0,2047987.0,2302798.0,2085302.0,1826770.0,2175064.0,2120902.0,2077118.0,2100405.8181818184
1.09375,2334697.0,1872579.0,2146186.0,2115637.0,2045709.0,2302931.0,2067562.0,1826914.0,2177955.0,2122046.0,2070826.0,2098458.3636363638
1.109375,2336963.0,1870140.0,2146239.0,2118401.0,2045389.0,2303554.0,2064714.0,1827034.0,2184469.0,2123096.0,2064603.0,2098600.1818181816
1.125,2338207.0,1867720.0,2146227.0,2121651.0,2045359.0,2303710.0,2062669.0,1827189.0,2190845.0,2124558.0,2063482.0,2099237.909090909
1.140625,2340740.0,1865708.0,2146690.0,2127603.0,2045650.0,2303906.0,2061111.0,1827066.0,2193706.0,2125550.0,2068030.0,2100523.6363636362
1.15625,2341805.0,1865834.0,2147328.0,2133089.0,2046076.0,2302902.0,2059595.0,1827245.0,2195176.0,2126115.0,2070162.0,2101393.3636363638
1.171875,2342671.0,1866834.0,2148053.0,2138293.0,2046013.0,2301007.0,2058485.0,1827310.0,2194267.0,2126766.0,2070328.0,2101820.6363636362
1.1875,2344417.0,1870271.0,2148869.0,2144074.0,2046295.0,2302120.0,2057752.0,1826740.0,2189966.0,2127502.0,2073375.0,2102852.8181818184
1.203125,2347150.0,1874677.0,2149623.0,2148964.0,2047099.0,2297809.0,2058152.0,1825912.0,2178661.0,2128872.0,2076722.0,2103058.272727273
1.21875,2349377.0,1877358.0,2150054.0,2151123.0,2047444.0,2299545.0,2056906.0,1825054.0,2183709.0,2128853.0,2083152.0,2104779.5454545454
1.234375,2350822.0,1880091.0,2150689.0,2152397.0,2047659.0,2293973.0,2056583.0,1824092.0,2174866.0,2129354.0,2088423.0,2104449.909090909
1.25,2351506.0,1881507.0,2151314.0,2153583.0,2048334.0,2296457.0,2056871.0,1823707.0,2171082.0,2130166.0,2091514.0,2105094.6363636362
1.265625,2351770.0,1881022.0,2152277.0,2154562.0,2048822.0,2293350.0,2058909.0,1823418.0,2167334.0,2129328.0,2095183.0,2105088.6363636362
1.28125,2352574.0,1880172.0,2152189.0,2156080.0,2049406.0,2291997.0,2061360.0,1823287.0,2164758.0,2128771.0,2098068.0,2105332.909090909
1.296875,2353203.0,1877460.0,2150802.0,2157603.0,2050380.0,2291662.0,2063315.0,1823177.0,2163066.0,2128984.0,2101580.0,2105566.5454545454
1.3125,2353663.0,1873746.0,2149147.0,2158580.0,2051673.0,2292962.0,2063781.0,1823334.0,2160711.0,2129110.0,2106399.0,2105736.909090909
1.328125,2354758.0,1869521.0,2147723.0,2160053.0,2053118.0,2292548.0,2063666.0,1823277.0,2158835.0,2129671.0,2110719.0,2105808.090909091
1.34375,2357662.0,1865015.0,2147069.0,2161719.0,2054010.0,2292339.0,2063774.0,1823429.0,2157393.0,2129968.0,2113045.0,2105947.5454545454
1.359375,2359209.0,1860671.0,2147419.0,2163136.0,2055870.0,2292652.0,2064313.0,1823283.0,2156402.0,2131110.0,2115663.0,2106338.909090909
1.375,2361309.0,1857587.0,2147640.0,2164659.0,2057180.0,2292750.0,2066949.0,1823293.0,2155861.0,2134491.0,2117206.0,2107175.0
1.390625,2363679.0,1852440.0,2147982.0,2165963.0,2055860.0,2293112.0,2069121.0,1823323.0,2155432.0,2135872.0,2117727.0,2107319.1818181816
1.40625,2365553.0,1844464.0,2148046.0,2165562.0,2051757.0,2293392.0,2072663.0,1822873.0,2155428.0,2137471.0,2118333.0,2106867.4545454546
1.421875,2367484.0,1835889.0,2148296.0,2164054.0,2047781.0,2293633.0,2075902.0,1822357.0,2155656.0,2138602.0,2120155.0,2106346.272727273
1.4375,2368822.0,1828504.0,2150653.0,2162676.0,2044292.0,2293492.0,2078788.0,1821852.0,2156283.0,2139299.0,2121289.0,2105995.4545454546
1.453125,2370095.0,1823155.0,2153022.0,2162024.0,2041495.0,2293613.0,2079950.0,1821084.0,2156106.0,2139431.0,2121490.0,2105587.727272727
1.46875,2371299.0,1819651.0,2151987.0,2161612.0,2039627.0,2293875.0,2082519.0,1820516.0,2156079.0,2139953.0,2122186.0,2105391.272727273
1.484375,2372401.0,1817762.0,2149235.0,2161933.0,2038777.0,2294116.0,2083169.0,1820541.0,2154335.0,2140715.0,2123765.0,2105159.0
1.5,2372154.0,1816455.0,2153963.0,2162195.0,2038077.0,2294083.0,2082996.0,1820475.0,2149893.0,2141435.0,2123528.0,2105023.090909091
1.515625,2372506.0,1815386.0,2154693.0,2162531.0,2037050.0,2294418.0,2082572.0,1820787.0,2145547.0,2141765.0,2121821.0,2104461.4545454546
1.53125,2373368.0,1814365.0,2155649.0,2161966.0,2036703.0,2294318.0,2083891.0,1820983.0,2142234.0,2141439.0,2120716.0,2104148.3636363638
1.546875,2373387.0,1814035.0,2156040.0,2161608.0,2036871.0,2294005.0,2085757.0,1821625.0,2138775.0,2140882.0,2120570.0,2103959.5454545454
1.5625,2373837.0,1813834.0,2156613.0,2161743.0,2037216.0,2292783.0,2087387.0,1821942.0,2135525.0,2139960.0,2121118.0,2103814.3636363638
1.578125,2374424.0,1812927.0,2157255.0,2162211.0,2038323.0,2291494.0,2087026.0,1822322.0,2132979.0,2139519.0,2123159.0,2103785.3636363638
1.59375,2375001.0,1821006.0,2157837.0,2162239.0,2039267.0,2290472.0,2087113.0,1821834.0,2131644.0,2138878.0,2124189.0,2104498.1818181816
1.609375,2375892.0,1834875.0,2157093.0,2162368.0,2040532.0,2289005.0,2086953.0,1820584.0,2130537.0,2138787.0,2125398.0,2105638.5454545454
1.625,2377293.0,1842930.0,2155281.0,2162390.0,2041491.0,2287932.0,2086742.0,1818359.0,2129117.0,2138779.0,2126841.0,2106105.0
1.640625,2378508.0,1859325.0,2153924.0,2162639.0,2042409.0,2287133.0,2087505.0,1816009.0,2127674.0,2138761.0,2127517.0,2107400.3636363638
1.65625,2379372.0,1878879.0,2153336.0,2162800.0,2043379.0,2286126.0,2088919.0,1813974.0,2126785.0,2138302.0,2128228.0,2109100.0
1.671875,2379555.0,1892988.0,2153430.0,2162951.0,2044472.0,2285798.0,2090528.0,1812177.0,2126228.0,2138554.0,2129506.0,2110562.4545454546
1.6875,2380521.0,1900737.0,2154144.0,2162760.0,2045907.0,2285092.0,2091700.0,1810166.0,2126742.0,2138577.0,2130213.0,2111505.3636363638
1.703125,2380925.0,1909100.0,2155689.0,2163155.0,2047685.0,2285636.0,2092892.0,1809258.0,2126808.0,2138941.0,2130869.0,2112814.3636363638
1.71875,2381929.0,1915508.0,2156940.0,2161750.0,2049274.0,2285810.0,2093662.0,1808311.0,2126467.0,2139700.0,2131686.0,2113730.6363636362
1.734375,2382520.0,1917945.0,2157779.0,2152264.0,2050145.0,2286670.0,2094891.0,1807925.0,2127125.0,2140106.0,2132437.0,2113618.8181818184
1.75,2383147.0,1918927.0,2158834.0,2136109.0,2047214.0,2287407.0,2096031.0,1807323.0,2127856.0,2140532.0,2132138.0,2112319.8181818184
1.765625,2384064.0,1920778.0,2160062.0,2126140.0,2043319.0,2288589.0,2097687.0,1807249.0,2127803.0,2141259.0,2131302.0,2111659.272727273
1.78125,2385319.0,1920929.0,2160867.0,2118271.0,2040301.0,2290580.0,2098679.0,1807622.0,2127799.0,2142181.0,2130334.0,2111171.090909091
1.796875,2385765.0,1922946.0,2162410.0,2111493.0,2038042.0,2292044.0,2099985.0,1809046.0,2125902.0,2142648.0,2129801.0,2110916.5454545454
1.8125,2385516.0,1926456.0,2163985.0,2107588.0,2035824.0,2293447.0,2101451.0,1811271.0,2121840.0,2143075.0,2128895.0,2110849.8181818184
1.828125,2385310.0,1929753.0,2165965.0,2105629.0,2034073.0,2294204.0,2103569.0,1814286.0,2117994.0,2142512.0,2128539.0,2111075.8181818184
1.84375,2385178.0,1927831.0,2168574.0,2105164.0,2033952.0,2294858.0,2105105.0,1819048.0,2114961.0,2141827.0,2128387.0,2111353.1818181816
1.859375,2385366.0,1924260.0,2174868.0,2105071.0,2035267.0,2294805.0,2105352.0,1824190.0,2113011.0,2141682.0,2127901.0,2111979.3636363638
1.875,2385519.0,1919865.0,2182063.0,2104588.0,2035663.0,2294831.0,2105612.0,1831233.0,2111783.0,2141613.0,2127374.0,2112740.3636363638
1.890625,2385855.0,1915199.0,2187602.0,2103376.0,2036671.0,2295745.0,2105787.0,1838886.0,2110978.0,2141641.0,2126719.0,2113496.272727273
1.90625,2386171.0,1911749.0,2190309.0,2101976.0,2037004.0,2295810.0,2105917.0,1846394.0,2111608.0,2141858.0,2127033.0,2114166.272727273
1.921875,2386568.0,1908193.0,2191485.0,2100246.0,2037004.0,2295531.0,2106659.0,1854556.0,2112543.0,2142398.0,2127138.0,2114756.4545454546
1.9375,2387050.0,1902064.0,2192648.0,2098329.0,2037687.0,2295123.0,2107526.0,1861667.0,2113298.0,2142490.0,2127743.0,2115056.8181818184
1.953125,2386319.0,1896923.0,2190005.0,2097803.0,2038042.0,2294130.0,2108840.0,1867081.0,2115003.0,2142863.0,2129098.0,2115100.6363636362
1.96875,2386850.0,1892888.0,2185234.0,2097934.0,2039185.0,2293375.0,2110451.0,1869701.0,2117196.0,2142863.0,2129410.0,2115007.909090909
1.984375,2386706.0,1889639.0,2180700.0,2097157.0,2040536.0,2292500.0,2111614.0,1869968.0,2119447.0,2143369.0,2128941.0,2114597.909090909
2.0,2386137.0,1888015.0,2177367.0,2096263.0,2041734.0,2291713.0,2113361.0,1868743.0,2121698.0,2144149.0,2127555.0,2114248.6363636362
2.015625,2384319.0,1887010.0,2175388.0,2096188.0,2042892.0,2291169.0,2114768.0,1866904.0,2124540.0,2145054.0,2126367.0,2114054.4545454546
2.03125,2380651.0,1886068.0,2174373.0,2096020.0,2044306.0,2290978.0,2116947.0,1864994.0,2127747.0,2146501.0,2124628.0,2113928.4545454546
2.046875,2375290.0,1885395.0,2173481.0,2096130.0,2045704.0,2290063.0,2118661.0,1863876.0,2129225.0,2147522.0,2123053.0,2113490.909090909
2.0625,2368359.0,1884599.0,2171692.0,2096808.0,2047545.0,2288995.0,2120601.0,1862860.0,2130678.0,2147928.0,2121914.0,2112907.1818181816
2.078125,2356683.0,1884830.0,2172835.0,2097516.0,2049692.0,2288321.0,2122925.0,1861071.0,2131176.0,2148919.0,2122182.0,2112377.272727273
2.09375,2354568.0,1885587.0,2170931.0,2098258.0,2051312.0,2287698.0,2124779.0,1858518.0,2129438.0,2150108.0,2123499.0,2112245.090909091
2.109375,2361611.0,1887126.0,2170751.0,2098725.0,2049831.0,2286890.0,2126768.0,1856795.0,2128243.0,2151148.0,2124450.0,2112939.8181818184
2.125,2354312.0,1888374.0,2171435.0,2099394.0,2046260.0,2286269.0,2129422.0,1854715.0,2125200.0,2151680.0,2124400.0,2111951.0
2.140625,2351657.0,1889662.0,2171858.0,2098725.0,2042694.0,2285655.0,2131513.0,1852860.0,2120975.0,2151496.0,2124427.0,2111047.4545454546
2.15625,2349312.0,1890774.0,2171160.0,2096367.0,2040298.0,2285510.0,2133059.0,1851246.0,2118096.0,2150925.0,2124706.0,2110132.090909091
2.171875,2347768.0,1889445.0,2172470.0,2094839.0,2038706.0,2285874.0,2133893.0,1850137.0,2116107.0,2150566.0,2124299.0,2109464.0
2.1875,2349345.0,1887699.0,2173532.0,2096110.0,2037585.0,2285523.0,2134811.0,1849200.0,2113563.0,2150610.0,2123606.0,2109234.909090909
2.203125,2349132.0,1886776.0,2172253.0,2105194.0,2037426.0,2285721.0,2135375.0,1848227.0,2110642.0,2150613.0,2123067.0,2109493.272727273
2.21875,2347962.0,1886751.0,2172800.0,2114521.0,2037149.0,2287921.0,2136134.0,1847193.0,2109382.0,2150300.0,2124007.0,2110374.5454545454
2.234375,2343000.0,1887870.0,2174117.0,2121525.0,2036849.0,2290741.0,2136937.0,1846642.0,2107784.0,2149849.0,2124659.0,2110906.6363636362
2.25,2344351.0,1889758.0,2174655.0,2127364.0,2037031.0,2291954.0,2138507.0,1845919.0,2106128.0,2150193.0,2124617.0,2111861.5454545454
2.265625,2340750.0,1891385.0,2175317.0,2132677.0,2037056.0,2292140.0,2139971.0,1845273.0,2104826.0,2150569.0,2124431.0,2112217.727272727
2.28125,2341372.0,1893026.0,2174554.0,2135985.0,2038059.0,2292341.0,2141641.0,1845009.0,2104021.0,2151001.0,2124282.0,2112844.6363636362
2.296875,2341254.0,1894901.0,2172822.0,2138030.0,2038705.0,2290889.0,2142924.0,1844416.0,2103693.0,2151505.0,2123439.0,2112961.6363636362
2.3125,2337930.0,1896837.0,2170817.0,2139048.0,2038780.0,2292014.0,2144558.0,1843798.0,2104037.0,2152258.0,2121890.0,2112906.090909091
2.328125,2337409.0,1898980.0,2169422.0,2139934.0,2038870.0,2289606.0,2146389.0,1843020.0,2104923.0,2152858.0,2121252.0,2112969.3636363638
2.34375,2346176.0,1901325.0,2168151.0,2141297.0,2039052.0,2288688.0,2148683.0,1841545.0,2106770.0,2153522.0,2120708.0,2114174.272727273
2.359375,2337166.0,1903483.0,2167895.0,2142662.0,2040940.0,2286759.0,2150845.0,1839998.0,2109577.0,2154034.0,2120223.0,2113962.0
2.375,2336666.0,1905698.0,2167958.0,2143666.0,2041747.0,2286013.0,2153317.0,1839998.0,2112443.0,2154984.0,2120722.0,2114837.4545454546
2.390625,2336386.0,1907060.0,2168009.0,2144992.0,2044914.0,2287584.0,2155600.0,1838622.0,2115694.0,2156514.0,2120287.0,2115969.272727273
2.40625,2337765.0,1906070.0,2167989.0,2146016.0,2048621.0,2285530.0,2158150.0,1837600.0,2119016.0,2157511.0,2119831.0,2116736.272727273
2.421875,2339394.0,1904641.0,2167778.0,2146657.0,2051562.0,2284589.0,2161485.0,1836620.0,2122183.0,2156735.0,2118859.0,2117318.4545454546
2.4375,2337160.0,1903517.0,2168249.0,2147710.0,2053140.0,2284000.0,2165821.0,1836373.0,2124491.0,2155461.0,2117594.0,2117592.3636363638
2.453125,2339951.0,1902842.0,2168874.0,2148513.0,2053497.0,2283271.0,2170723.0,1835789.0,2129162.0,2154302.0,2117333.0,2118568.8181818184
2.46875,2338475.0,1902183.0,2169276.0,2149184.0,2053713.0,2282411.0,2175620.0,1834960.0,2137723.0,2153489.0,2118258.0,2119572.0
2.484375,2336917.0,1902066.0,2169966.0,2150334.0,2055441.0,2281790.0,2179217.0,1834700.0,2149023.0,2152752.0,2118901.0,2121009.727272727
2.5,2332332.0,1902477.0,2171019.0,2151325.0,2058978.0,2281485.0,2179706.0,1835203.0,2161533.0,2152828.0,2118412.0,2122299.8181818184
2.515625,2333715.0,1904124.0,2171802.0,2151344.0,2062339.0,2281287.0,2180370.0,1834483.0,2173170.0,2152813.0,2118806.0,2124023.0
2.53125,2334663.0,1906283.0,2172770.0,2151028.0,2062334.0,2281416.0,2182535.0,1834368.0,2185038.0,2152642.0,2118746.0,2125620.272727273
2.546875,2332150.0,1908296.0,2173554.0,2150333.0,2060560.0,2281169.0,2184285.0,1834363.0,2197175.0,2152955.0,2119117.0,2126723.3636363638
2.5625,2335881.0,1910607.0,2174697.0,2150282.0,2060227.0,2281468.0,2187631.0,1834584.0,2211533.0,2153056.0,2118603.0,2128960.8181818184
2.578125,2331309.0,1913130.0,2175832.0,2151258.0,2061477.0,2281338.0,2191180.0,1833343.0,2226393.0,2153708.0,2116824.0,2130526.5454545454
2.59375,2329914.0,1915846.0,2177088.0,2152252.0,2060626.0,2281511.0,2193168.0,1832359.0,2239837.0,2154203.0,2115697.0,2132045.5454545454
2.609375,2331896.0,1918697.0,2177193.0,2153403.0,2061958.0,2281905.0,2194670.0,1834715.0,2253899.0,2154979.0,2114779.0,2134372.1818181816
2.625,2329447.0,1920823.0,2174838.0,2153617.0,2064798.0,2282373.0,2195187.0,1831223.0,2266612.0,2155966.0,2113274.0,2135287.090909091
2.640625,2328892.0,1920673.0,2172543.0,2154255.0,2065403.0,2282259.0,2196904.0,1830265.0,2276227.0,2156848.0,2112890.0,2136105.3636363638
2.65625,2330403.0,1920584.0,2170584.0,2154652.0,2067939.0,2282727.0,2199370.0,1829398.0,2279930.0,2157620.0,2112618.0,2136893.1818181816
2.671875,2330197.0,1920388.0,2169359.0,2155065.0,2072183.0,2281723.0,2200575.0,1828651.0,2278450.0,2158154.0,2112092.0,2136985.1818181816
2.6875,2328540.0,1920889.0,2168910.0,2155717.0,2076022.0,2280679.0,2202675.0,1828215.0,2275137.0,2158586.0,2111869.0,2137021.727272727
2.703125,2327923.0,1921830.0,2169703.0,2156416.0,2079743.0,2280961.0,2205211.0,1827570.0,2272665.0,2158823.0,2111869.0,2137519.4545454546
2.71875,2327638.0,1923272.0,2170253.0,2157144.0,2083287.0,2279560.0,2206882.0,1827194.0,2271975.0,2157815.0,2111469.0,2137862.6363636362
2.734375,2326990.0,1925313.0,2170253.0,2158442.0,2090445.0,2278787.0,2208874.0,1826624.0,2270972.0,2156550.0,2111027.0,2138570.6363636362
2.75,2326893.0,1926814.0,2170484.0,2159279.0,2096179.0,2278202.0,2211445.0,1826300.0,2267607.0,2155639.0,2110381.0,2139020.272727273
2.765625,2327305.0,1928723.0,2170373.0,2160202.0,2094055.0,2278031.0,2214768.0,1826045.0,2248435.0,2155554.0,2110931.0,2137674.727272727
2.78125,2327637.0,1929749.0,2170619.0,2161374.0,2090044.0,2276609.0,2216702.0,1825781.0,2251903.0,2155883.0,2111468.0,2137979.0
2.796875,2326646.0,1930282.0,2170867.0,2162580.0,2086269.0,2277397.0,2219404.0,1825481.0,2244929.0,2155864.0,2111577.0,2137390.5454545454
2.8125,2324722.0,1931083.0,2171393.0,2163601.0,2082369.0,2276366.0,2220688.0,1825350.0,2255927.0,2154979.0,2111582.0,2138005.4545454546
2.828125,2319527.0,1932074.0,2171934.0,2164851.0,2081539.0,2275700.0,2221027.0,1824807.0,2263595.0,2155164.0,2111261.0,2138316.272727273
2.84375,2322633.0,1934324.0,2172636.0,2165854.0,2080742.0,2275631.0,2221282.0,1823878.0,2259265.0,2154321.0,2110507.0,2138279.3636363638
2.859375,2318738.0,1933145.0,2173312.0,2163583.0,2083047.0,2275650.0,2222995.0,1822845.0,2243093.0,2154085.0,2109795.0,2136389.8181818184
2.875,2321179.0,1934514.0,2174049.0,2152916.0,2084079.0,2275254.0,2224374.0,1821788.0,2237224.0,2154093.0,2108405.0,2135261.3636363638
2.890625,2318215.0,1933222.0,2174700.0,2141979.0,2085396.0,2275439.0,2225829.0,1821007.0,2237768.0,2154554.0,2108800.0,2134264.4545454546
2.90625,2317690.0,1932376.0,2175530.0,2133698.0,2087384.0,2275371.0,2227100.0,1820137.0,2239967.0,2154587.0,2109865.0,2133973.1818181816
2.921875,2316599.0,1932168.0,2175305.0,2128369.0,2089916.0,2275571.0,2229334.0,1819464.0,2239126.0,2155099.0,2108752.0,2133609.3636363638
2.9375,2315747.0,1932305.0,2173097.0,2124769.0,2092294.0,2275476.0,2230597.0,1818489.0,2235588.0,2155358.0,2107581.0,2132845.5454545454
2.953125,2315581.0,1933256.0,2170329.0,2123711.0,2095055.0,2275554.0,2231584.0,1817919.0,2236761.0,2155472.0,2104716.0,2132721.6363636362
2.96875,2315602.0,1934819.0,2168283.0,2124545.0,2097730.0,2275994.0,2233037.0,1817547.0,2234971.0,2155352.0,2100540.0,2132583.6363636362
2.984375,2315361.0,1936279.0,2166857.0,2125625.0,2100279.0,2276267.0,2234942.0,1817153.0,2233687.0,2155379.0,2099785.0,2132874.0
3.0,2315757.0,1937691.0,2165933.0,2125057.0,2103086.0,2276816.0,2235646.0,1816910.0,2232716.0,2154584.0,2098737.0,2132993.909090909
3.015625,2315245.0,1938872.0,2165579.0,2124022.0,2105790.0,2277107.0,2237121.0,1816572.0,2241502.0,2152870.0,2098735.0,2133946.8181818184
3.03125,2315145.0,1940695.0,2165142.0,2121808.0,2105790.0,2276174.0,2238226.0,1816409.0,2230007.0,2151752.0,2099649.0,2132799.727272727
3.046875,2315373.0,1942359.0,2164525.0,2120305.0,2108464.0,2275897.0,2240065.0,1815955.0,2225535.0,2151000.0,2096757.0,2132385.0
3.0625,2315162.0,1944026.0,2164146.0,2118729.0,2111791.0,2275162.0,2240052.0,1816346.0,2222870.0,2150382.0,2094811.0,2132134.272727273
3.078125,2314559.0,1945864.0,2163953.0,2117542.0,2112235.0,2274301.0,2239919.0,1815040.0,2220431.0,2149753.0,2098696.0,2132026.6363636362
3.09375,2310430.0,1947619.0,2163756.0,2116060.0,2110335.0,2273747.0,2239302.0,1813961.0,2218287.0,2149547.0,2097986.0,2131002.727272727
3.109375,2307472.0,1949536.0,2163811.0,2115008.0,2108961.0,2272823.0,2238618.0,1812790.0,2216238.0,2149380.0,2099764.0,2130400.090909091
3.125,2304694.0,1950594.0,2164432.0,2114259.0,2107447.0,2272012.0,2237525.0,1811783.0,2216616.0,2149760.0,2093325.0,2129313.3636363638
3.140625,2302204.0,1950439.0,2166294.0,2113259.0,2106616.0,2271684.0,2237427.0,1810966.0,2218932.0,2149748.0,2090964.0,2128957.5454545454
3.15625,2301356.0,1951278.0,2169378.0,2113488.0,2106466.0,2271251.0,2237470.0,1810744.0,2220342.0,2150252.0,2089052.0,2129188.8181818184
3.171875,2299843.0,1951940.0,2171592.0,2113039.0,2107362.0,2270547.0,2237947.0,1811057.0,2219919.0,2150832.0,2088648.0,2129338.727272727
3.1875,2297340.0,1953530.0,2172980.0,2112336.0,2108311.0,2270205.0,2238257.0,1811169.0,2219064.0,2151508.0,2088325.0,2129365.909090909
3.203125,2293334.0,1955285.0,2174117.0,2112442.0,2109121.0,2269770.0,2238605.0,1811462.0,2218998.0,2151995.0,2087727.0,2129350.5454545454
3.21875,2289726.0,1957577.0,2174792.0,2112502.0,2109806.0,2269821.0,2239427.0,1812003.0,2218811.0,2152874.0,2086449.0,2129435.272727273
3.234375,2286186.0,1959545.0,2172912.0,2112799.0,2110676.0,2270002.0,2240270.0,1812610.0,2218902.0,2153815.0,2085185.0,2129354.727272727
3.25,2281771.0,1961551.0,2170416.0,2112806.0,2112435.0,2270083.0,2241243.0,1813100.0,2218416.0,2154266.0,2084048.0,2129103.1818181816
3.265625,2277602.0,1964142.0,2167941.0,2111618.0,2113895.0,2270845.0,2241948.0,1813829.0,2218339.0,2155114.0,2083011.0,2128934.909090909
3.28125,2275190.0,1967741.0,2165076.0,2109444.0,2115269.0,2271778.0,2242603.0,1814328.0,2219633.0,2154985.0,2081781.0,2128893.4545454546
3.296875,2274931.0,1970710.0,2162274.0,2107371.0,2116992.0,2271289.0,2243427.0,1813935.0,2221407.0,2154554.0,2080510.0,2128854.5454545454
3.3125,2275416.0,1972205.0,2160520.0,2105912.0,2118344.0,2272581.0,2244486.0,1813326.0,2223493.0,2154059.0,2081009.0,2129213.727272727
3.328125,2274065.0,1976205.0,2159860.0,2104928.0,2120242.0,2273449.0,2245628.0,1814241.0,2224458.0,2153644.0,2082862.0,2129962.0
3.34375,2272904.0,1981582.0,2158695.0,2104183.0,2122273.0,2274027.0,2246661.0,1812901.0,2244924.0,2153483.0,2083178.0,2132255.5454545454
3.359375,2271732.0,1988767.0,2157520.0,2103457.0,2124002.0,2274618.0,2246901.0,1812489.0,2245175.0,2153286.0,2083532.0,2132861.727272727
3.375,2272417.0,1993400.0,2156519.0,2103871.0,2123994.0,2275434.0,2246748.0,1812439.0,2236307.0,2153540.0,2083546.0,2132565.0
3.390625,2271427.0,1995641.0,2156175.0,2104438.0,2121202.0,2276232.0,2246098.0,1812548.0,2242056.0,2153474.0,2080040.0,2132666.4545454546
3.40625,2269030.0,1996539.0,2156206.0,2103864.0,2117737.0,2276744.0,2246602.0,1812753.0,2237888.0,2153402.0,2077846.0,2131691.909090909
3.421875,2271694.0,1997755.0,2156525.0,2103775.0,2114835.0,2276772.0,2248228.0,1813010.0,2233651.0,2153900.0,2077175.0,2131574.5454545454
3.4375,2273208.0,1999472.0,2156863.0,2103949.0,2112465.0,2276643.0,2250438.0,1810912.0,2230300.0,2154154.0,2075716.0,2131283.6363636362
3.453125,2273595.0,2000637.0,2157166.0,2104785.0,2111250.0,2276419.0,2241909.0,1813136.0,2227014.0,2154646.0,2074028.0,2130416.8181818184
3.46875,2272766.0,2000843.0,2157745.0,2105572.0,2111109.0,2275653.0,2226027.0,1813587.0,2224646.0,2155070.0,2073686.0,2128791.272727273
3.484375,2271185.0,2001388.0,2158277.0,2107376.0,2110675.0,2275286.0,2200672.0,1814185.0,2223102.0,2155749.0,2072763.0,2126423.4545454546
3.5,2271803.0,2002152.0,2158929.0,2108856.0,2110966.0,2275027.0,2172012.0,1813820.0,2222438.0,2156138.0,2071563.0,2123973.090909091
3.515625,2273548.0,2003726.0,2159727.0,2110582.0,2111158.0,2274462.0,2157526.0,1814915.0,2222202.0,2156767.0,2070236.0,2123168.090909091
3.53125,2275049.0,2005237.0,2160224.0,2112562.0,2112947.0,2274327.0,2147292.0,1814468.0,2221925.0,2157501.0,2070541.0,2122915.727272727
3.546875,2276272.0,2007336.0,2158350.0,2114361.0,2116901.0,2273730.0,2142267.0,1814672.0,2221654.0,2157842.0,2071913.0,2123208.909090909
3.5625,2277991.0,2008814.0,2153992.0,2116312.0,2120419.0,2273516.0,2138266.0,1815020.0,2221660.0,2158583.0,2071367.0,2123267.272727273
3.578125,2280139.0,2010672.0,2149496.0,2118629.0,2123617.0,2273235.0,2134454.0,1813473.0,2222442.0,2158198.0,2071765.0,2123283.6363636362
3.59375,2282530.0,2012246.0,2145362.0,2121088.0,2126523.0,2273265.0,2131764.0,1812477.0,2223262.0,2157566.0,2071963.0,2123458.727272727
3.609375,2284530.0,2013978.0,2141552.0,2123325.0,2130326.0,2273472.0,2129755.0,1812295.0,2221952.0,2156787.0,2072071.0,2123640.272727273
3.625,2285712.0,2015496.0,2138641.0,2124320.0,2133424.0,2273413.0,2127518.0,1812435.0,2218866.0,2156360.0,2072101.0,2123480.5454545454
3.640625,2287690.0,2016196.0,2136845.0,2123973.0,2135945.0,2273745.0,2126487.0,1812334.0,2216427.0,2156171.0,2070328.0,2123285.5454545454
3.65625,2288453.0,2015591.0,2135489.0,2123886.0,2137882.0,2274189.0,2125244.0,1812382.0,2214631.0,2155817.0,2069274.0,2122985.272727273
3.671875,2288686.0,2014980.0,2133572.0,2124134.0,2137648.0,2273976.0,2124446.0,1812634.0,2212538.0,2155971.0,2069397.0,2122543.8181818184
3.6875,2289676.0,2014816.0,2132331.0,2124566.0,2134471.0,2274471.0,2122928.0,1814250.0,2208757.0,2155970.0,2069219.0,2121950.4545454546
3.703125,2289448.0,2015138.0,2131366.0,2125454.0,2131031.0,2275184.0,2120908.0,1813159.0,2209709.0,2155991.0,2068347.0,2121430.4545454546
3.71875,2288563.0,2015724.0,2130433.0,2126024.0,2127946.0,2274802.0,2119576.0,1812963.0,2208217.0,2156388.0,2069432.0,2120915.272727273
3.734375,2288315.0,2016649.0,2130257.0,2126642.0,2126643.0,2275501.0,2121066.0,1813253.0,2207751.0,2156623.0,2068974.0,2121061.272727273
3.75,2288277.0,2018196.0,2130150.0,2128061.0,2128922.0,2275822.0,2123370.0,1813366.0,2211177.0,2157204.0,2068444.0,2122089.909090909
3.765625,2289602.0,2017437.0,2130062.0,2128977.0,2133426.0,2276349.0,2124343.0,1813788.0,2210233.0,2157758.0,2068203.0,2122743.4545454546
3.78125,2292006.0,2018883.0,2130021.0,2129938.0,2136069.0,2276731.0,2127976.0,1814213.0,2207596.0,2158711.0,2067283.0,2123584.272727273
3.796875,2294089.0,2019828.0,2130297.0,2131790.0,2135967.0,2276220.0,2133475.0,1814039.0,2207735.0,2159320.0,2067254.0,2124546.727272727
3.8125,2295735.0,2020712.0,2130991.0,2133643.0,2133431.0,2275900.0,2140110.0,1813491.0,2208062.0,2159847.0,2067493.0,2125401.3636363638
3.828125,2296288.0,2021718.0,2131431.0,2135696.0,2130666.0,2277369.0,2144334.0,1812654.0,2208589.0,2160875.0,2067149.0,2126069.909090909
3.84375,2297071.0,2022962.0,2131927.0,2138607.0,2128796.0,2278941.0,2147513.0,1812237.0,2207695.0,2161964.0,2068076.0,2126889.909090909
3.859375,2297541.0,2024058.0,2131589.0,2142773.0,2127210.0,2279644.0,2149587.0,1811532.0,2209190.0,2162930.0,2068195.0,2127659.0
3.875,2298420.0,2025067.0,2127261.0,2146554.0,2127543.0,2278445.0,2152691.0,1811095.0,2209105.0,2162874.0,2069133.0,2128017.090909091
3.890625,2299270.0,2026404.0,2122033.0,2149805.0,2127174.0,2278333.0,2155258.0,1810932.0,2206311.0,2162583.0,2069308.0,2127946.4545454546
3.90625,2300323.0,2027886.0,2117532.0,2152563.0,2127100.0,2278626.0,2157476.0,1810535.0,2202668.0,2163281.0,2067907.0,2127808.8181818184
3.921875,2301688.0,2028178.0,2113342.0,2154561.0,2126836.0,2278124.0,2159665.0,1810487.0,2199507.0,2163569.0,2067093.0,2127550.0
3.9375,2303220.0,2027795.0,2110118.0,2156649.0,2127100.0,2278567.0,2162042.0,1810506.0,2197128.0,2164531.0,2066110.0,2127615.090909091
3.953125,2304124.0,2027553.0,2107890.0,2158594.0,2127708.0,2277897.0,2164425.0,1810504.0,2194654.0,2165071.0,2064647.0,2127551.5454545454
3.96875,2305408.0,2028048.0,2106680.0,2159911.0,2127027.0,2277715.0,2167660.0,1810935.0,2193100.0,2165415.0,2064223.0,2127829.272727273
3.984375,2306835.0,2028891.0,2105478.0,2159959.0,2122465.0,2278002.0,2170019.0,1811213.0,2191990.0,2166231.0,2063049.0,2127648.3636363638
4.0,2307797.0,2030329.0,2104316.0,2158902.0,2116545.0,2277559.0,2171324.0,1811647.0,2191194.0,2166650.0,2061305.0,2127051.6363636362
4.015625,2309362.0,2031401.0,2103428.0,2157491.0,2110445.0,2277125.0,2171326.0,1811852.0,2189200.0,2167415.0,2059793.0,2126258.0
4.03125,2310587.0,2032547.0,2103206.0,2156786.0,2104526.0,2277357.0,2170997.0,1811560.0,2187226.0,2168145.0,2059651.0,2125689.8181818184
4.046875,2311733.0,2033673.0,2103795.0,2156173.0,2099349.0,2277262.0,2170340.0,1810873.0,2185317.0,2169293.0,2059669.0,2125225.1818181816
4.0625,2312355.0,2034509.0,2104476.0,2156105.0,2096195.0,2277742.0,2169375.0,1810068.0,2184334.0,2170415.0,2059446.0,2125001.8181818184
4.078125,2313572.0,2036164.0,2105378.0,2155744.0,2093898.0,2277456.0,2169088.0,1809262.0,2183130.0,2171529.0,2059314.0,2124957.727272727
4.09375,2314913.0,2037797.0,2106771.0,2155488.0,2092050.0,2278042.0,2169036.0,1808513.0,2181553.0,2172846.0,2058982.0,2125090.090909091
4.109375,2316233.0,2039814.0,2107658.0,2154729.0,2090017.0,2277649.0,2169501.0,1807765.0,2180146.0,2174211.0,2060181.0,2125264.0
4.125,2317697.0,2041636.0,2108447.0,2154163.0,2088689.0,2278225.0,2169563.0,1807758.0,2178832.0,2174498.0,2060408.0,2125446.909090909
4.140625,2317826.0,2043303.0,2109397.0,2153221.0,2087676.0,2278085.0,2169522.0,1807680.0,2178328.0,2173681.0,2059341.0,2125278.1818181816
4.15625,2317473.0,2045019.0,2110200.0,2152452.0,2087190.0,2278889.0,2169525.0,1806890.0,2176293.0,2175973.0,2058558.0,2125314.727272727
4.171875,2318096.0,2046441.0,2111176.0,2151611.0,2087064.0,2279152.0,2169020.0,1806121.0,2172193.0,2176790.0,2058588.0,2125113.8181818184
4.1875,2317633.0,2047785.0,2112087.0,2149291.0,2087090.0,2279375.0,2170223.0,1805689.0,2168122.0,2177455.0,2057472.0,2124747.4545454546
4.203125,2318585.0,2049024.0,2109763.0,2148634.0,2087139.0,2279477.0,2170739.0,1805086.0,2166326.0,2177464.0,2055207.0,2124313.090909091
4.21875,2318614.0,2048391.0,2104698.0,2147345.0,2087901.0,2279614.0,2171616.0,1804443.0,2164754.0,2176411.0,2053988.0,2123434.090909091
4.234375,2317164.0,2047970.0,2100136.0,2145832.0,2088458.0,2279612.0,2171536.0,1803906.0,2163337.0,2175816.0,2052949.0,2122428.727272727
4.25,2316623.0,2047953.0,2096225.0,2143958.0,2089242.0,2279115.0,2170465.0,1803682.0,2163406.0,2175772.0,2052111.0,2121686.5454545454
4.265625,2315355.0,2048575.0,2093049.0,2142185.0,2089937.0,2278402.0,2169047.0,1803908.0,2164103.0,2174830.0,2052470.0,2121078.272727273
4.28125,2315420.0,2049403.0,2090931.0,2140562.0,2091252.0,2278153.0,2167972.0,1803400.0,2164114.0,2174386.0,2052213.0,2120709.6363636362
4.296875,2318096.0,2050135.0,2089595.0,2138792.0,2090073.0,2277858.0,2166961.0,1802922.0,2163182.0,2174351.0,2049970.0,2120175.909090909
4.3125,2321915.0,2051181.0,2088394.0,2135847.0,2084960.0,2277849.0,2166635.0,1801890.0,2161632.0,2173832.0,2048725.0,2119350.909090909
4.328125,2325337.0,2051812.0,2087003.0,2131223.0,2079585.0,2277681.0,2166849.0,1800718.0,2158681.0,2173679.0,2050102.0,2118424.5454545454
4.34375,2325587.0,2052421.0,2085858.0,2126557.0,2074482.0,2277949.0,2165562.0,1800320.0,2155433.0,2173709.0,2050752.0,2117148.1818181816
4.359375,2325650.0,2053376.0,2085135.0,2122327.0,2069418.0,2278087.0,2163275.0,1800377.0,2152808.0,2173555.0,2051393.0,2115945.5454545454
4.375,2326447.0,2054414.0,2084673.0,2117550.0,2065589.0,2278635.0,2161476.0,1800460.0,2152502.0,2174102.0,2052529.0,2115307.0
4.390625,2326897.0,2055436.0,2084378.0,2114319.0,2063583.0,2278606.0,2158871.0,1800904.0,2155637.0,2174230.0,2051891.0,2114977.4545454546
4.40625,2327737.0,2056475.0,2084128.0,2112833.0,2061886.0,2278831.0,2156835.0,1801050.0,2158937.0,2174320.0,2050707.0,2114885.3636363638
4.421875,2330175.0,2057550.0,2084342.0,2110647.0,2060963.0,2279511.0,2156417.0,1801705.0,2163672.0,2174782.0,2050248.0,2115455.6363636362
4.4375,2330626.0,2058529.0,2084594.0,2108746.0,2059987.0,2279520.0,2157675.0,1802259.0,2168297.0,2174999.0,2048926.0,2115832.5454545454
4.453125,2331580.0,2059728.0,2084899.0,2106255.0,2059135.0,2280068.0,2158731.0,1802747.0,2179157.0,2174227.0,2045301.0,2116529.8181818184
4.46875,2332677.0,2060921.0,2085559.0,2103304.0,2058806.0,2280289.0,2161253.0,1803406.0,2187662.0,2173568.0,2042822.0,2117297.0
4.484375,2332437.0,2062241.0,2085825.0,2100900.0,2058910.0,2280717.0,2162712.0,1803847.0,2185657.0,2173128.0,2041872.0,2117113.272727273
4.5,2331511.0,2062558.0,2086670.0,2099499.0,2058940.0,2280599.0,2164390.0,1804314.0,2179841.0,2172473.0,2040783.0,2116507.090909091
4.515625,2331448.0,2061989.0,2087494.0,2097131.0,2059979.0,2280985.0,2165408.0,1804307.0,2173058.0,2172171.0,2040954.0,2115902.1818181816
4.53125,2336543.0,2060898.0,2085365.0,2094488.0,2062302.0,2281010.0,2166765.0,1803674.0,2168881.0,2172182.0,2039831.0,2115630.8181818184
4.546875,2338731.0,2060600.0,2080179.0,2092760.0,2065077.0,2280868.0,2169996.0,1803282.0,2166847.0,2171904.0,2038915.0,2115378.090909091
4.5625,2340717.0,2060361.0,2074971.0,2090494.0,2067996.0,2280726.0,2170262.0,1802314.0,2164604.0,2172090.0,2038664.0,2114836.272727273
4.578125,2342271.0,2060535.0,2070765.0,2090137.0,2071407.0,2279584.0,2170749.0,1801804.0,2163014.0,2171968.0,2039742.0,2114725.090909091
4.59375,2343977.0,2061011.0,2067167.0,2089438.0,2077730.0,2279080.0,2161324.0,1801672.0,2161262.0,2172449.0,2039490.0,2114054.5454545454
4.609375,2345743.0,2061469.0,2064166.0,2088568.0,2085618.0,2278045.0,2137568.0,1801397.0,2160429.0,2172552.0,2038254.0,2112164.4545454546
4.625,2346594.0,2061984.0,2062808.0,2087852.0,2091399.0,2277956.0,2124843.0,1801622.0,2160229.0,2172654.0,2037751.0,2111426.5454545454
4.640625,2346977.0,2062134.0,2061458.0,2086259.0,2090916.0,2277323.0,2116217.0,1801880.0,2160368.0,2173401.0,2036593.0,2110320.5454545454
4.65625,2347378.0,2062676.0,2060008.0,2083469.0,2086602.0,2277253.0,2111856.0,1801922.0,2161432.0,2174010.0,2034608.0,2109201.272727273
4.671875,2347923.0,2062947.0,2058972.0,2080220.0,2081023.0,2276627.0,2111047.0,1801997.0,2163206.0,2174180.0,2033099.0,2108294.6363636362
4.6875,2348624.0,2064221.0,2058567.0,2077712.0,2076913.0,2276414.0,2109514.0,1802266.0,2166548.0,2174952.0,2031783.0,2107955.8181818184
4.703125,2349008.0,2063994.0,2058640.0,2076139.0,2072924.0,2275923.0,2109102.0,1802603.0,2170797.0,2175348.0,2029895.0,2107670.272727273
4.71875,2349879.0,2065403.0,2058871.0,2074775.0,2071606.0,2275778.0,2107970.0,1802670.0,2173180.0,2175811.0,2027838.0,2107616.4545454546
4.734375,2351178.0,2065744.0,2059194.0,2073276.0,2071423.0,2276132.0,2106824.0,1803178.0,2171810.0,2176081.0,2026585.0,2107402.272727273
4.75,2352094.0,2066237.0,2059680.0,2072905.0,2070728.0,2275886.0,2106026.0,1803230.0,2168627.0,2175318.0,2026551.0,2107025.6363636362
4.765625,2352952.0,2067152.0,2060122.0,2071384.0,2070052.0,2275964.0,2105096.0,1802274.0,2165895.0,2174793.0,2026980.0,2106605.8181818184
4.78125,2353692.0,2067868.0,2060813.0,2070045.0,2069215.0,2275972.0,2104705.0,1801665.0,2162763.0,2174536.0,2027415.0,2106244.4545454546
4.796875,2354350.0,2068275.0,2061558.0,2069299.0,2069582.0,2276983.0,2104573.0,1800916.0,2159405.0,2174637.0,2027009.0,2106053.3636363638
4.8125,2355169.0,2069044.0,2062211.0,2068252.0,2069508.0,2277155.0,2104684.0,1800069.0,2157228.0,2174742.0,2026999.0,2105914.6363636362
4.828125,2354170.0,2068224.0,2063218.0,2067420.0,2069275.0,2277560.0,2104417.0,1799479.0,2155653.0,2175432.0,2026733.0,2105598.272727273
4.84375,2353622.0,2067127.0,2064272.0,2067191.0,2068227.0,2276652.0,2104151.0,1799247.0,2153763.0,2176053.0,2026066.0,2105124.6363636362
4.859375,2353389.0,2066096.0,2063809.0,2066934.0,2067190.0,2277832.0,2104366.0,1799344.0,2152085.0,2176722.0,2025651.0,2104856.1818181816
4.875,2352987.0,2065381.0,2059736.0,2068825.0,2067616.0,2278513.0,2101449.0,1799449.0,2150684.0,2177492.0,2025841.0,2104361.1818181816
4.890625,2352737.0,2065397.0,2055100.0,2067370.0,2068230.0,2278638.0,2103667.0,1799711.0,2149567.0,2178753.0,2025119.0,2104026.272727273
4.90625,2352806.0,2065731.0,2051674.0,2069828.0,2068984.0,2279211.0,2098511.0,1799711.0,2149646.0,2180247.0,2024939.0,2103753.4545454546
4.921875,2353049.0,2065798.0,2048450.0,2070780.0,2070097.0,2279369.0,2095322.0,1799678.0,2149436.0,2181673.0,2023611.0,2103387.5454545454
4.9375,2353370.0,2065579.0,2045969.0,2068572.0,2071420.0,2279349.0,2092113.0,1799883.0,2149192.0,2182775.0,2021942.0,2102742.1818181816
4.953125,2354238.0,2065740.0,2044698.0,2067865.0,2072879.0,2278822.0,2089051.0,1800150.0,2149391.0,2184567.0,2021518.0,2102629.0
4.96875,2354605.0,2065851.0,2043933.0,2068005.0,2074224.0,2277790.0,2087569.0,1800447.0,2150068.0,2186057.0,2020588.0,2102648.8181818184
4.984375,2355715.0,2066321.0,2043630.0,2071574.0,2072987.0,2277285.0,2086458.0,1800705.0,2149992.0,2187427.0,2019572.0,2102878.727272727
5.0,2355810.0,2067255.0,2043246.0,2072488.0,2069658.0,2276911.0,2084891.0,1801148.0,2149752.0,2188908.0,2019127.0,2102654.0
5.015625,2356969.0,2067888.0,2043490.0,2071768.0,2066553.0,2276373.0,2084391.0,1800671.0,2145826.0,2189199.0,2018357.0,2101953.1818181816
5.03125,2357545.0,2069004.0,2043846.0,2070257.0,2063404.0,2275850.0,2084495.0,1800290.0,2140429.0,2189158.0,2017795.0,2101097.5454545454
5.046875,2358030.0,2070144.0,2044263.0,2068886.0,2060360.0,2275154.0,2085655.0,1799334.0,2136014.0,2188899.0,2016689.0,2100311.6363636362
5.0625,2358662.0,2071329.0,2045016.0,2068006.0,2058979.0,2275232.0,2086308.0,1798680.0,2130870.0,2188398.0,2015680.0,2099741.8181818184
5.078125,2359322.0,2071800.0,2046063.0,2067426.0,2058561.0,2274828.0,2084488.0,1797866.0,2125348.0,2188217.0,2015089.0,2099000.727272727
5.09375,2359979.0,2072325.0,2047232.0,2066825.0,2058645.0,2274766.0,2088770.0,1797411.0,2119000.0,2188478.0,2014430.0,2098896.4545454546
5.109375,2361023.0,2071890.0,2048659.0,2066262.0,2058410.0,2274176.0,2087536.0,1797375.0,2113853.0,2188198.0,2013719.0,2098281.909090909
5.125,2361610.0,2069884.0,2050166.0,2065706.0,2058886.0,2274184.0,2089710.0,1797477.0,2109065.0,2188209.0,2013163.0,2098005.4545454546
5.140625,2362315.0,2067266.0,2051621.0,2064763.0,2059679.0,2275492.0,2090701.0,1797636.0,2103317.0,2188806.0,2012720.0,2097665.090909091
5.15625,2362276.0,2065470.0,2053465.0,2063479.0,2060341.0,2273879.0,2091490.0,1797803.0,2099069.0,2188989.0,2012025.0,2097116.9090909092
5.171875,2360971.0,2064065.0,2055571.0,2062009.0,2061637.0,2273802.0,2090457.0,1798205.0,2095379.0,2189100.0,2010382.0,2096507.0909090908
5.1875,2360124.0,2062893.0,2057943.0,2060250.0,2064353.0,2273943.0,2087184.0,1798359.0,2092288.0,2189379.0,2008800.0,2095956.0
5.203125,2359738.0,2062338.0,2058791.0,2058120.0,2065919.0,2274143.0,2083944.0,1798592.0,2089357.0,2189873.0,2007456.0,2095297.3636363635
5.21875,2359353.0,2062037.0,2056851.0,2056006.0,2067412.0,2274075.0,2080833.0,1798620.0,2087173.0,2190503.0,2006533.0,2094490.5454545454
5.234375,2359595.0,2061800.0,2054224.0,2054998.0,2067912.0,2274351.0,2077287.0,1798691.0,2086198.0,2191100.0,2005868.0,2093820.3636363635
5.25,2359511.0,2061040.0,2052248.0,2054550.0,2063029.0,2274487.0,2074370.0,1798527.0,2085949.0,2191856.0,2005226.0,2092799.3636363635
5.265625,2359316.0,2060929.0,2050694.0,2055625.0,2067762.0,2274160.0,2069446.0,1797984.0,2087084.0,2192514.0,2004821.0,2092757.7272727273
5.28125,2359443.0,2060922.0,2049107.0,2057021.0,2068274.0,2275178.0,2066998.0,1796873.0,2089464.0,2192989.0,2003905.0,2092743.0909090908
5.296875,2359627.0,2061091.0,2048628.0,2058474.0,2067184.0,2274945.0,2065052.0,1796294.0,2090263.0,2193718.0,2003075.0,2092577.3636363635
5.3125,2359892.0,2061119.0,2048802.0,2059673.0,2070410.0,2275276.0,2071669.0,1796056.0,2087306.0,2193442.0,2002737.0,2093307.4545454546
5.328125,2359579.0,2061874.0,2048695.0,2060381.0,2066607.0,2274693.0,2090340.0,1795495.0,2083398.0,2192416.0,2002097.0,2094143.1818181819
5.34375,2359979.0,2062077.0,2048718.0,2059612.0,2070043.0,2274596.0,2063670.0,1795073.0,2079697.0,2192060.0,2001492.0,2091547.0
5.359375,2359924.0,2060586.0,2048949.0,2060217.0,2062030.0,2274133.0,2062705.0,1794965.0,2080716.0,2191828.0,2001694.0,2090704.2727272727
5.375,2360658.0,2057302.0,2049236.0,2061678.0,2059509.0,2273093.0,2061754.0,1794939.0,2091943.0,2191496.0,2001303.0,2091173.7272727273
5.390625,2360450.0,2053578.0,2049855.0,2063390.0,2064027.0,2272472.0,2059995.0,1795495.0,2103605.0,2191657.0,2001107.0,2092330.0909090908
5.40625,2360743.0,2050550.0,2050629.0,2065289.0,2059658.0,2271727.0,2059146.0,1795902.0,2108431.0,2191527.0,2000403.0,2092182.2727272727
5.421875,2359667.0,2047975.0,2051499.0,2065795.0,2061015.0,2271522.0,2060988.0,1796241.0,2102800.0,2191677.0,1999578.0,2091705.1818181819
5.4375,2354634.0,2046504.0,2052472.0,2065059.0,2062142.0,2270417.0,2057234.0,1796859.0,2100339.0,2191757.0,1998168.0,2090507.7272727273
5.453125,2348414.0,2045138.0,2053565.0,2064178.0,2063253.0,2270096.0,2056582.0,1797433.0,2099044.0,2192060.0,1996922.0,2089698.6363636365
5.46875,2346403.0,2044343.0,2054492.0,2064345.0,2071748.0,2271085.0,2055429.0,1797785.0,2097856.0,2192542.0,1996205.0,2090203.0
5.484375,2346811.0,2043331.0,2055412.0,2065606.0,2077359.0,2269716.0,2052279.0,1797564.0,2098757.0,2192905.0,1995367.0,2090464.2727272727
5.5,2348775.0,2042537.0,2056640.0,2067083.0,2065748.0,2269210.0,2058057.0,1796652.0,2101318.0,2193402.0,1995421.0,2090440.2727272727
5.515625,2352082.0,2040688.0,2057739.0,2069084.0,2081583.0,2269724.0,2047848.0,1795556.0,2105610.0,2194080.0,1995381.0,2091761.3636363635
5.53125,2354048.0,2041472.0,2058887.0,2070987.0,2081542.0,2269857.0,2042031.0,1794391.0,2111170.0,2195004.0,1994629.0,2092183.4545454546
5.546875,2354838.0,2040124.0,2060069.0,2072824.0,2079585.0,2269703.0,2036405.0,1793246.0,2118686.0,2195346.0,1994441.0,2092297.0
5.5625,2355781.0,2040128.0,2061445.0,2074407.0,2078480.0,2270025.0,2031422.0,1792218.0,2126754.0,2196283.0,1993714.0,2092787.0
5.578125,2359307.0,2040235.0,2061424.0,2075987.0,2079671.0,2269709.0,2027221.0,1791081.0,2132711.0,2196902.0,1993130.0,2093398.0
5.59375,2363726.0,2040019.0,2059075.0,2077762.0,2080986.0,2270751.0,2024374.0,1790656.0,2137487.0,2197019.0,1992421.0,2094025.0909090908
5.609375,2364456.0,2039953.0,2056966.0,2079061.0,2082565.0,2271065.0,2021525.0,1790325.0,2138516.0,2196610.0,1992226.0,2093933.4545454546
5.625,2363633.0,2037301.0,2055105.0,2080399.0,2083486.0,2270442.0,2018300.0,1790430.0,2138253.0,2195843.0,1992375.0,2093233.3636363635
5.640625,2365320.0,2032585.0,2053927.0,2081729.0,2085953.0,2271507.0,2009155.0,1790709.0,2147012.0,2195177.0,1991478.0,2093141.0909090908
5.65625,2371098.0,2028381.0,2053276.0,2082749.0,2088354.0,2271541.0,2012992.0,1791100.0,2151181.0,2194644.0,1990904.0,2094201.8181818181
5.671875,2373779.0,2024344.0,2053309.0,2083656.0,2091146.0,2272109.0,2007909.0,1790813.0,2151074.0,2194202.0,1989557.0,2093808.9090909092
5.6875,2373953.0,2021442.0,2053521.0,2084712.0,2092138.0,2272321.0,2010914.0,1790834.0,2148117.0,2194002.0,1987481.0,2093585.0
5.703125,2371608.0,2018731.0,2054065.0,2085687.0,2090843.0,2271994.0,2015317.0,1791617.0,2141876.0,2193739.0,1986092.0,2092869.9090909092
5.71875,2365755.0,2017417.0,2054233.0,2086613.0,2089008.0,2270503.0,2006193.0,1791672.0,2135788.0,2193529.0,1984033.0,2090431.2727272727
5.734375,2361322.0,2015852.0,2054950.0,2087438.0,2087062.0,2269786.0,2004722.0,1791741.0,2132198.0,2192979.0,1983173.0,2089202.0909090908
5.75,2358641.0,2014498.0,2055954.0,2088419.0,2085792.0,2271429.0,2003400.0,1791186.0,2128749.0,2192840.0,1982174.0,2088462.0
5.765625,2357165.0,2012716.0,2057141.0,2089408.0,2084733.0,2268954.0,2002537.0,1790530.0,2124321.0,2192290.0,1981288.0,2087371.1818181819
5.78125,2353464.0,2011663.0,2058259.0,2090323.0,2085037.0,2268146.0,2000396.0,1790016.0,2119697.0,2192238.0,1980703.0,2086358.3636363635
5.796875,2350494.0,2010707.0,2059661.0,2091345.0,2084991.0,2267080.0,1996160.0,1789678.0,2114169.0,2192402.0,1979746.0,2085130.2727272727
5.8125,2347830.0,2009813.0,2060795.0,2092501.0,2084834.0,2265961.0,1991506.0,1789667.0,2110291.0,2192911.0,1978868.0,2084088.8181818181
5.828125,2343487.0,2009532.0,2062245.0,2092782.0,2085456.0,2266477.0,1985862.0,1789709.0,2107649.0,2193299.0,1978182.0,2083152.7272727273
5.84375,2340227.0,2008976.0,2063738.0,2092384.0,2085729.0,2265244.0,1980029.0,1789689.0,2104709.0,2194021.0,1978182.0,2082084.3636363635
5.859375,2337962.0,2008342.0,2064949.0,2091873.0,2086740.0,2264642.0,1974030.0,1789850.0,2102616.0,2194425.0,1977454.0,2081171.1818181819
5.875,2335202.0,2005195.0,2066539.0,2091703.0,2058737.0,2264453.0,1976661.0,1790264.0,2101515.0,2194989.0,1977094.0,2078395.6363636365
5.890625,2333017.0,2000177.0,2067897.0,2091814.0,2087378.0,2264137.0,1972043.0,1790620.0,2100216.0,2195220.0,1976636.0,2079923.1818181819
5.90625,2330595.0,1995308.0,2069002.0,2092029.0,2088863.0,2263632.0,1969779.0,1790875.0,2097448.0,2194424.0,1975895.0,2078895.4545454546
5.921875,2329159.0,1991209.0,2068080.0,2092755.0,2088863.0,2263971.0,1965291.0,1791366.0,2091079.0,2193376.0,1975112.0,2077296.4545454546
5.9375,2327839.0,1988381.0,2066487.0,2092891.0,2090059.0,2263528.0,1962469.0,1791783.0,2084002.0,2192367.0,1974250.0,2075823.2727272727
5.953125,2326678.0,1986466.0,2065621.0,2093285.0,2091158.0,2263494.0,1960500.0,1791823.0,2078158.0,2190973.0,1972857.0,2074637.5454545454
5.96875,2325563.0,1985186.0,2064876.0,2093304.0,2092540.0,2263747.0,1960697.0,1791428.0,2072269.0,2190016.0,1970845.0,2073679.1818181819
5.984375,2324494.0,1983879.0,2064594.0,2093353.0,2093947.0,2264041.0,1960732.0,1791101.0,2066522.0,2188945.0,1969213.0,2072801.9090909092
6.0,2323962.0,1982804.0,2065341.0,2093794.0,2099759.0,2264602.0,1963307.0,1790306.0,2062309.0,2187770.0,1967456.0,2072855.4545454546
6.015625,2323566.0,1981229.0,2066074.0,2094117.0,2098287.0,2264558.0,1962021.0,1789676.0,2059450.0,2187098.0,1966564.0,2072058.1818181819
6.03125,2323275.0,1979974.0,2067644.0,2094659.0,2095106.0,2265141.0,1964920.0,1789156.0,2057128.0,2186194.0,1965612.0,2071709.9090909092
6.046875,2323698.0,1979341.0,2066897.0,2095796.0,2096800.0,2265587.0,1966337.0,1788875.0,2054740.0,2185391.0,1964821.0,2071662.0909090908
6.0625,2324833.0,1978862.0,2068813.0,2096891.0,2101092.0,2266036.0,1967961.0,1789101.0,2052928.0,2185201.0,1964318.0,2072366.9090909092
6.078125,2325005.0,1978597.0,2071237.0,2096999.0,2100169.0,2266387.0,1969666.0,1788942.0,2052029.0,2184743.0,1963043.0,2072437.9090909092
6.09375,2325361.0,1978209.0,2072603.0,2096819.0,2096693.0,2266351.0,1971353.0,1789195.0,2051764.0,2184313.0,1962898.0,2072323.5454545454
6.109375,2325917.0,1975073.0,2069762.0,2096667.0,2093443.0,2265979.0,1971705.0,1789462.0,2051351.0,2184332.0,1962584.0,2071479.5454545454
6.125,2326038.0,1969600.0,2074423.0,2096919.0,2091467.0,2264854.0,1969848.0,1789808.0,2051021.0,2184590.0,1961901.0,2070951.7272727273
6.140625,2324847.0,1964405.0,2075828.0,2097300.0,2088496.0,2264107.0,1967638.0,1790381.0,2051568.0,2185396.0,1961371.0,2070121.5454545454
6.15625,2322364.0,1959824.0,2077679.0,2098006.0,2089316.0,2263056.0,1964511.0,1790880.0,2051949.0,2186269.0,1960815.0,2069515.3636363635
6.171875,2320368.0,1956090.0,2079331.0,2098455.0,2087307.0,2261936.0,1961849.0,1791576.0,2052917.0,2187490.0,1960300.0,2068874.4545454546
6.1875,2318268.0,1953489.0,2080669.0,2098243.0,2085355.0,2260930.0,1960365.0,1791739.0,2054149.0,2188233.0,1959904.0,2068304.0
6.203125,2316658.0,1952279.0,2082906.0,2097638.0,2086664.0,2260348.0,1960925.0,1791407.0,2055061.0,2188336.0,1959707.0,2068357.1818181819
6.21875,2315515.0,1951210.0,2082364.0,2097219.0,2088205.0,2259689.0,1961277.0,1790996.0,2053473.0,2188475.0,1959242.0,2067969.5454545454
6.234375,2314796.0,1950132.0,2081543.0,2096010.0,2087381.0,2258976.0,1964708.0,1790518.0,2048483.0,2188438.0,1958150.0,2067194.0909090908
6.25,2313887.0,1949083.0,2079884.0,2094660.0,2089554.0,2258314.0,1968621.0,1789813.0,2043651.0,2188767.0,1956902.0,2066648.7272727273
6.265625,2313780.0,1948133.0,2079351.0,2093174.0,2088268.0,2259143.0,1972385.0,1789401.0,2039727.0,2188778.0,1955352.0,2066135.6363636365
6.28125,2312802.0,1947939.0,2079780.0,2092026.0,2093688.0,2262979.0,1976287.0,1789495.0,2036026.0,2189022.0,1953978.0,2066729.2727272727
6.296875,2312347.0,1947659.0,2080289.0,2091154.0,2091261.0,2269297.0,1981034.0,1789369.0,2032695.0,2189816.0,1952863.0,2067071.2727272727
6.3125,2312046.0,1947764.0,2079452.0,2090286.0,2095800.0,2274310.0,1984617.0,1789682.0,2030534.0,2189901.0,1951798.0,2067835.4545454546
6.328125,2311764.0,1948209.0,2080362.0,2089505.0,2098130.0,2276987.0,1986695.0,1789875.0,2029081.0,2190145.0,1951077.0,2068348.1818181819
6.34375,2311401.0,1948625.0,2081071.0,2089091.0,2100946.0,2277186.0,1980836.0,1790064.0,2027168.0,2190432.0,1950515.0,2067939.5454545454
6.359375,2311219.0,1947050.0,2082504.0,2088444.0,2105811.0,2275056.0,1970830.0,1790212.0,2025796.0,2190804.0,1950017.0,2067067.5454545454
6.375,2311287.0,1942603.0,2081629.0,2087593.0,2110697.0,2273448.0,1960961.0,1790555.0,2025022.0,2191328.0,1949242.0,2065851.3636363635
6.390625,2311320.0,1937538.0,2083535.0,2087360.0,2114731.0,2271982.0,1954811.0,1790531.0,2025330.0,2191708.0,1949097.0,2065267.5454545454
6.40625,2311354.0,1933243.0,2084429.0,2088625.0,2114911.0,2270876.0,1954151.0,1790547.0,2026427.0,2192447.0,1948652.0,2065060.1818181819
6.421875,2310292.0,1929377.0,2085550.0,2088364.0,2112497.0,2270438.0,1956569.0,1790351.0,2028941.0,2193176.0,1948318.0,2064897.5454545454
6.4375,2305957.0,1926755.0,2086513.0,2087807.0,2108741.0,2270019.0,1957509.0,1789775.0,2031745.0,2193816.0,1947975.0,2064237.4545454546
6.453125,2300583.0,1925335.0,2087615.0,2087171.0,2105342.0,2269696.0,1955670.0,1788944.0,2034045.0,2194779.0,1948037.0,2063383.3636363635
6.46875,2296925.0,1924248.0,2088766.0,2086997.0,2103188.0,2270175.0,1953455.0,1788062.0,2036780.0,2195159.0,1947724.0,2062861.7272727273
6.484375,2294662.0,1923569.0,2089543.0,2086886.0,2101954.0,2270426.0,1952657.0,1787569.0,2039850.0,2195248.0,1947900.0,2062751.2727272727
6.5,2292845.0,1922364.0,2090931.0,2087187.0,2101244.0,2270753.0,1951569.0,1787427.0,2044420.0,2194451.0,1948034.0,2062838.6363636365
6.515625,2288827.0,1922013.0,2093083.0,2087735.0,2100450.0,2270343.0,1950621.0,1787191.0,2048989.0,2194043.0,1947437.0,2062793.8181818181
6.53125,2285989.0,1922231.0,2091852.0,2088039.0,2098865.0,2269588.0,1951320.0,1787444.0,2050936.0,2194391.0,1945741.0,2062399.6363636365
6.546875,2285109.0,1922238.0,2093806.0,2089748.0,2098150.0,2268304.0,1953096.0,1787703.0,2049627.0,2194272.0,1942444.0,2062227.0
6.5625,2283016.0,1922752.0,2092712.0,2089987.0,2097951.0,2267540.0,1954413.0,1788061.0,2049054.0,2194308.0,1940931.0,2061884.0909090908
6.578125,2280157.0,1923416.0,2091078.0,2088913.0,2098127.0,2266126.0,1955272.0,1788389.0,2047912.0,2194600.0,1939995.0,2061271.3636363635
6.59375,2285307.0,1924268.0,2089871.0,2088369.0,2098337.0,2265254.0,1956908.0,1788736.0,2046174.0,2194440.0,1939624.0,2061571.6363636365
6.609375,2283346.0,1924887.0,2088751.0,2088295.0,2098670.0,2264434.0,1957876.0,1789231.0,2044057.0,2194969.0,1939955.0,2061315.5454545454
6.625,2283346.0,1925071.0,2088217.0,2087060.0,2098810.0,2263571.0,1958616.0,1789704.0,2042910.0,2194805.0,1938384.0,2060954.0
6.640625,2293571.0,1924656.0,2087979.0,2085177.0,2099671.0,2263059.0,1960007.0,1789843.0,2042813.0,2195143.0,1936507.0,2061675.0909090908
6.65625,2292753.0,1920908.0,2088304.0,2084028.0,2099991.0,2262325.0,1961620.0,1789775.0,2042156.0,2194751.0,1936637.0,2061204.3636363635
6.671875,2288046.0,1916064.0,2088687.0,2082679.0,2100611.0,2261253.0,1963376.0,1789023.0,2041355.0,2195687.0,1937697.0,2060407.0909090908
6.6875,2298149.0,1912340.0,2089057.0,2081427.0,2101243.0,2260541.0,1964840.0,1788114.0,2041596.0,2195569.0,1939343.0,2061110.8181818181
6.703125,2286289.0,1909158.0,2089484.0,2079290.0,2102303.0,2260091.0,1966856.0,1787110.0,2043981.0,2195542.0,1942809.0,2060264.8181818181
6.71875,2286560.0,1907209.0,2090217.0,2078107.0,2103163.0,2259821.0,1968816.0,1786532.0,2046288.0,2196724.0,1945061.0,2060772.5454545454
6.734375,2286905.0,1906337.0,2090978.0,2080624.0,2102457.0,2259771.0,1970449.0,1786178.0,2048305.0,2197328.0,1948008.0,2061576.3636363635
6.75,2296864.0,1905979.0,2091993.0,2083357.0,2098294.0,2259854.0,1970789.0,1786047.0,2049488.0,2197144.0,1950710.0,2062774.4545454546
6.765625,2287351.0,1905669.0,2092739.0,2083712.0,2093310.0,2259783.0,1969661.0,1786493.0,2050231.0,2196112.0,1952954.0,2061637.7272727273
6.78125,2287292.0,1904743.0,2093647.0,2083031.0,2088886.0,2259911.0,1968762.0,1786566.0,2050065.0,2195597.0,1955070.0,2061233.6363636365
6.796875,2287158.0,1904137.0,2094574.0,2081855.0,2084207.0,2259972.0,1967700.0,1786726.0,2049575.0,2194749.0,1958050.0,2060791.1818181819
6.8125,2286891.0,1903836.0,2095564.0,2080912.0,2080661.0,2260423.0,1966688.0,1786866.0,2049989.0,2194518.0,1966234.0,2061143.8181818181
6.828125,2286092.0,1903742.0,2096468.0,2079983.0,2078288.0,2260507.0,1966122.0,1786883.0,2050143.0,2194490.0,1962231.0,2060449.9090909092
6.84375,2285418.0,1903720.0,2097366.0,2079814.0,2076249.0,2260842.0,1966475.0,1786917.0,2050232.0,2194908.0,1971516.0,2061223.3636363635
6.859375,2284828.0,1904171.0,2098492.0,2080190.0,2074799.0,2261168.0,1966670.0,1786729.0,2046224.0,2195274.0,1984412.0,2062087.0
6.875,2283983.0,1904871.0,2099645.0,2080814.0,2073206.0,2261702.0,1967580.0,1786388.0,2039603.0,2194205.0,2015595.0,2064326.5454545454
6.890625,2282901.0,1905422.0,2099502.0,2080874.0,2071397.0,2261923.0,1968616.0,1785932.0,2034100.0,2195347.0,2007298.0,2063028.3636363635
6.90625,2283409.0,1905943.0,2097953.0,2082021.0,2070313.0,2262034.0,1970221.0,1785804.0,2028877.0,2196182.0,2028500.0,2064659.7272727273
6.921875,2282125.0,1904468.0,2096729.0,2082088.0,2069010.0,2260968.0,1971657.0,1785259.0,2023914.0,2202393.0,2001276.0,2061807.9090909092
6.9375,2282055.0,1901197.0,2095529.0,2080982.0,2068739.0,2260046.0,1973448.0,1784687.0,2019748.0,2205729.0,2009080.0,2061930.9090909092
6.953125,2282283.0,1897631.0,2094572.0,2080831.0,2068415.0,2258564.0,1975475.0,1784158.0,2017439.0,2207981.0,2020103.0,2062495.6363636365
6.96875,2282748.0,1895524.0,2094122.0,2080317.0,2068192.0,2257608.0,1977200.0,1784208.0,2016216.0,2209118.0,2026886.0,2062921.7272727273
6.984375,2283267.0,1893803.0,2094129.0,2079672.0,2068297.0,2256310.0,1979318.0,1784630.0,2015372.0,2199303.0,2029133.0,2062112.1818181819
7.0,2283661.0,1893269.0,2094236.0,2079012.0,2068756.0,2255631.0,1981845.0,1785279.0,2015184.0,2208921.0,2029639.0,2063221.1818181819
7.015625,2284240.0,1893101.0,2094647.0,2078943.0,2068621.0,2254185.0,1984808.0,1785616.0,2016101.0,2206776.0,2027143.0,2063107.3636363635
7.03125,2284676.0,1893201.0,2094945.0,2078746.0,2069023.0,2253233.0,1987069.0,1786085.0,2017249.0,2204617.0,2025597.0,2063131.0
7.046875,2285046.0,1893116.0,2095486.0,2076887.0,2070140.0,2252250.0,1988698.0,1786599.0,2019330.0,2192813.0,2028568.0,2062630.2727272727
7.0625,2284853.0,1893274.0,2096068.0,2074112.0,2071537.0,2251569.0,1990274.0,1787220.0,2022207.0,2196444.0,2029538.0,2063372.3636363635
7.078125,2283686.0,1893422.0,2096977.0,2070913.0,2068456.0,2250712.0,1992269.0,1787876.0,2026439.0,2201407.0,2027021.0,2063561.6363636365
7.09375,2282565.0,1894704.0,2097865.0,2068138.0,2063732.0,2250062.0,1993344.0,1788699.0,2030649.0,2194696.0,2025581.0,2062730.4545454546
7.109375,2285467.0,1893791.0,2098868.0,2066314.0,2058926.0,2249688.0,1993759.0,1789236.0,2032051.0,2188285.0,2023101.0,2061771.4545454546
7.125,2280885.0,1895529.0,2099570.0,2065280.0,2054083.0,2249461.0,1995073.0,1789223.0,2034025.0,2198429.0,2020716.0,2062024.9090909092
7.140625,2281642.0,1896776.0,2100909.0,2065135.0,2049889.0,2249409.0,1997420.0,1788846.0,2037779.0,2189564.0,2020063.0,2061584.7272727273
7.15625,2279556.0,1897693.0,2101846.0,2065062.0,2047690.0,2249324.0,2000073.0,1788615.0,2049151.0,2191037.0,2000705.0,2060977.4545454546
7.171875,2279822.0,1898436.0,2103235.0,2063692.0,2047000.0,2249351.0,2002606.0,1788350.0,2060677.0,2187343.0,2018753.0,2063569.5454545454
7.1875,2279911.0,1896744.0,2104350.0,2062717.0,2045264.0,2249402.0,2004833.0,1788544.0,2062527.0,2186923.0,2018801.0,2063637.8181818181
7.203125,2280053.0,1894521.0,2105726.0,2061726.0,2043616.0,2249470.0,2007974.0,1788785.0,2061137.0,2186559.0,2018321.0,2063444.3636363635
7.21875,2280143.0,1892895.0,2107014.0,2061466.0,2042316.0,2249634.0,2010129.0,1789105.0,2057834.0,2186245.0,2018845.0,2063238.7272727273
7.234375,2280700.0,1892107.0,2106868.0,2062068.0,2041853.0,2250012.0,2012915.0,1789827.0,2053540.0,2186211.0,2020674.0,2063343.1818181819
7.25,2279944.0,1891860.0,2105648.0,2063624.0,2042277.0,2250127.0,2015650.0,1790354.0,2050070.0,2186176.0,2021378.0,2063373.4545454546
7.265625,2280925.0,1892315.0,2104452.0,2065922.0,2043469.0,2250834.0,2018634.0,1790941.0,2048323.0,2185819.0,2020965.0,2063872.6363636365
7.28125,2281285.0,1893091.0,2104121.0,2068195.0,2043974.0,2251205.0,2021192.0,1791403.0,2048285.0,2164566.0,2020039.0,2062486.9090909092
7.296875,2281699.0,1893978.0,2103853.0,2070153.0,2045513.0,2251700.0,2023796.0,1792156.0,2049474.0,2164638.0,2019795.0,2063341.3636363635
7.3125,2282512.0,1895102.0,2103949.0,2071546.0,2046213.0,2252195.0,2026743.0,1792691.0,2050571.0,2167925.0,2016485.0,2064175.6363636365
7.328125,2282621.0,1895942.0,2104761.0,2073073.0,2048386.0,2251298.0,2029492.0,1793228.0,2052423.0,2164655.0,2014845.0,2064611.2727272727
7.34375,2284144.0,1897381.0,2105557.0,2074531.0,2052064.0,2250261.0,2030695.0,1793031.0,2054767.0,2164270.0,2012678.0,2065398.0909090908
7.359375,2283571.0,1898776.0,2105917.0,2075579.0,2055121.0,2249204.0,2031173.0,1792436.0,2057158.0,2164349.0,2011636.0,2065901.8181818181
7.375,2284130.0,1900440.0,2106461.0,2076728.0,2057911.0,2248114.0,2031611.0,1791717.0,2059032.0,2171518.0,2010535.0,2067108.8181818181
7.390625,2282045.0,1902213.0,2107111.0,2077745.0,2062945.0,2247121.0,2031417.0,1791098.0,2061040.0,2169734.0,2010309.0,2067525.2727272727
7.40625,2282524.0,1903886.0,2107931.0,2077456.0,2062945.0,2245464.0,2031616.0,1791098.0,2062299.0,2178772.0,2008938.0,2068448.0909090908
7.421875,2310425.0,1905686.0,2108638.0,2076512.0,2064580.0,2244382.0,2031710.0,1790619.0,2064434.0,2173671.0,2009456.0,2070919.3636363635
7.4375,2308704.0,1905448.0,2109338.0,2075092.0,2061826.0,2242932.0,2032339.0,1790526.0,2072081.0,2183513.0,2009307.0,2071918.7272727273
7.453125,2281995.0,1903710.0,2110059.0,2074174.0,2056698.0,2241713.0,2032932.0,1790511.0,2071681.0,2181298.0,2009121.0,2068535.6363636365
7.46875,2286654.0,1902443.0,2110868.0,2073633.0,2049867.0,2240676.0,2033789.0,1790422.0,2067585.0,2165406.0,2018646.0,2067271.7272727273
7.484375,2296619.0,1901516.0,2111859.0,2073873.0,2042940.0,2239186.0,2034910.0,1790576.0,2064426.0,2175867.0,2009692.0,2067405.8181818181
7.5,2299434.0,1901775.0,2112283.0,2074191.0,2037324.0,2238709.0,2036509.0,1790874.0,2069644.0,2166155.0,2019767.0,2067878.6363636365
7.515625,2300955.0,1901718.0,2113454.0,2074418.0,2034873.0,2238422.0,2038160.0,1791325.0,2060813.0,2185402.0,2011783.0,2068302.0909090908
7.53125,2303062.0,1902956.0,2114197.0,2074086.0,2032260.0,2238805.0,2039482.0,1791581.0,2066818.0,2165163.0,2011445.0,2067259.5454545454
7.546875,2304772.0,1903768.0,2115191.0,2073784.0,2029800.0,2239452.0,2040886.0,1792039.0,2057204.0,2165256.0,2020020.0,2067470.1818181819
7.5625,2307770.0,1904748.0,2115953.0,2073639.0,2027629.0,2240487.0,2042451.0,1792358.0,2054448.0,2165701.0,2011674.0,2066987.0909090908
7.578125,2282435.0,1905703.0,2115392.0,2073686.0,2026071.0,2242093.0,2044550.0,1792547.0,2051854.0,2165214.0,2012007.0,2064686.5454545454
7.59375,2291816.0,1907029.0,2113559.0,2074040.0,2025498.0,2243521.0,2046963.0,1792240.0,2051002.0,2163783.0,2012463.0,2065628.5454545454
7.609375,2283725.0,1908397.0,2111600.0,2074905.0,2024771.0,2245328.0,2049124.0,1791323.0,2049722.0,2162169.0,2012326.0,2064853.6363636365
7.625,2316195.0,1910098.0,2110321.0,2076107.0,2025064.0,2246224.0,2051286.0,1790372.0,2048751.0,2162169.0,2013029.0,2068146.9090909092
7.640625,2312013.0,1912155.0,2109128.0,2077217.0,2025193.0,2247721.0,2052148.0,1789228.0,2048117.0,2160631.0,2010758.0,2067664.4545454546
7.65625,2319118.0,1914039.0,2108452.0,2078106.0,2024663.0,2249065.0,2051982.0,1787952.0,2047896.0,2159365.0,2008572.0,2068110.0
7.671875,2321273.0,1915881.0,2108200.0,2079033.0,2023689.0,2250224.0,2051880.0,1787302.0,2047860.0,2158495.0,2008074.0,2068355.5454545454
7.6875,2320345.0,1917367.0,2108207.0,2080209.0,2022397.0,2251020.0,2051181.0,1786643.0,2048989.0,2158047.0,2006442.0,2068258.8181818181
7.703125,2318975.0,1916761.0,2107969.0,2081334.0,2021637.0,2251436.0,2050238.0,1786407.0,2050949.0,2157811.0,2006505.0,2068183.8181818181
7.71875,2317660.0,1915410.0,2107865.0,2082369.0,2021288.0,2251579.0,2050282.0,1785791.0,2052199.0,2157751.0,2007900.0,2068190.3636363635
7.734375,2315966.0,1914302.0,2108126.0,2081796.0,2021463.0,2250585.0,2050837.0,1785388.0,2054280.0,2157909.0,2007096.0,2067977.0909090908
7.75,2313030.0,1913574.0,2108593.0,2080655.0,2022397.0,2250086.0,2050973.0,1785015.0,2058538.0,2158237.0,2007746.0,2068076.7272727273
7.765625,2311918.0,1913353.0,2109098.0,2079190.0,2021002.0,2248854.0,2051562.0,1784455.0,2056473.0,2158560.0,2008967.0,2067584.7272727273
7.78125,2311089.0,1913809.0,2109437.0,2078154.0,2015837.0,2248005.0,2052363.0,1784452.0,2060288.0,2159112.0,2009546.0,2067462.9090909092
7.796875,2310841.0,1914612.0,2110331.0,2077980.0,2010734.0,2246921.0,2052897.0,1784331.0,2057742.0,2159488.0,2008967.0,2066804.0
7.8125,2310337.0,1915192.0,2110878.0,2078141.0,2006148.0,2246056.0,2053477.0,1783340.0,2054693.0,2160376.0,2008559.0,2066108.8181818181
7.828125,2310018.0,1916027.0,2111711.0,2078574.0,2001970.0,2245274.0,2054163.0,1782162.0,2052309.0,2160495.0,2009249.0,2065632.0
7.84375,2310753.0,1916647.0,2112460.0,2078874.0,1998434.0,2244368.0,2054912.0,1780776.0,2049495.0,2162220.0,2010338.0,2065388.8181818181
7.859375,2311097.0,1917203.0,2113213.0,2079091.0,1996966.0,2243503.0,2055881.0,1779401.0,2046797.0,2161316.0,2013200.0,2065242.5454545454
7.875,2309242.0,1918158.0,2113910.0,2078998.0,1995596.0,2242667.0,2056910.0,1778048.0,2045438.0,2162782.0,2011340.0,2064826.2727272727
7.890625,2308508.0,1918852.0,2114542.0,2079137.0,1994267.0,2242085.0,2058044.0,1777419.0,2044361.0,2163584.0,2014835.0,2065057.6363636365
7.90625,2308659.0,1920206.0,2113203.0,2079438.0,1993375.0,2241686.0,2058922.0,1777256.0,2042983.0,2163741.0,2015195.0,2064969.4545454546
7.921875,2308633.0,1921244.0,2110847.0,2080056.0,1992892.0,2241797.0,2060823.0,1777732.0,2042062.0,2160739.0,2014966.0,2064708.2727272727
7.9375,2307992.0,1922155.0,2108747.0,2080963.0,1993058.0,2241482.0,2062770.0,1778465.0,2041937.0,2163111.0,2013968.0,2064968.0
7.953125,2307905.0,1922701.0,2107053.0,2081817.0,1993527.0,2241667.0,2064535.0,1779070.0,2042575.0,2161872.0,2014900.0,2065238.3636363635
7.96875,2308867.0,1921329.0,2105405.0,2082960.0,1994483.0,2241622.0,2066448.0,1780163.0,2043249.0,2159807.0,2015175.0,2065409.8181818181
7.984375,2309244.0,1920087.0,2104210.0,2083816.0,1995560.0,2241673.0,2067220.0,1781192.0,2043656.0,2158989.0,2015276.0,2065538.4545454546
8.0,2310086.0,1918770.0,2103967.0,2084744.0,1996502.0,2242008.0,2067924.0,1782730.0,2044150.0,2158189.0,2015322.0,2065853.8181818181
8.015625,2310774.0,1918392.0,2103811.0,2085766.0,1997633.0,2242217.0,2069349.0,1784460.0,2046163.0,2156631.0,2014126.0,2066302.0
8.03125,2311260.0,1918169.0,2103484.0,2086555.0,1999071.0,2242654.0,2071156.0,1786422.0,2049196.0,2156404.0,2016095.0,2067315.0909090908
8.046875,2312037.0,1918624.0,2103275.0,2087750.0,2000530.0,2242997.0,2073680.0,1786867.0,2051411.0,2156373.0,2015520.0,2068096.7272727273
8.0625,2312749.0,1918780.0,2103128.0,2088527.0,2001869.0,2243505.0,2077189.0,1787548.0,2053306.0,2156114.0,2016567.0,2069025.6363636365
8.078125,2313683.0,1918937.0,2103620.0,2088132.0,2003471.0,2244237.0,2080717.0,1788760.0,2050559.0,2157180.0,2017831.0,2069738.8181818181
8.09375,2314428.0,1919118.0,2104176.0,2086731.0,2002335.0,2244389.0,2081199.0,1789970.0,2048554.0,2156230.0,2019366.0,2069681.4545454546
8.109375,2315369.0,1918954.0,2104688.0,2085461.0,1998032.0,2244307.0,2082055.0,1790502.0,2046568.0,2156358.0,2020949.0,2069385.7272727273
8.125,2315790.0,1918968.0,2105511.0,2084627.0,1992861.0,2243402.0,2083093.0,1793278.0,2053508.0,2156780.0,2021637.0,2069950.4545454546
8.140625,2316558.0,1919574.0,2106123.0,2084591.0,1988854.0,2241969.0,2084305.0,1793903.0,2044377.0,2156937.0,2022455.0,2069058.7272727273
8.15625,2317149.0,1919921.0,2107106.0,2084613.0,1985407.0,2241005.0,2086402.0,1793478.0,2041847.0,2156815.0,2025101.0,2068985.8181818181
8.171875,2318127.0,1920544.0,2107766.0,2084765.0,1981993.0,2241435.0,2087551.0,1793456.0,2040450.0,2155546.0,2023809.0,2068676.5454545454
8.1875,2318910.0,1921296.0,2108515.0,2085077.0,1979180.0,2243029.0,2089275.0,1792622.0,2039560.0,2154185.0,2025111.0,2068796.3636363635
8.203125,2319723.0,1922121.0,2109679.0,2085391.0,1977023.0,2243781.0,2090807.0,1791307.0,2038481.0,2152634.0,2025763.0,2068791.8181818181
8.21875,2320757.0,1921310.0,2110533.0,2085191.0,1975975.0,2244252.0,2091872.0,1793035.0,2038125.0,2151338.0,2024488.0,2068806.9090909092
8.234375,2321609.0,1920358.0,2109790.0,2085363.0,1975484.0,2244828.0,2092331.0,1799191.0,2038189.0,2150178.0,2023666.0,2069180.6363636365
8.25,2322860.0,1919610.0,2107353.0,2085574.0,1975327.0,2245100.0,2092355.0,1792714.0,2038509.0,2149224.0,2024073.0,2068427.1818181819
8.265625,2322560.0,1919994.0,2104751.0,2086452.0,1976219.0,2245438.0,2091375.0,1805250.0,2039351.0,2148717.0,2024489.0,2069508.7272727273
8.28125,2321916.0,1920100.0,2102723.0,2087894.0,1977750.0,2245639.0,2090066.0,1794436.0,2040304.0,2149823.0,2025099.0,2068704.5454545454
8.296875,2317531.0,1920976.0,2100673.0,2089759.0,1981948.0,2246000.0,2088816.0,1803723.0,2041938.0,2148347.0,2025434.0,2069558.6363636365
8.3125,2320718.0,1921715.0,2099024.0,2092281.0,1988232.0,2246891.0,2088032.0,1803799.0,2043169.0,2147879.0,2029350.0,2071008.1818181819
8.328125,2313161.0,1922482.0,2098195.0,2094899.0,1991787.0,2247741.0,2087578.0,1801207.0,2044416.0,2147649.0,2027271.0,2070580.5454545454
8.34375,2315628.0,1923122.0,2097933.0,2096831.0,1994095.0,2248850.0,2087183.0,1797993.0,2046369.0,2147772.0,2030211.0,2071453.3636363635
8.359375,2323086.0,1923945.0,2097680.0,2098831.0,1994478.0,2249301.0,2087308.0,1794936.0,2049082.0,2147698.0,2030906.0,2072477.3636363635
8.375,2327739.0,1924725.0,2097399.0,2100930.0,1994101.0,2250048.0,2087489.0,1794936.0,2042476.0,2147903.0,2031880.0,2072693.2727272727
8.390625,2330973.0,1926071.0,2097422.0,2102778.0,1992769.0,2250376.0,2087861.0,1791506.0,2039378.0,2148234.0,2033040.0,2072764.3636363635
8.40625,2331706.0,1927229.0,2097878.0,2104511.0,1989353.0,2250933.0,2088146.0,1795820.0,2046606.0,2148537.0,2033680.0,2074036.2727272727
8.421875,2332635.0,1928214.0,2098121.0,2106252.0,1985437.0,2250968.0,2088848.0,1802236.0,2048038.0,2148896.0,2035569.0,2075019.4545454546
8.4375,2335691.0,1929567.0,2098928.0,2106936.0,1981926.0,2251545.0,2089579.0,1807777.0,2036460.0,2149341.0,2037771.0,2075047.3636363635
8.453125,2333877.0,1929496.0,2099636.0,2106542.0,1979201.0,2251884.0,2090619.0,1812461.0,2033700.0,2148782.0,2036770.0,2074815.2727272727
8.46875,2336965.0,1928614.0,2100555.0,2106233.0,1977713.0,2251879.0,2091286.0,1817623.0,2031639.0,2147607.0,2039549.0,2075423.9090909092
8.484375,2335885.0,1927529.0,2101506.0,2105707.0,1977160.0,2252078.0,2092365.0,1823007.0,2030690.0,2146153.0,2038901.0,2075543.7272727273
8.5,2334802.0,1926789.0,2102211.0,2105311.0,1977041.0,2251545.0,2092936.0,1830070.0,2030430.0,2145363.0,2036973.0,2075770.0909090908
8.515625,2337041.0,1926721.0,2103088.0,2105047.0,1976050.0,2249911.0,2094423.0,1838617.0,2030304.0,2144684.0,2037294.0,2076652.7272727273
8.53125,2339894.0,1927093.0,2104049.0,2104551.0,1975710.0,2248407.0,2095445.0,1850319.0,2030541.0,2144105.0,2037676.0,2077980.9090909092
8.546875,2341439.0,1927483.0,2104875.0,2104524.0,1976070.0,2246686.0,2095821.0,1860753.0,2032613.0,2143926.0,2037660.0,2079259.0909090908
8.5625,2340629.0,1928528.0,2106003.0,2104551.0,1977184.0,2244781.0,2095250.0,1871793.0,2031463.0,2143729.0,2038158.0,2080188.0909090908
8.578125,2338703.0,1928808.0,2107040.0,2104309.0,1978313.0,2243472.0,2095088.0,1883119.0,2034043.0,2143836.0,2036927.0,2081241.6363636365
8.59375,2336453.0,1929647.0,2106959.0,2104088.0,1980074.0,2242640.0,2094124.0,1895530.0,2035787.0,2144869.0,2037501.0,2082515.6363636365
8.609375,2334035.0,1929942.0,2104216.0,2104602.0,1981743.0,2241651.0,2093932.0,1904576.0,2037668.0,2145231.0,2038559.0,2083286.8181818181
8.625,2331495.0,1930696.0,2101113.0,2105127.0,1983297.0,2240844.0,2093796.0,1913806.0,2039833.0,2146408.0,2038674.0,2084099.0
8.640625,2328994.0,1931329.0,2098779.0,2105896.0,1985042.0,2240107.0,2094014.0,1921129.0,2041976.0,2147560.0,2040037.0,2084987.5454545454
8.65625,2326986.0,1932306.0,2096239.0,2106426.0,1986976.0,2239507.0,2094178.0,1927911.0,2044054.0,2149075.0,2041232.0,2085899.0909090908
8.671875,2325486.0,1933380.0,2094388.0,2106923.0,1988779.0,2239395.0,2094642.0,1934084.0,2046512.0,2151949.0,2041728.0,2087024.1818181819
8.6875,2324441.0,1933975.0,2093073.0,2107825.0,1988901.0,2239223.0,2095200.0,1939963.0,2048851.0,2150262.0,2042528.0,2087658.3636363635
8.703125,2323367.0,1933216.0,2092655.0,2108900.0,1984817.0,2239546.0,2095732.0,1946964.0,2049209.0,2153348.0,2043734.0,2088317.0909090908
8.71875,2322458.0,1932002.0,2091934.0,2110150.0,1979990.0,2239489.0,2096594.0,1953287.0,2045968.0,2154856.0,2044430.0,2088287.0909090908
8.734375,2321443.0,1931668.0,2091105.0,2112002.0,1976000.0,2240081.0,2097950.0,1958921.0,2042359.0,2156340.0,2044662.0,2088411.9090909092
8.75,2321633.0,1931426.0,2091007.0,2113571.0,1972455.0,2240616.0,2098883.0,1964746.0,2039910.0,2156929.0,2045685.0,2088805.5454545454
8.765625,2322023.0,1931589.0,2091223.0,2114960.0,1969887.0,2241417.0,2100494.0,1968608.0,2037504.0,2155970.0,2045676.0,2089031.9090909092
8.78125,2322382.0,1932206.0,2091330.0,2116135.0,1969147.0,2242513.0,2101810.0,1972017.0,2035179.0,2154853.0,2044453.0,2089275.0
8.796875,2322550.0,1932974.0,2091836.0,2115948.0,1969060.0,2243391.0,2103291.0,1975392.0,2033501.0,2153678.0,2043628.0,2089568.0909090908
8.8125,2322799.0,1933766.0,2092227.0,2115142.0,1968988.0,2244825.0,2104660.0,1978021.0,2032399.0,2152942.0,2044385.0,2090014.0
8.828125,2321947.0,1934480.0,2092968.0,2114925.0,1969423.0,2246416.0,2106398.0,1980802.0,2031645.0,2153428.0,2044226.0,2090605.2727272727
8.84375,2320284.0,1934894.0,2093498.0,2115724.0,1969883.0,2248127.0,2107469.0,1982486.0,2030655.0,2153481.0,2043839.0,2090940.0
8.859375,2318618.0,1935911.0,2094100.0,2116463.0,1971219.0,2251338.0,2108106.0,1985067.0,2029604.0,2154549.0,2044727.0,2091791.0909090908
8.875,2317356.0,1936265.0,2094953.0,2117530.0,1972585.0,2256290.0,2108957.0,1987389.0,2029620.0,2157304.0,2045151.0,2093036.3636363635
8.890625,2316320.0,1937216.0,2095581.0,2119010.0,1974261.0,2260347.0,2110371.0,1989144.0,2030317.0,2159452.0,2045518.0,2094321.5454545454
8.90625,2315578.0,1937996.0,2096431.0,2119745.0,1976327.0,2262075.0,2115412.0,1989032.0,2031510.0,2163464.0,2045585.0,2095741.3636363635
8.921875,2312702.0,1938733.0,2097505.0,2120395.0,1978527.0,2262782.0,2120204.0,1989564.0,2032624.0,2161784.0,2045337.0,2096377.9090909092
8.9375,2310485.0,1939058.0,2098293.0,2121152.0,1980747.0,2260466.0,2123708.0,1990410.0,2034151.0,2164330.0,2045983.0,2097162.090909091
8.953125,2309514.0,1937548.0,2098280.0,2122070.0,1982889.0,2257184.0,2129037.0,1990662.0,2035876.0,2165553.0,2046704.0,2097756.090909091
8.96875,2309575.0,1936042.0,2095739.0,2123030.0,1985254.0,2254997.0,2130740.0,1989253.0,2037763.0,2166126.0,2046520.0,2097730.8181818184
8.984375,2310405.0,1935121.0,2092474.0,2124320.0,1988072.0,2252553.0,2131955.0,1989532.0,2039667.0,2165654.0,2046948.0,2097881.909090909
9.0,2310809.0,1934535.0,2089786.0,2125652.0,1990360.0,2250220.0,2134015.0,1989790.0,2040350.0,2164955.0,2047671.0,2098013.0
9.015625,2311961.0,1934295.0,2087385.0,2126937.0,1988529.0,2248380.0,2136538.0,1990559.0,2036635.0,2163345.0,2048656.0,2097565.4545454546
9.03125,2311961.0,1934574.0,2085696.0,2128218.0,1986339.0,2247410.0,2139298.0,1990836.0,2031937.0,2160584.0,2049636.0,2096953.5454545454
9.046875,2312158.0,1934520.0,2084604.0,2129495.0,1984242.0,2245953.0,2140444.0,1992035.0,2028572.0,2158562.0,2049785.0,2096397.2727272727
9.0625,2312874.0,1934738.0,2084240.0,2130670.0,1982178.0,2244917.0,2144249.0,1993886.0,2024919.0,2156264.0,2049098.0,2096184.8181818181
9.078125,2313403.0,1934936.0,2083688.0,2131536.0,1980549.0,2243431.0,2149704.0,1995958.0,2021767.0,2153973.0,2047562.0,2096046.0909090908
9.09375,2313869.0,1935396.0,2083043.0,2131976.0,1979569.0,2242890.0,2147446.0,1997567.0,2018930.0,2152578.0,2048023.0,2095571.5454545454
9.109375,2313751.0,1936038.0,2082851.0,2132677.0,1977977.0,2242334.0,2144081.0,2000325.0,2016283.0,2151263.0,2047014.0,2094963.0909090908
9.125,2312641.0,1936721.0,2082888.0,2133519.0,1977246.0,2241951.0,2140807.0,2003689.0,2013632.0,2149978.0,2046701.0,2094524.8181818181
9.140625,2310600.0,1937564.0,2083213.0,2133907.0,1976647.0,2241508.0,2141162.0,2008429.0,2011261.0,2148945.0,2047466.0,2094609.2727272727
9.15625,2308833.0,1938130.0,2083691.0,2133863.0,1978788.0,2241284.0,2144289.0,2013569.0,2010226.0,2147864.0,2047881.0,2095310.7272727273
9.171875,2305247.0,1938938.0,2084419.0,2132521.0,1982407.0,2241114.0,2147317.0,2019913.0,2008790.0,2147398.0,2047420.0,2095953.0909090908
9.1875,2297201.0,1938972.0,2085241.0,2130331.0,1984654.0,2241495.0,2146285.0,2025356.0,2009505.0,2147024.0,2046965.0,2095729.9090909092
9.203125,2293216.0,1937807.0,2085777.0,2129930.0,1986257.0,2241632.0,2142300.0,2030454.0,2010278.0,2148058.0,2047815.0,2095774.9090909092
9.21875,2294094.0,1937020.0,2086756.0,2131420.0,1986372.0,2242145.0,2134531.0,2034627.0,2012827.0,2148610.0,2048014.0,2096037.8181818181
9.234375,2299853.0,1936675.0,2087552.0,2129351.0,1986946.0,2242615.0,2131274.0,2039318.0,2016405.0,2149161.0,2047811.0,2096996.4545454546
9.25,2307402.0,1936798.0,2088765.0,2128864.0,1988142.0,2243307.0,2129036.0,2044174.0,2020446.0,2149569.0,2047772.0,2098570.4545454546
9.265625,2311527.0,1936893.0,2088328.0,2128304.0,1990473.0,2244040.0,2129258.0,2048885.0,2021922.0,2150070.0,2046793.0,2099681.1818181816
9.28125,2311776.0,1937431.0,2085157.0,2127982.0,1992588.0,2243941.0,2129528.0,2053473.0,2023659.0,2150028.0,2047646.0,2100291.727272727
9.296875,2311835.0,1938181.0,2089792.0,2126959.0,1995088.0,2242800.0,2129535.0,2057195.0,2026779.0,2148593.0,2048248.0,2101364.090909091
9.3125,2311952.0,1938544.0,2090464.0,2126326.0,1996032.0,2241263.0,2129133.0,2061364.0,2029348.0,2145989.0,2048999.0,2101764.909090909
9.328125,2311379.0,1939430.0,2082467.0,2125899.0,1993528.0,2244475.0,2129828.0,2066189.0,2027555.0,2143134.0,2050082.0,2101269.6363636362
9.34375,2311108.0,1939977.0,2078344.0,2125562.0,1989622.0,2240152.0,2130801.0,2070391.0,2027064.0,2139779.0,2049356.0,2100196.0
9.359375,2310205.0,1941034.0,2080579.0,2125617.0,1986018.0,2238408.0,2130638.0,2070391.0,2027822.0,2137215.0,2049356.0,2099753.0
9.375,2308096.0,1942136.0,2078878.0,2125578.0,1983101.0,2237530.0,2130525.0,2074317.0,2026448.0,2135061.0,2049409.0,2099189.0
9.390625,2308128.0,1943637.0,2078268.0,2125348.0,1980996.0,2236799.0,2130083.0,2077899.0,2023882.0,2133264.0,2049455.0,2098887.1818181816
9.40625,2312501.0,1943097.0,2078035.0,2125332.0,1980061.0,2235971.0,2128976.0,2081227.0,2022744.0,2131626.0,2050136.0,2099064.1818181816
9.421875,2313474.0,1942938.0,2077619.0,2125142.0,1980703.0,2234972.0,2125361.0,2083778.0,2023090.0,2129791.0,2050466.0,2098848.5454545454
9.4375,2310536.0,1941844.0,2077549.0,2125278.0,1980699.0,2233904.0,2127106.0,2085452.0,2023866.0,2128145.0,2051120.0,2098681.727272727
9.453125,2307031.0,1940933.0,2077801.0,2125113.0,1980963.0,2233580.0,2123656.0,2086900.0,2023599.0,2127120.0,2051384.0,2098007.272727273
9.46875,2303709.0,1940533.0,2078416.0,2125555.0,1981373.0,2233450.0,2121935.0,2087779.0,2023044.0,2126308.0,2050771.0,2097533.909090909
9.484375,2302514.0,1940728.0,2079362.0,2126168.0,1982449.0,2232864.0,2121093.0,2088655.0,2023685.0,2125674.0,2050238.0,2097584.5454545454
9.5,2302124.0,1941448.0,2080270.0,2126428.0,1983736.0,2233265.0,2120056.0,2089877.0,2023282.0,2125530.0,2050673.0,2097880.8181818184
9.515625,2302998.0,1941865.0,2081857.0,2127175.0,1985461.0,2233362.0,2119165.0,2091865.0,2024047.0,2125491.0,2051339.0,2098602.272727273
9.53125,2302416.0,1942698.0,2080904.0,2127503.0,1987112.0,2233715.0,2118563.0,2093859.0,2024499.0,2125609.0,2052093.0,2098997.3636363638
9.546875,2301384.0,1943184.0,2082701.0,2126035.0,1989072.0,2234291.0,2130815.0,2096291.0,2026926.0,2125600.0,2053581.0,2100898.1818181816
9.5625,2300010.0,1943946.0,2083557.0,2123881.0,1990967.0,2235186.0,2117968.0,2098134.0,2028275.0,2126151.0,2054088.0,2100196.6363636362
9.578125,2299342.0,1944712.0,2084457.0,2121688.0,1993006.0,2236075.0,2117403.0,2100199.0,2025805.0,2126262.0,2054891.0,2100349.090909091
9.59375,2299118.0,1945695.0,2085708.0,2119927.0,1994971.0,2236834.0,2117063.0,2102666.0,2030116.0,2124899.0,2056105.0,2101191.090909091
9.609375,2302408.0,1946714.0,2084957.0,2118742.0,1997106.0,2237624.0,2116586.0,2104525.0,2032018.0,2123148.0,2055213.0,2101731.0
9.625,2307582.0,1946816.0,2081275.0,2117775.0,1999284.0,2238847.0,2116435.0,2106585.0,2031498.0,2121434.0,2053403.0,2101903.090909091
9.640625,2309480.0,1946030.0,2077647.0,2116815.0,2001297.0,2239680.0,2116679.0,2107651.0,2027390.0,2120068.0,2049747.0,2101134.909090909
9.65625,2311037.0,1944467.0,2074689.0,2116012.0,1999279.0,2241677.0,2116507.0,2108502.0,2023312.0,2118763.0,2048074.0,2100210.8181818184
9.671875,2312186.0,1943147.0,2072037.0,2114892.0,1995044.0,2243601.0,2115820.0,2109235.0,2020559.0,2118087.0,2048952.0,2099414.5454545454
9.6875,2312279.0,1942466.0,2069881.0,2113755.0,1991210.0,2245707.0,2114405.0,2110122.0,2017844.0,2118242.0,2052114.0,2098911.3636363638
9.703125,2312243.0,1941995.0,2068640.0,2112758.0,1987901.0,2247654.0,2112424.0,2111312.0,2015461.0,2117736.0,2052577.0,2098245.5454545454
9.71875,2312169.0,1941847.0,2067986.0,2111841.0,1985164.0,2240925.0,2110065.0,2113274.0,2014391.0,2117125.0,2051239.0,2096911.4545454546
9.734375,2311992.0,1942322.0,2067569.0,2111336.0,1983591.0,2250001.0,2107675.0,2115829.0,2013961.0,2116834.0,2049204.0,2097301.272727273
9.75,2312108.0,1942632.0,2067115.0,2110909.0,1983806.0,2249904.0,2105294.0,2119127.0,2013409.0,2116642.0,2047906.0,2097168.3636363638
9.765625,2312077.0,1942695.0,2066906.0,2110578.0,1983826.0,2248691.0,2130885.0,2122167.0,2013729.0,2116504.0,2047346.0,2099582.1818181816
9.78125,2312349.0,1942922.0,2067267.0,2110156.0,1983748.0,2249167.0,2103609.0,2125573.0,2013625.0,2116893.0,2047528.0,2097530.6363636362
9.796875,2312833.0,1943020.0,2067712.0,2109569.0,1984125.0,2250126.0,2102287.0,2129791.0,2014894.0,2117612.0,2047686.0,2098150.4545454546
9.8125,2312998.0,1943457.0,2068368.0,2109649.0,1984992.0,2249284.0,2100839.0,2133474.0,2016116.0,2118024.0,2048158.0,2098669.0
9.828125,2313537.0,1943651.0,2068902.0,2109709.0,1985298.0,2247904.0,2099592.0,2136920.0,2017375.0,2119076.0,2046082.0,2098913.272727273
9.84375,2313663.0,1943925.0,2070529.0,2109880.0,1985814.0,2246849.0,2098788.0,2138886.0,2019374.0,2119406.0,2043182.0,2099117.8181818184
9.859375,2314306.0,1942571.0,2069660.0,2110216.0,1986638.0,2246167.0,2098326.0,2141509.0,2018402.0,2120551.0,2040874.0,2099020.0
9.875,2314666.0,1940668.0,2071250.0,2110348.0,1986808.0,2245381.0,2097662.0,2144000.0,2017953.0,2119960.0,2039030.0,2098884.1818181816
9.890625,2315341.0,1938710.0,2072103.0,2110348.0,1987655.0,2246259.0,2097252.0,2146041.0,2020926.0,2122780.0,2037060.0,2099497.727272727
9.90625,2315843.0,1937235.0,2073101.0,2110849.0,1988106.0,2245298.0,2097140.0,2147912.0,2022786.0,2124910.0,2034546.0,2099793.272727273
9.921875,2316341.0,1936041.0,2074374.0,2111274.0,1988811.0,2246055.0,2096855.0,2150550.0,2023148.0,2126151.0,2030341.0,2099994.6363636362
9.9375,2316501.0,1935805.0,2073746.0,2111507.0,1989902.0,2246868.0,2096813.0,2153568.0,2013743.0,2125192.0,2027520.0,2099196.8181818184
9.953125,2315641.0,1935103.0,2070262.0,2110278.0,1991524.0,2247288.0,2096961.0,2157268.0,2019304.0,2124100.0,2026187.0,2099446.909090909
9.96875,2314350.0,1934594.0,2066483.0,2108079.0,1992789.0,2247810.0,2096333.0,2160355.0,2009352.0,2123299.0,2024837.0,2098025.5454545454
9.984375,2313100.0,1934417.0,2063314.0,2106011.0,1991385.0,2248197.0,2094687.0,2164063.0,2001616.0,2121840.0,2022277.0,2096446.0909090908
10.0,2312405.0,1934255.0,2060422.0,2104396.0,1990759.0,2248933.0,2091809.0,2162309.0,2005436.0,2121037.0,2022288.0,2095822.6363636365
10.015625,2312095.0,1934034.0,2057735.0,2103055.0,1993200.0,2245605.0,2088421.0,2165817.0,1998240.0,2119526.0,2023188.0,2094628.7272727273
10.03125,2312051.0,1934155.0,2056382.0,2102657.0,1993465.0,2246029.0,2084755.0,2168778.0,1996889.0,2118413.0,2021560.0,2094103.0909090908
10.046875,2312454.0,1934364.0,2055576.0,2102504.0,1993405.0,2245514.0,2081644.0,2167221.0,1994746.0,2117585.0,2021562.0,2093325.0
10.0625,2312488.0,1934289.0,2054777.0,2102177.0,1992654.0,2249856.0,2079050.0,2166651.0,1995961.0,2116733.0,2023655.0,2093481.0
10.078125,2312929.0,1932600.0,2054139.0,2101778.0,1991257.0,2250651.0,2076478.0,2168019.0,1991838.0,2116102.0,2027680.0,2093042.8181818181
10.09375,2313012.0,1930033.0,2053773.0,2101041.0,1989058.0,2251365.0,2074380.0,2165060.0,1993376.0,2115566.0,2026338.0,2092091.0909090908
10.109375,2313379.0,1927927.0,2053774.0,2100711.0,1988340.0,2252321.0,2072209.0,2163592.0,1989708.0,2115566.0,2024510.0,2091094.2727272727
10.125,2313235.0,1926108.0,2054143.0,2100487.0,1988772.0,2252368.0,2070142.0,2163519.0,1990776.0,2115101.0,2025977.0,2090966.1818181819
10.140625,2309426.0,1925263.0,2054847.0,2100343.0,1990124.0,2251857.0,2068431.0,2166109.0,1989432.0,2114926.0,2025418.0,2090561.4545454546
10.15625,2300919.0,1924827.0,2055512.0,2100046.0,1992906.0,2251312.0,2066690.0,2167653.0,1990397.0,2114777.0,2024308.0,2089940.6363636365
10.171875,2293013.0,1924655.0,2056263.0,2100263.0,1996738.0,2250510.0,2065567.0,2169225.0,1988881.0,2113686.0,2023562.0,2089305.7272727273
10.1875,2286999.0,1924754.0,2057151.0,2100074.0,2000540.0,2249772.0,2064289.0,2169810.0,1988590.0,2111416.0,2020860.0,2088568.6363636365
10.203125,2283129.0,1924651.0,2058009.0,2100162.0,2004174.0,2249402.0,2062037.0,2170747.0,1988506.0,2109211.0,2018420.0,2088040.7272727273
10.21875,2277608.0,1924571.0,2059216.0,2100321.0,2007423.0,2248885.0,2061434.0,2172060.0,1987205.0,2107279.0,2017874.0,2087625.0909090908
10.234375,2273737.0,1925055.0,2060341.0,2100582.0,2009988.0,2248854.0,2059641.0,2173041.0,1982263.0,2105590.0,2017691.0,2086980.2727272727
10.25,2271148.0,1925080.0,2061285.0,2100460.0,2012276.0,2248294.0,2057085.0,2173857.0,1974377.0,2104416.0,2018502.0,2086070.9090909092
10.265625,2268890.0,1925637.0,2062672.0,2100733.0,2014634.0,2247856.0,2063133.0,2171103.0,1978047.0,2103405.0,2018812.0,2086811.0909090908
10.28125,2267035.0,1924401.0,2061141.0,2101175.0,2017243.0,2247872.0,2062421.0,2172820.0,1970676.0,2102232.0,2018560.0,2085961.4545454546
10.296875,2267131.0,1921768.0,2057058.0,2101591.0,2018028.0,2247267.0,2050338.0,2169400.0,1966732.0,2101030.0,2018562.0,2083536.8181818181
10.3125,2266907.0,1918855.0,2053631.0,2102142.0,2014704.0,2247670.0,2054005.0,2167813.0,1965151.0,2100259.0,2018623.0,2082705.4545454546
10.328125,2265236.0,1916370.0,2050827.0,2101222.0,2010205.0,2247543.0,2041917.0,2166183.0,1965705.0,2099545.0,2018861.0,2080328.5454545454
10.34375,2265806.0,1914764.0,2048290.0,2099219.0,2005881.0,2247717.0,2040242.0,2165319.0,1965437.0,2099165.0,2019127.0,2079178.8181818181
10.359375,2266357.0,1913672.0,2046399.0,2097202.0,2002506.0,2248104.0,2043979.0,2164457.0,1965695.0,2098912.0,2016880.0,2078560.2727272727
10.375,2266443.0,1913124.0,2045707.0,2095633.0,1999335.0,2248959.0,2038428.0,2163650.0,1966050.0,2098564.0,2014580.0,2077315.7272727273
10.390625,2267008.0,1912760.0,2045478.0,2094764.0,1998228.0,2249121.0,2046970.0,2162949.0,1967768.0,2098242.0,2012429.0,2077792.4545454546
10.40625,2266314.0,1912125.0,2044831.0,2094225.0,1998220.0,2250496.0,2036949.0,2162704.0,1970092.0,2098456.0,2009690.0,2076736.5454545454
10.421875,2265280.0,1911343.0,2044731.0,2094141.0,1998439.0,2253354.0,2035879.0,2162461.0,1973005.0,2098814.0,2007530.0,2076816.0909090908
10.4375,2264904.0,1910536.0,2044465.0,2094029.0,1998735.0,2256949.0,2034843.0,2162808.0,1976297.0,2098778.0,2006336.0,2077152.7272727273
10.453125,2265029.0,1909761.0,2045254.0,2093631.0,1999202.0,2260117.0,2034303.0,2162880.0,1980391.0,2098585.0,2005536.0,2077699.0
10.46875,2264381.0,1909415.0,2045970.0,2093148.0,2000040.0,2264218.0,2033317.0,2161852.0,1985243.0,2096991.0,2003927.0,2078045.6363636365
10.484375,2262238.0,1909126.0,2046777.0,2093000.0,2002520.0,2263091.0,2032950.0,2159674.0,1989950.0,2094852.0,2002110.0,2077844.3636363635
10.5,2258404.0,1906523.0,2047556.0,2092819.0,2001142.0,2264322.0,2033233.0,2156299.0,1993871.0,2093014.0,2001191.0,2077124.9090909092
10.515625,2253042.0,1903698.0,2048464.0,2092995.0,2004309.0,2263526.0,2033613.0,2153973.0,1993813.0,2091128.0,1999714.0,2076206.8181818181
10.53125,2250549.0,1900544.0,2049770.0,2093347.0,2006031.0,2262735.0,2033750.0,2151596.0,1991637.0,2089673.0,1998306.0,2075267.0909090908
10.546875,2252616.0,1898361.0,2050783.0,2093861.0,2007553.0,2261286.0,2032892.0,2150462.0,1990339.0,2089356.0,1997169.0,2074970.7272727273
10.5625,2257633.0,1896498.0,2052017.0,2094509.0,2009803.0,2259940.0,2030711.0,2149462.0,1989033.0,2090274.0,1996160.0,2075094.5454545454
10.578125,2262364.0,1895338.0,2053025.0,2095106.0,2012034.0,2259019.0,2029867.0,2149032.0,1988163.0,2091229.0,1995433.0,2075510.0
10.59375,2264806.0,1894540.0,2054429.0,2095919.0,2014046.0,2257694.0,2028546.0,2148736.0,1987508.0,2092605.0,1994044.0,2075715.7272727273
10.609375,2266611.0,1894020.0,2055774.0,2096321.0,2016449.0,2256812.0,2028524.0,2148327.0,1988321.0,2093996.0,1992192.0,2076122.4545454546
10.625,2267909.0,1893498.0,2055642.0,2097029.0,2017920.0,2256172.0,2027670.0,2148089.0,1988862.0,2095594.0,1989745.0,2076193.6363636365
10.640625,2270352.0,1892524.0,2052013.0,2097874.0,2015291.0,2255374.0,2026067.0,2148406.0,1988870.0,2097713.0,1987595.0,2075643.5454545454
10.65625,2268630.0,1891833.0,2048257.0,2099089.0,2011630.0,2254622.0,2025232.0,2149089.0,1989289.0,2100022.0,1985090.0,2074798.4545454546
10.671875,2269479.0,1892037.0,2045010.0,2100622.0,2008080.0,2253853.0,2024932.0,2147808.0,1990185.0,2102290.0,1983599.0,2074354.0909090908
10.6875,2271871.0,1892067.0,2042340.0,2102023.0,2005071.0,2253713.0,2025283.0,2145221.0,1992067.0,2104876.0,1982677.0,2074291.7272727273
10.703125,2276071.0,1890673.0,2040193.0,2103845.0,2003146.0,2253009.0,2025422.0,2142538.0,1994307.0,2106903.0,1980664.0,2074251.9090909092
10.71875,2275928.0,1884129.0,2039259.0,2104189.0,2002515.0,2253025.0,2025675.0,2139563.0,1996543.0,2109312.0,1977184.0,2073392.9090909092
10.734375,2274631.0,1880837.0,2038653.0,2102582.0,2001597.0,2252870.0,2026299.0,2137197.0,1998865.0,2112770.0,1976169.0,2072951.8181818181
10.75,2274973.0,1887671.0,2038146.0,2100493.0,2001036.0,2253383.0,2026350.0,2135826.0,2001169.0,2115236.0,1974763.0,2073549.6363636365
10.765625,2273862.0,1878337.0,2037600.0,2098816.0,2001583.0,2253193.0,2026746.0,2134739.0,2003792.0,2115360.0,1974820.0,2072622.5454545454
10.78125,2273745.0,1877084.0,2037950.0,2098135.0,2001583.0,2253247.0,2027494.0,2134419.0,2005694.0,2115450.0,1974014.0,2072619.5454545454
10.796875,2273517.0,1891808.0,2038241.0,2097214.0,2004015.0,2253689.0,2027763.0,2133829.0,2004895.0,2115376.0,1971288.0,2073785.0
10.8125,2272667.0,1893707.0,2038987.0,2096869.0,2007486.0,2253808.0,2026673.0,2133632.0,2000948.0,2116145.0,1971288.0,2073837.2727272727
10.828125,2272551.0,1905822.0,2039715.0,2096667.0,2011419.0,2254343.0,2024483.0,2133763.0,1997411.0,2116899.0,1970039.0,2074828.3636363635
10.84375,2272222.0,1890173.0,2040463.0,2096384.0,2017145.0,2254340.0,2021826.0,2134277.0,1995085.0,2119870.0,1972989.0,2074070.3636363635
10.859375,2272555.0,1961664.0,2041230.0,2096201.0,2024058.0,2254758.0,2018305.0,2134771.0,1993061.0,2120153.0,1977865.0,2081329.1818181819
10.875,2272427.0,1935614.0,2042203.0,2096173.0,2031065.0,2255264.0,2013550.0,2135033.0,1991351.0,2122998.0,1982652.0,2079848.1818181819
10.890625,2272432.0,1975344.0,2043273.0,2096148.0,2034305.0,2256454.0,2009059.0,2132997.0,1990905.0,2125028.0,1987409.0,2083941.2727272727
10.90625,2272247.0,1982224.0,2044357.0,2096447.0,2034735.0,2255953.0,2005893.0,2130427.0,1991010.0,2126255.0,1988687.0,2084385.0
10.921875,2272896.0,1986494.0,2045751.0,2096504.0,2033733.0,2256529.0,2003273.0,2127281.0,1990876.0,2126036.0,1988868.0,2084385.5454545454
10.9375,2273160.0,1989748.0,2046940.0,2096609.0,2033163.0,2255655.0,2000829.0,2124612.0,1990772.0,2125956.0,1986652.0,2084008.7272727273
10.953125,2273568.0,1992724.0,2045484.0,2096940.0,2034733.0,2254741.0,1998830.0,2122208.0,1991458.0,2125591.0,1984719.0,2083726.9090909092
10.96875,2273959.0,1995505.0,2041354.0,2096687.0,2034772.0,2253125.0,1997065.0,2121749.0,1993220.0,2125634.0,1992447.0,2084137.9090909092
10.984375,2272799.0,1998297.0,2037812.0,2096766.0,2031011.0,2252046.0,1995858.0,2121766.0,1994927.0,2125859.0,2017705.0,2085895.0909090908
11.0,2274166.0,2000239.0,2034906.0,2096450.0,2027043.0,2250436.0,1994401.0,2121903.0,1997638.0,2125713.0,2016675.0,2085415.4545454546
11.015625,2266234.0,2001250.0,2032477.0,2096123.0,2023667.0,2249407.0,1994214.0,2122345.0,2000454.0,2124659.0,1997531.0,2082578.2727272727
11.03125,2256909.0,2003278.0,2031089.0,2095994.0,2021667.0,2248332.0,1992807.0,2122705.0,2002946.0,2123933.0,1986278.0,2080539.8181818181
11.046875,2247137.0,2007076.0,2030420.0,2094744.0,2020230.0,2247146.0,1993327.0,2123357.0,2005919.0,2122454.0,1987783.0,2079963.0
11.0625,2242955.0,2011556.0,2030403.0,2093766.0,2020256.0,2246025.0,1992336.0,2124866.0,2009524.0,2120140.0,1991632.0,2080314.4545454546
11.078125,2245805.0,2014670.0,2029847.0,2093653.0,2020482.0,2244782.0,1992415.0,2125990.0,2011618.0,2117331.0,1995572.0,2081105.9090909092
11.09375,2252023.0,2011769.0,2029427.0,2093228.0,2020370.0,2244161.0,1992291.0,2126283.0,2010152.0,2114940.0,1999834.0,2081316.1818181819
11.109375,2265265.0,1998162.0,2029733.0,2091474.0,2020307.0,2243662.0,1991162.0,2124091.0,2006837.0,2112190.0,1999833.0,2080246.9090909092
11.125,2271345.0,2008140.0,2030209.0,2088659.0,2020930.0,2243090.0,1989616.0,2121004.0,2004368.0,2109343.0,1997725.0,2080402.6363636365
11.140625,2276385.0,2004109.0,2031068.0,2086303.0,2021699.0,2243074.0,1987628.0,2117399.0,2003304.0,2106895.0,1994915.0,2079343.5454545454
11.15625,2279026.0,1989227.0,2032100.0,2084778.0,2023275.0,2242691.0,1985293.0,2114865.0,2001846.0,2104898.0,1988386.0,2076944.0909090908
11.171875,2280233.0,1978958.0,2033103.0,2084222.0,2024619.0,2242891.0,1983511.0,2112734.0,2001271.0,2103425.0,1977442.0,2074764.4545454546
11.1875,2281383.0,1964528.0,2034243.0,2085277.0,2026052.0,2242655.0,1982020.0,2111915.0,2001776.0,2101662.0,1970836.0,2072940.6363636365
11.203125,2281598.0,1970639.0,2035556.0,2086602.0,2027913.0,2242480.0,1980986.0,2111272.0,2002262.0,2100089.0,1968483.0,2073443.6363636365
11.21875,2279451.0,1959567.0,2036694.0,2087918.0,2029508.0,2242659.0,1980622.0,2111316.0,2002552.0,2098734.0,1967380.0,2072400.0909090908
11.234375,2280295.0,1942969.0,2038018.0,2088958.0,2031737.0,2242848.0,1979952.0,2111118.0,2003187.0,2097566.0,1967211.0,2071259.9090909092
11.25,2285447.0,1938152.0,2039450.0,2090124.0,2033434.0,2243152.0,1979331.0,2111462.0,2004166.0,2096996.0,1966437.0,2071650.0909090908
11.265625,2285315.0,1954764.0,2038864.0,2092108.0,2035612.0,2243697.0,1979722.0,2112450.0,2006065.0,2096271.0,1966015.0,2073716.6363636365
11.28125,2282066.0,1948728.0,2034519.0,2093704.0,2037121.0,2244325.0,1979851.0,2113624.0,2008095.0,2095133.0,1965051.0,2072928.8181818181
11.296875,2278692.0,1934925.0,2030268.0,2095115.0,2034936.0,2244945.0,1980278.0,2114730.0,2010164.0,2094489.0,1965084.0,2071238.7272727273
11.3125,2273525.0,1932345.0,2026697.0,2096266.0,2030710.0,2245124.0,1981018.0,2114323.0,2012513.0,2093944.0,1965220.0,2070153.1818181819
11.328125,2269648.0,1930766.0,2023538.0,2097232.0,2027005.0,2245572.0,1981648.0,2112527.0,2015066.0,2093358.0,1965007.0,2069215.1818181819
11.34375,2268615.0,1928231.0,2021090.0,2097232.0,2023600.0,2245564.0,1982683.0,2109401.0,2017030.0,2092509.0,1965249.0,2068291.2727272727
11.359375,2270601.0,1923670.0,2019827.0,2098070.0,2020486.0,2244705.0,1983933.0,2106098.0,2018018.0,2089886.0,1965464.0,2067341.6363636365
11.375,2271287.0,1926734.0,2019180.0,2098916.0,2018797.0,2243213.0,1985385.0,2103243.0,2014833.0,2087740.0,1963884.0,2066655.6363636365
11.390625,2271030.0,1918026.0,2018549.0,2099899.0,2018314.0,2241935.0,1987289.0,2101074.0,2011634.0,2085452.0,1964820.0,2065274.7272727273
11.40625,2271060.0,1920774.0,2018048.0,2100566.0,2017806.0,2240189.0,1988883.0,2100454.0,2009386.0,2083409.0,1967033.0,2065237.0909090908
11.421875,2271755.0,1916306.0,2018016.0,2101228.0,2017369.0,2238949.0,1989800.0,2099917.0,2010493.0,2081880.0,1968542.0,2064932.2727272727
11.4375,2272869.0,1913703.0,2018522.0,2101957.0,2017564.0,2237348.0,1991079.0,2099765.0,2010592.0,2080776.0,1970080.0,2064932.2727272727
11.453125,2274533.0,1914847.0,2019217.0,2102560.0,2017913.0,2236462.0,1991238.0,2099302.0,2011609.0,2079740.0,1971615.0,2065366.9090909092
11.46875,2275499.0,1912204.0,2019952.0,2103354.0,2018791.0,2235085.0,1990872.0,2099685.0,2014921.0,2078495.0,1973419.0,2065661.5454545454
11.484375,2276737.0,1909974.0,2020954.0,2102806.0,2020221.0,2234155.0,1992715.0,2100347.0,2018852.0,2077394.0,1975515.0,2066333.6363636365
11.5,2277493.0,1906946.0,2022096.0,2100966.0,2021525.0,2233077.0,1991328.0,2100697.0,2021553.0,2077273.0,1976414.0,2066306.1818181819
11.515625,2278220.0,1904661.0,2023332.0,2098679.0,2022891.0,2232208.0,1996229.0,2101414.0,2023553.0,2078482.0,1978016.0,2067062.2727272727
11.53125,2277779.0,1902344.0,2024435.0,2096836.0,2024578.0,2231305.0,1994425.0,2101894.0,2027343.0,2079429.0,1979946.0,2067301.2727272727
11.546875,2277098.0,1900916.0,2025845.0,2095584.0,2025803.0,2231312.0,1997712.0,2100284.0,2030424.0,2081580.0,1982962.0,2068138.1818181819
11.5625,2276781.0,1897509.0,2027245.0,2094815.0,2026007.0,2230416.0,2001336.0,2097446.0,2032324.0,2084535.0,1983443.0,2068350.6363636365
11.578125,2275875.0,1892612.0,2028544.0,2094146.0,2026498.0,2230381.0,2002676.0,2094296.0,2034018.0,2087201.0,1982182.0,2068039.0
11.59375,2275448.0,1887797.0,2030115.0,2093617.0,2026341.0,2229831.0,2004096.0,2091716.0,2035084.0,2089804.0,1983939.0,2067980.7272727273
11.609375,2275141.0,1883907.0,2026926.0,2092751.0,2026971.0,2229954.0,2005546.0,2089308.0,2035783.0,2093079.0,1985144.0,2067682.7272727273
11.625,2275372.0,1881335.0,2030653.0,2092015.0,2026519.0,2230027.0,2006698.0,2087832.0,2036146.0,2095805.0,1985425.0,2067984.2727272727
11.640625,2275730.0,1879467.0,2018138.0,2090893.0,2023491.0,2230462.0,2008001.0,2087512.0,2034992.0,2097160.0,1985351.0,2066472.4545454546
11.65625,2275749.0,1878336.0,2011525.0,2090208.0,2020110.0,2230257.0,2009216.0,2087553.0,2029171.0,2098175.0,1984444.0,2064976.7272727273
11.671875,2275817.0,1877274.0,2009566.0,2089958.0,2016807.0,2230520.0,2009858.0,2087446.0,2021831.0,2099180.0,1982233.0,2063680.9090909092
11.6875,2276130.0,1876079.0,2014622.0,2089895.0,2014423.0,2230931.0,2010126.0,2087478.0,2014945.0,2100066.0,1980619.0,2063210.3636363635
11.703125,2276488.0,1874968.0,2022170.0,2089786.0,2012483.0,2231748.0,2009996.0,2087999.0,2009043.0,2101236.0,1980954.0,2063351.9090909092
11.71875,2277089.0,1874002.0,2008620.0,2089714.0,2011787.0,2232138.0,2010310.0,2088554.0,2003619.0,2102631.0,1981367.0,2061802.8181818181
11.734375,2277297.0,1873506.0,2007967.0,2089673.0,2011533.0,2232551.0,2010351.0,2089837.0,1999034.0,2103931.0,1980245.0,2061447.7272727273
11.75,2277944.0,1872964.0,2007340.0,2089618.0,2010800.0,2233106.0,2010340.0,2090559.0,1996354.0,2105558.0,1978527.0,2061191.8181818181
11.765625,2278652.0,1872139.0,2007006.0,2089597.0,2011479.0,2233507.0,2010561.0,2090535.0,1993988.0,2106977.0,1977360.0,2061072.8181818181
11.78125,2278230.0,1868649.0,2007460.0,2089826.0,2014165.0,2233036.0,2010800.0,2088190.0,1992865.0,2108608.0,1975471.0,2060663.6363636365
11.796875,2277560.0,1864789.0,2008249.0,2089732.0,2018606.0,2231271.0,2011285.0,2085087.0,1992311.0,2110460.0,1974341.0,2060335.5454545454
11.8125,2276262.0,1861343.0,2007663.0,2090031.0,2021134.0,2229985.0,2011317.0,2081816.0,1992931.0,2112220.0,1972862.0,2059778.5454545454
11.828125,2275371.0,1858728.0,2009511.0,2090252.0,2022560.0,2228389.0,2011862.0,2079051.0,1994643.0,2114052.0,1972819.0,2059748.9090909092
11.84375,2274195.0,1857063.0,2010579.0,2088965.0,2025308.0,2226377.0,2012624.0,2077394.0,1996416.0,2117705.0,1972700.0,2059938.7272727273
11.859375,2273765.0,1856592.0,2011643.0,2086363.0,2028422.0,2224837.0,2013374.0,2077254.0,1997775.0,2119719.0,1973469.0,2060292.0909090908
11.875,2273557.0,1856027.0,2012951.0,2082636.0,2031207.0,2223583.0,2014417.0,2076961.0,1999447.0,2121228.0,1975980.0,2060726.7272727273
11.890625,2273143.0,1855434.0,2014207.0,2079722.0,2034014.0,2222446.0,2014950.0,2076645.0,2001284.0,2123834.0,1976650.0,2061120.8181818181
11.90625,2272821.0,1854557.0,2015671.0,2077055.0,2037539.0,2220846.0,2015740.0,2076583.0,2002749.0,2126958.0,1975432.0,2061450.0909090908
11.921875,2272672.0,1854054.0,2017286.0,2074212.0,2040775.0,2219490.0,2017232.0,2077268.0,2004510.0,2128415.0,1976047.0,2061996.4545454546
11.9375,2272591.0,1853525.0,2018718.0,2070816.0,2045710.0,2218609.0,2018206.0,2078028.0,2006444.0,2128123.0,1977154.0,2062538.5454545454
11.953125,2272301.0,1853612.0,2020405.0,2067842.0,2050937.0,2217603.0,2019233.0,2080345.0,2007978.0,2124531.0,1977084.0,2062897.3636363635
11.96875,2272601.0,1852962.0,2020166.0,2065048.0,2052055.0,2216893.0,2019523.0,2079133.0,2005794.0,2120334.0,1977397.0,2061991.4545454546
11.984375,2272448.0,1850247.0,2016219.0,2062551.0,2049757.0,2216618.0,2019933.0,2081474.0,2002662.0,2116494.0,1977495.0,2060536.1818181819
12.0,2265718.0,1846515.0,2011791.0,2060580.0,2043725.0,2216243.0,2019695.0,2080068.0,2000744.0,2113268.0,1977428.0,2057797.7272727273
12.015625,2250835.0,1843347.0,2008355.0,2059084.0,2037063.0,2215764.0,2020015.0,2077179.0,1999209.0,2110544.0,1977836.0,2054475.5454545454
12.03125,2257988.0,1841086.0,2005400.0,2058596.0,2031797.0,2215915.0,2020265.0,2071799.0,1998255.0,2107759.0,1978036.0,2053354.1818181819
12.046875,2248072.0,1839998.0,2003215.0,2058177.0,2029278.0,2215566.0,2020644.0,2069931.0,1997649.0,2105769.0,1977542.0,2051440.0909090908
12.0625,2248493.0,1839493.0,2002311.0,2058121.0,2028286.0,2215755.0,2021377.0,2069694.0,1998519.0,2103612.0,1977789.0,2051222.7272727273
12.078125,2249294.0,1839135.0,2002014.0,2057848.0,2027240.0,2215871.0,2021827.0,2069973.0,1999478.0,2102293.0,1977841.0,2051164.9090909092
12.09375,2248145.0,1839132.0,2001600.0,2057682.0,2026273.0,2216168.0,2022466.0,2070407.0,2001090.0,2101043.0,1977430.0,2051039.6363636365
12.109375,2247655.0,1839087.0,2001403.0,2057527.0,2025505.0,2216321.0,2023260.0,2070852.0,2002941.0,2100337.0,1977965.0,2051168.4545454546
12.125,2270873.0,1839088.0,2001520.0,2057382.0,2024815.0,2216312.0,2024270.0,2071516.0,2004938.0,2100084.0,1978184.0,2053543.8181818181
12.140625,2244721.0,1839273.0,2001982.0,2057733.0,2024473.0,2216998.0,2025232.0,2072951.0,2008033.0,2099320.0,1977935.0,2051695.5454545454
12.15625,2246864.0,1839975.0,2003051.0,2057767.0,2024832.0,2217058.0,2026366.0,2074567.0,2011366.0,2098564.0,1978499.0,2052628.0909090908
12.171875,2238198.0,1840805.0,2003974.0,2058250.0,2025563.0,2217962.0,2028207.0,2076206.0,2014626.0,2098126.0,1979936.0,2052895.7272727273
12.1875,2242223.0,1839696.0,2005143.0,2058647.0,2026379.0,2218207.0,2029415.0,2078456.0,2017485.0,2097813.0,1980872.0,2054030.5454545454
12.203125,2232232.0,1836843.0,2006479.0,2057889.0,2026901.0,2218879.0,2030690.0,2078234.0,2020640.0,2096092.0,1981125.0,2053273.0909090908
12.21875,2235216.0,1834485.0,2007886.0,2055286.0,2027776.0,2219462.0,2031810.0,2075642.0,2023828.0,2093574.0,1981896.0,2053351.0
12.234375,2229977.0,1832832.0,2009309.0,2052274.0,2029046.0,2219269.0,2032479.0,2072587.0,2029995.0,2091344.0,1982876.0,2052908.0
12.25,2228295.0,1831835.0,2010743.0,2049978.0,2029773.0,2218516.0,2032948.0,2074451.0,2026806.0,2089188.0,1982357.0,2052262.7272727273
12.265625,2227082.0,1831762.0,2012411.0,2048522.0,2031241.0,2216616.0,2032904.0,2070244.0,2026631.0,2087267.0,1983308.0,2051635.2727272727
12.28125,2226050.0,1832548.0,2014315.0,2047781.0,2033237.0,2215160.0,2033148.0,2068531.0,2023687.0,2085626.0,1984172.0,2051295.9090909092
12.296875,2227845.0,1832779.0,2016157.0,2047538.0,2033417.0,2213681.0,2033852.0,2068371.0,2029631.0,2084407.0,1983793.0,2051951.9090909092
12.3125,2237951.0,1833250.0,2014989.0,2047108.0,2026720.0,2211671.0,2034181.0,2068843.0,2017495.0,2083022.0,1982621.0,2050713.7272727273
12.328125,2240773.0,1833694.0,2011082.0,2046688.0,2030629.0,2210137.0,2034519.0,2069683.0,2020362.0,2081614.0,1982257.0,2051039.8181818181
12.34375,2241501.0,1834138.0,2007461.0,2046420.0,2023439.0,2209044.0,2035219.0,2070464.0,2015698.0,2080645.0,1981204.0,2049566.6363636365
12.359375,2240168.0,1834957.0,2004940.0,2046444.0,2020206.0,2207554.0,2035222.0,2071626.0,2015028.0,2079736.0,1980770.0,2048786.4545454546
12.375,2235328.0,1836026.0,2003034.0,2046703.0,2018011.0,2206510.0,2035334.0,2072678.0,2015024.0,2079401.0,1980506.0,2048050.4545454546
12.390625,2227883.0,1836590.0,2001892.0,2047263.0,2017741.0,2204885.0,2034711.0,2077556.0,2033026.0,2078848.0,1980322.0,2049156.0909090908
12.40625,2223850.0,1835358.0,2001672.0,2048098.0,2017733.0,2203797.0,2034802.0,2077734.0,2027312.0,2078396.0,1980505.0,2048114.2727272727
12.421875,2220920.0,1832995.0,2001967.0,2049127.0,2017527.0,2202938.0,2034899.0,2078668.0,2030857.0,2078271.0,1980042.0,2048019.1818181819
12.4375,2220086.0,1831112.0,2001826.0,2049259.0,2017871.0,2202211.0,2035182.0,2074766.0,2019402.0,2077960.0,1979903.0,2046325.2727272727
12.453125,2220017.0,1829844.0,2002070.0,2049731.0,2018298.0,2201667.0,2035201.0,2071275.0,2024553.0,2078052.0,1979593.0,2046391.0
12.46875,2220481.0,1829217.0,2002624.0,2050187.0,2019066.0,2200885.0,2035782.0,2068714.0,2028071.0,2077947.0,1979619.0,2046599.3636363635
12.484375,2220579.0,1829498.0,2003658.0,2050452.0,2020699.0,2200912.0,2036088.0,2066606.0,2015187.0,2077654.0,1979786.0,2045556.2727272727
12.5,2220480.0,1830526.0,2004865.0,2051045.0,2022433.0,2200658.0,2035982.0,2065344.0,2017592.0,2076743.0,1980055.0,2045974.8181818181
12.515625,2220879.0,1831280.0,2006288.0,2051726.0,2024122.0,2200414.0,2036030.0,2075875.0,2022756.0,2076638.0,1980670.0,2047879.8181818181
12.53125,2223167.0,1831855.0,2007505.0,2052626.0,2025829.0,2200194.0,2035328.0,2065361.0,2020935.0,2078130.0,1980867.0,2047436.0909090908
12.546875,2226215.0,1832520.0,2009191.0,2053745.0,2028012.0,2200110.0,2034804.0,2065252.0,2016329.0,2079421.0,1980714.0,2047846.6363636365
12.5625,2227275.0,1833361.0,2010662.0,2053167.0,2029376.0,2200595.0,2034137.0,2065767.0,2025638.0,2081782.0,1979935.0,2049245.0
12.578125,2227662.0,1834340.0,2012274.0,2051071.0,2031304.0,2200388.0,2033994.0,2065795.0,2019768.0,2085211.0,1978685.0,2049135.6363636365
12.59375,2227311.0,1835509.0,2013775.0,2048991.0,2032249.0,2200801.0,2033855.0,2073999.0,2021542.0,2088789.0,1978308.0,2050466.2727272727
12.609375,2227577.0,1836409.0,2015691.0,2047712.0,2032789.0,2201085.0,2034267.0,2070921.0,2023530.0,2092022.0,1977576.0,2050870.8181818181
12.625,2226978.0,1835084.0,2017472.0,2047354.0,2034523.0,2201935.0,2034292.0,2066549.0,2014892.0,2096092.0,1977064.0,2050203.1818181819
12.640625,2226816.0,1833611.0,2016087.0,2047183.0,2034810.0,2203064.0,2035164.0,2068717.0,2030725.0,2099723.0,1977038.0,2052085.2727272727
12.65625,2226784.0,1832460.0,2012337.0,2047327.0,2032272.0,2203935.0,2034787.0,2071490.0,2019851.0,2102981.0,1976882.0,2051009.6363636365
12.671875,2227090.0,1832302.0,2009094.0,2047746.0,2031377.0,2204837.0,2036064.0,2067422.0,2020294.0,2105825.0,1976687.0,2050794.3636363635
12.6875,2227857.0,1833156.0,2006851.0,2047923.0,2031457.0,2204278.0,2035826.0,2070114.0,2021402.0,2108277.0,1976892.0,2051275.7272727273
12.703125,2228003.0,1833910.0,2004699.0,2048052.0,2030368.0,2205421.0,2036381.0,2067455.0,2023308.0,2110713.0,1976294.0,2051327.6363636365
12.71875,2228230.0,1834988.0,2003475.0,2048273.0,2030368.0,2208495.0,2036855.0,2064596.0,2019875.0,2114303.0,1975979.0,2051403.3636363635
12.734375,2228281.0,1836329.0,2003477.0,2048908.0,2029676.0,2212263.0,2037509.0,2062196.0,2019621.0,2117225.0,1976703.0,2052017.0909090908
12.75,2229102.0,1837148.0,2003626.0,2049718.0,2033521.0,2214567.0,2037647.0,2060857.0,2027418.0,2119542.0,1975364.0,2053500.9090909092
12.765625,2229271.0,1838511.0,2003688.0,2050473.0,2038041.0,2213936.0,2037302.0,2061042.0,2029736.0,2120831.0,1972535.0,2054124.1818181819
12.78125,2229980.0,1839752.0,2003801.0,2051691.0,2041484.0,2209269.0,2036660.0,2060688.0,2032058.0,2120635.0,1972635.0,2054423.0
12.796875,2230284.0,1842058.0,2004536.0,2053039.0,2042658.0,2212196.0,2035417.0,2061448.0,2025440.0,2121155.0,1977085.0,2055028.7272727273
12.8125,2230737.0,1844037.0,2005428.0,2054616.0,2042445.0,2203314.0,2036139.0,2062390.0,2035000.0,2119586.0,1979126.0,2055710.7272727273
12.828125,2230555.0,1847433.0,2006818.0,2055817.0,2041876.0,2206257.0,2035135.0,2063870.0,2037805.0,2121567.0,1976269.0,2056672.9090909092
12.84375,2229235.0,1849742.0,2008237.0,2057242.0,2041602.0,2201113.0,2034960.0,2064955.0,2039518.0,2124222.0,1974948.0,2056888.5454545454
12.859375,2228265.0,1850580.0,2009652.0,2058595.0,2041834.0,2197519.0,2035033.0,2066577.0,2037877.0,2126347.0,1975314.0,2057053.9090909092
12.875,2227262.0,1850626.0,2011004.0,2059912.0,2043103.0,2199254.0,2035580.0,2068167.0,2034073.0,2127012.0,1975650.0,2057422.0909090908
12.890625,2226737.0,1849734.0,2012794.0,2061273.0,2043774.0,2195162.0,2036451.0,2068217.0,2030199.0,2127371.0,1975475.0,2057017.0
12.90625,2225942.0,1848718.0,2014395.0,2062624.0,2044747.0,2196086.0,2037020.0,2066298.0,2028511.0,2127379.0,1977935.0,2057241.3636363635
12.921875,2225957.0,1848222.0,2016222.0,2064313.0,2045943.0,2194694.0,2038206.0,2063827.0,2027519.0,2127006.0,1978583.0,2057317.4545454546
12.9375,2226114.0,1847495.0,2017875.0,2065310.0,2047436.0,2193782.0,2035373.0,2061050.0,2027977.0,2127851.0,1977551.0,2057074.0
12.953125,2225937.0,1846703.0,2019750.0,2064834.0,2049057.0,2193688.0,2039348.0,2061787.0,2032101.0,2127279.0,1977829.0,2058028.4545454546
12.96875,2226123.0,1846796.0,2021604.0,2063471.0,2050617.0,2193289.0,2041126.0,2059149.0,2028402.0,2126556.0,1979414.0,2057867.9090909092
12.984375,2226146.0,1847189.0,2022317.0,2062266.0,2052211.0,2193406.0,2043369.0,2057991.0,2029113.0,2124549.0,1980331.0,2058080.7272727273
13.0,2226543.0,1848306.0,2019627.0,2061824.0,2050023.0,2193518.0,2049869.0,2058607.0,2032842.0,2122032.0,1981900.0,2058644.6363636365
13.015625,2225885.0,1849775.0,2016147.0,2061890.0,2045658.0,2193577.0,2069405.0,2057977.0,2029546.0,2120776.0,1983824.0,2059496.3636363635
13.03125,2226504.0,1850176.0,2013576.0,2062031.0,2041653.0,2194147.0,2060977.0,2059883.0,2035110.0,2119176.0,1984894.0,2058920.6363636365
13.046875,2226476.0,1848850.0,2011617.0,2062564.0,2038478.0,2193733.0,2075666.0,2059291.0,2038107.0,2117119.0,1987225.0,2059920.5454545454
13.0625,2226957.0,1847248.0,2009939.0,2062914.0,2036224.0,2194422.0,2081340.0,2060602.0,2030872.0,2113924.0,1988877.0,2059392.6363636365
13.078125,2224225.0,1846589.0,2009352.0,2062447.0,2034929.0,2194702.0,2085127.0,2061871.0,2041198.0,2109774.0,1990305.0,2060047.1818181819
13.09375,2216625.0,1846480.0,2009356.0,2060884.0,2034439.0,2195539.0,2086442.0,2063483.0,2043718.0,2106267.0,1991518.0,2059522.8181818181
13.109375,2209344.0,1847143.0,2009719.0,2059734.0,2033883.0,2195551.0,2087043.0,2065158.0,2046203.0,2103012.0,1991626.0,2058946.9090909092
13.125,2208020.0,1848328.0,2009843.0,2059190.0,2033586.0,2195551.0,2087271.0,2067676.0,2048448.0,2100231.0,1991352.0,2059045.0909090908
13.140625,2214501.0,1849987.0,2010321.0,2059339.0,2033341.0,2195694.0,2087685.0,2066863.0,2050674.0,2097858.0,1990555.0,2059710.7272727273
13.15625,2223135.0,1851511.0,2011200.0,2059768.0,2033773.0,2194042.0,2087073.0,2066617.0,2051290.0,2095301.0,1990852.0,2060414.7272727273
13.171875,2230786.0,1853082.0,2012227.0,2060046.0,2034522.0,2192534.0,2086319.0,2064396.0,2048477.0,2092604.0,1990720.0,2060519.3636363635
13.1875,2237738.0,1854304.0,2013590.0,2060705.0,2035872.0,2190626.0,2085779.0,2061886.0,2045449.0,2090001.0,1990571.0,2060592.8181818181
13.203125,2243698.0,1856125.0,2015064.0,2061087.0,2037002.0,2189103.0,2084583.0,2060026.0,2043408.0,2087722.0,1991002.0,2060801.8181818181
13.21875,2247095.0,1857912.0,2016711.0,2061777.0,2038499.0,2187106.0,2084094.0,2058692.0,2041996.0,2085528.0,1991218.0,2060966.1818181819
13.234375,2251746.0,1859523.0,2018122.0,2062526.0,2040183.0,2185643.0,2083874.0,2058742.0,2040293.0,2083527.0,1990871.0,2061368.1818181819
13.25,2252615.0,1859411.0,2019844.0,2063502.0,2041875.0,2184222.0,2083708.0,2059105.0,2040744.0,2082350.0,1990580.0,2061632.3636363635
13.265625,2254531.0,1859051.0,2021563.0,2064234.0,2043158.0,2182897.0,2082969.0,2059800.0,2040818.0,2080859.0,1990580.0,2061860.0
13.28125,2256714.0,1858945.0,2023414.0,2064884.0,2044960.0,2181560.0,2082219.0,2060479.0,2041518.0,2079366.0,1990581.0,2062240.0
13.296875,2259155.0,1859534.0,2025316.0,2065455.0,2047111.0,2180335.0,2080343.0,2061490.0,2040813.0,2078194.0,1991217.0,2062633.0
13.3125,2260822.0,1861008.0,2027202.0,2066332.0,2048689.0,2179651.0,2077907.0,2062846.0,2040470.0,2077116.0,1991161.0,2063018.5454545454
13.328125,2261876.0,1863052.0,2027773.0,2067757.0,2048336.0,2178735.0,2075224.0,2064031.0,2042604.0,2075884.0,1990951.0,2063293.0
13.34375,2261939.0,1864464.0,2025679.0,2068831.0,2044544.0,2178629.0,2072208.0,2065597.0,2043963.0,2074203.0,1990454.0,2062773.7272727273
13.359375,2262486.0,1866201.0,2021830.0,2068421.0,2040654.0,2178029.0,2069595.0,2067288.0,2045808.0,2070833.0,1990066.0,2061928.2727272727
13.375,2262492.0,1867186.0,2023471.0,2067312.0,2037222.0,2178030.0,2067220.0,2068305.0,2047662.0,2067389.0,1988550.0,2061349.0
13.390625,2260290.0,1868155.0,2020627.0,2066368.0,2035033.0,2177908.0,2064951.0,2067668.0,2051126.0,2064453.0,1987368.0,2060358.8181818181
13.40625,2256239.0,1869395.0,2019915.0,2065776.0,2033176.0,2178150.0,2063053.0,2064989.0,2049358.0,2061302.0,1986221.0,2058870.3636363635
13.421875,2250085.0,1870228.0,2020033.0,2065820.0,2032994.0,2177801.0,2060926.0,2062328.0,2052916.0,2058884.0,1985486.0,2057954.6363636365
13.4375,2244016.0,1871318.0,2020699.0,2066475.0,2032902.0,2178342.0,2059212.0,2058730.0,2055002.0,2056851.0,1985070.0,2057147.0
13.453125,2238815.0,1871953.0,2021393.0,2067012.0,2030841.0,2178518.0,2057628.0,2053678.0,2056254.0,2054433.0,1984906.0,2055948.2727272727
13.46875,2236539.0,1870407.0,2022125.0,2067078.0,2029809.0,2179102.0,2056291.0,2048986.0,2054060.0,2053185.0,1985052.0,2054784.9090909092
13.484375,2235386.0,1868556.0,2023017.0,2067531.0,2027407.0,2179674.0,2055326.0,2049213.0,2049905.0,2051366.0,1984607.0,2053817.0909090908
13.5,2238417.0,1867053.0,2024238.0,2067377.0,2026999.0,2180448.0,2054665.0,2048055.0,2046864.0,2050333.0,1983979.0,2053493.4545454546
13.515625,2241439.0,1866671.0,2025691.0,2067349.0,2027677.0,2181281.0,2053640.0,2047929.0,2044653.0,2050800.0,1983464.0,2053690.3636363635
13.53125,2243817.0,1867047.0,2027053.0,2067675.0,2031221.0,2182143.0,2053643.0,2047485.0,2042819.0,2050950.0,1983885.0,2054339.8181818181
13.546875,2245988.0,1867789.0,2028620.0,2067860.0,2037304.0,2182893.0,2053334.0,2049168.0,2041389.0,2052277.0,1983823.0,2055495.0
13.5625,2247049.0,1868476.0,2030103.0,2068484.0,2041404.0,2183902.0,2052921.0,2054397.0,2041306.0,2054209.0,1983961.0,2056928.3636363635
13.578125,2248367.0,1868703.0,2031724.0,2069019.0,2048892.0,2183733.0,2051680.0,2060777.0,2041547.0,2054967.0,1983694.0,2058463.9090909092
13.59375,2249292.0,1869078.0,2033266.0,2069652.0,2059214.0,2183063.0,2050336.0,2072698.0,2041981.0,2055231.0,1982304.0,2060555.9090909092
13.609375,2250093.0,1869511.0,2035070.0,2069962.0,2067229.0,2181998.0,2048690.0,2075394.0,2041949.0,2055054.0,1979806.0,2061341.4545454546
13.625,2249899.0,1870411.0,2036921.0,2070340.0,2071002.0,2181380.0,2047243.0,2073157.0,2042605.0,2054535.0,1976923.0,2061310.5454545454
13.640625,2248598.0,1871507.0,2038740.0,2070850.0,2070743.0,2181698.0,2045710.0,2071685.0,2043131.0,2053033.0,1974341.0,2060912.3636363635
13.65625,2247571.0,1872352.0,2040437.0,2071310.0,2063269.0,2181668.0,2045381.0,2068558.0,2043957.0,2050054.0,1972706.0,2059751.1818181819
13.671875,2247005.0,1872831.0,2042383.0,2071705.0,2068549.0,2181752.0,2044925.0,2068008.0,2045049.0,2048087.0,1970599.0,2060081.1818181819
13.6875,2246988.0,1871618.0,2043276.0,2072277.0,2059833.0,2181410.0,2043850.0,2068486.0,2046101.0,2045514.0,1969209.0,2058960.1818181819
13.703125,2246499.0,1870494.0,2041699.0,2072622.0,2057320.0,2181217.0,2043077.0,2069898.0,2047379.0,2042986.0,1968911.0,2058372.9090909092
