Timestamp,Participant_11,Participant_12,Participant_13,Participant_14,Participant_15,Participant_16,Participant_17,Participant_18,Participant_22,Participant_23,Participant_24,Average
0.0,93.48,0.77,36.17,-37.92,53.71,169.08,-124.33,-10.58,34.36,-11.55,-42.34,14.622727272727273
0.015625,97.35,-3.13,37.99,-42.3,62.05,170.14,-129.77,-11.46,35.82,-11.43,-44.09,14.651818181818179
0.03125,100.94,-7.18,39.07,-45.15,68.74,167.21,-134.48,-12.0,35.32,-11.09,-46.67,14.064545454545453
0.046875,102.71,-11.83,39.21,-45.76,73.79,160.57,-136.57,-12.26,33.11,-10.34,-50.15,12.952727272727275
0.0625,100.93,-17.72,38.1,-43.54,77.35,150.89,-135.11,-12.48,29.86,-9.31,-54.42,11.32272727272727
0.078125,94.4,-25.43,35.69,-38.19,79.54,139.53,-130.74,-13.02,26.44,-8.42,-59.25,9.140909090909089
0.09375,82.95,-35.18,32.21,-29.91,80.53,128.38,-125.53,-14.31,23.75,-8.08,-64.41,6.399999999999998
0.109375,67.36,-46.58,28.2,-19.44,80.34,119.36,-122.24,-16.64,22.69,-8.49,-69.75,3.1645454545454537
0.125,49.13,-58.53,24.32,-7.97,78.97,113.87,-123.23,-19.94,24.14,-9.42,-75.09,-0.3409090909090922
0.140625,30.31,-69.36,21.16,3.2,76.37,112.49,-129.58,-23.65,28.99,-10.31,-80.17,-3.6863636363636374
0.15625,13.18,-77.31,18.97,12.92,72.56,115.01,-140.74,-26.82,37.73,-10.55,-84.6,-6.331818181818182
0.171875,0.04,-81.08,17.69,20.52,67.78,120.57,-154.89,-28.46,50.07,-9.76,-87.96,-7.77090909090909
0.1875,-7.41,-80.28,16.93,25.83,62.44,127.83,-169.42,-27.94,64.39,-8.05,-90.07,-7.795454545454546
0.203125,-8.65,-75.63,16.27,29.06,57.07,135.17,-181.38,-25.36,77.77,-5.9,-91.19,-6.615454545454549
0.21875,-4.75,-68.62,15.41,30.55,52.2,141.07,-187.82,-21.62,86.63,-3.92,-91.98,-4.804545454545457
0.234375,1.86,-60.93,14.24,30.59,48.13,144.6,-185.89,-18.16,87.89,-2.55,-93.27,-3.0445454545454536
0.25,8.2,-53.8,12.83,29.29,44.93,145.79,-173.5,-16.48,80.04,-1.92,-95.62,-1.8399999999999996
0.265625,11.97,-47.7,11.21,26.67,42.49,145.54,-149.97,-17.66,63.77,-1.86,-98.91,-1.3136363636363626
0.28125,12.48,-42.44,9.34,22.89,40.56,145.1,-116.51,-21.93,41.54,-2.13,-102.25,-1.2136363636363632
0.296875,10.7,-37.58,7.08,18.25,39.0,145.28,-76.07,-28.62,16.61,-2.57,-104.29,-1.1099999999999994
0.3125,8.49,-33.02,4.22,13.32,37.72,145.92,-32.4,-36.35,-8.09,-3.09,-103.73,-0.6372727272727303
0.328125,7.51,-29.18,0.64,8.72,36.69,146.05,11.43,-43.48,-30.6,-3.68,-99.82,0.3890909090909092
0.34375,8.38,-27.07,-3.69,4.94,35.88,144.58,53.94,-48.65,-49.94,-4.24,-92.76,1.942727272727273
0.359375,10.52,-27.95,-8.7,2.18,35.2,141.1,95.15,-51.18,-65.68,-4.71,-83.64,3.8445454545454565
0.375,12.76,-32.96,-14.27,0.31,34.58,136.26,135.38,-51.14,-77.65,-5.0,-74.37,5.809090909090907
0.390625,13.77,-42.67,-20.22,-1.06,34.11,131.41,173.63,-49.18,-85.91,-5.11,-67.33,7.40363636363636
0.40625,12.53,-56.87,-26.28,-2.34,33.98,127.81,206.7,-46.11,-90.95,-5.14,-64.67,8.060000000000004
0.421875,8.27,-74.52,-32.1,-3.84,34.46,125.93,229.95,-42.64,-93.72,-5.2,-67.53,7.187272727272733
0.4375,0.55,-93.72,-37.29,-5.62,35.7,125.22,239.27,-39.23,-95.43,-5.42,-75.15,4.443636363636367
0.453125,-10.49,-111.8,-41.56,-7.56,37.56,124.63,233.31,-36.19,-96.9,-5.86,-84.46,0.06181818181818244
0.46875,-23.9,-125.67,-44.83,-9.52,39.63,123.21,214.6,-33.85,-98.24,-6.48,-90.72,-5.069999999999996
0.484375,-37.9,-132.55,-47.34,-11.5,41.34,120.59,188.64,-32.44,-98.78,-7.22,-89.05,-9.655454545454548
0.5,-50.38,-131.01,-49.59,-13.67,42.19,116.82,161.73,-32.11,-97.52,-8.02,-76.4,-12.54181818181818
0.515625,-59.68,-121.5,-52.28,-16.43,41.97,111.95,138.32,-32.66,-93.73,-8.7,-53.06,-13.254545454545452
0.53125,-65.39,-106.22,-56.07,-20.25,40.8,105.73,119.69,-33.49,-87.38,-9.03,-22.83,-12.22181818181818
0.546875,-68.63,-88.15,-61.31,-25.49,39.04,97.78,104.09,-33.86,-79.15,-8.84,8.3,-10.565454545454545
0.5625,-71.6,-69.76,-67.79,-32.38,37.05,88.13,88.39,-33.18,-70.16,-8.04,34.29,-9.550000000000004
0.578125,-76.62,-51.96,-74.61,-40.9,35.0,77.68,69.93,-31.23,-61.54,-6.8,51.06,-9.99909090909091
0.59375,-85.04,-34.15,-80.23,-50.87,32.83,68.02,47.66,-28.23,-54.11,-5.49,57.39,-12.020000000000003
0.609375,-96.8,-15.04,-82.86,-61.9,30.27,60.62,22.19,-24.52,-48.29,-4.51,54.61,-15.111818181818183
0.625,-110.61,5.87,-81.05,-73.36,27.1,55.73,-4.97,-20.31,-44.11,-4.03,45.38,-18.578181818181818
0.640625,-124.57,27.42,-74.25,-84.48,23.19,51.94,-31.94,-15.58,-41.36,-3.9,32.43,-21.918181818181814
0.65625,-136.84,46.85,-63.08,-94.57,18.62,46.7,-56.69,-10.23,-39.62,-3.7,17.77,-24.980909090909087
0.671875,-146.04,60.84,-49.26,-103.34,13.54,37.6,-76.95,-4.4,-38.43,-3.08,2.55,-27.906363636363633
0.6875,-151.4,66.98,-34.96,-111.15,8.17,23.82,-90.23,1.37,-37.33,-1.95,-12.73,-30.85545454545455
0.703125,-152.83,64.86,-22.16,-119.02,2.84,6.66,-94.55,6.19,-35.95,-0.66,-27.79,-33.855454545454556
0.71875,-150.74,56.27,-12.08,-128.1,-1.98,-10.96,-89.71,9.16,-34.13,0.17,-42.42,-36.77454545454545
0.734375,-145.71,44.57,-4.96,-139.05,-5.65,-25.92,-77.92,9.8,-31.92,0.0,-56.32,-39.370909090909095
0.75,-138.35,33.37,-0.32,-151.58,-7.36,-36.24,-63.65,8.27,-29.55,-1.27,-69.13,-41.43727272727273
0.765625,-129.44,25.52,2.58,-164.48,-6.47,-41.75,-52.18,5.39,-27.34,-3.15,-80.48,-42.89090909090908
0.78125,-119.98,22.37,4.33,-176.18,-2.67,-43.75,-47.63,2.23,-25.64,-4.84,-90.13,-43.808181818181815
0.796875,-111.16,23.54,5.13,-185.53,3.67,-44.08,-51.17,-0.27,-24.76,-5.54,-98.19,-44.39636363636364
0.8125,-104.17,27.13,4.83,-192.34,11.65,-44.27,-60.69,-1.82,-24.91,-4.95,-105.17,-44.973636363636366
0.828125,-99.81,30.47,3.18,-197.32,20.01,-45.02,-71.56,-2.96,-26.29,-3.41,-111.97,-45.88
0.84375,-98.48,31.13,0.16,-201.63,27.55,-46.3,-78.39,-4.99,-28.94,-1.67,-119.51,-47.370000000000005
0.859375,-99.53,27.84,-3.87,-206.36,33.43,-47.73,-76.8,-9.56,-32.81,-0.51,-128.36,-49.47818181818182
0.875,-101.02,20.81,-8.15,-212.11,37.27,-48.86,-64.57,-18.08,-37.62,-0.45,-138.29,-51.91545454545455
0.890625,-100.18,11.64,-11.74,-218.97,39.1,-49.35,-42.15,-31.17,-42.88,-1.5,-148.13,-54.12090909090909
0.90625,-94.83,2.59,-13.83,-226.45,39.19,-48.87,-12.33,-48.21,-47.92,-3.28,-155.89,-55.4390909090909
0.921875,-84.42,-4.19,-14.1,-233.65,37.94,-47.02,20.67,-67.36,-52.05,-5.3,-159.19,-55.33363636363637
0.9375,-70.28,-7.29,-12.77,-239.2,35.79,-43.29,52.58,-85.91,-54.87,-7.12,-155.81,-53.470000000000006
0.953125,-54.93,-6.2,-10.52,-241.47,33.23,-37.24,80.3,-100.84,-56.34,-8.55,-144.21,-49.70636363636363
0.96875,-40.98,-0.86,-8.1,-238.9,30.79,-28.67,102.8,-109.39,-56.93,-9.5,-124.08,-43.983636363636364
0.984375,-30.78,8.72,-6.08,-230.54,28.9,-17.74,121.02,-109.53,-57.38,-9.91,-96.49,-36.34636363636364
1.0,-25.0,22.47,-4.52,-216.3,27.77,-5.02,137.1,-100.27,-58.25,-9.63,-63.8,-26.859090909090913
1.015625,-21.85,39.7,-3.02,-196.81,27.43,8.57,153.09,-81.78,-59.52,-8.33,-29.1,-15.601818181818185
1.03125,-17.66,58.54,-0.95,-172.99,27.73,21.87,169.86,-55.44,-60.38,-5.63,4.58,-2.77
1.046875,-8.75,76.13,2.39,-145.45,28.63,33.63,186.77,-23.72,-59.39,-1.01,35.12,11.304545454545455
1.0625,6.97,89.83,7.56,-114.32,30.33,42.74,202.3,10.27,-54.93,6.01,61.88,26.24
1.078125,29.54,99.17,14.97,-79.44,33.29,48.5,215.37,43.52,-45.84,15.8,85.67,41.86818181818182
1.09375,57.3,107.18,24.94,-40.93,38.09,50.74,226.09,73.91,-31.71,28.45,108.2,58.38727272727274
1.109375,87.57,120.14,37.75,0.5,45.07,49.87,235.74,100.96,-13.03,43.5,131.37,76.31272727272727
1.125,116.21,145.37,53.83,43.55,54.09,46.79,245.71,125.82,9.12,59.89,156.54,96.08363636363634
1.140625,139.86,187.74,73.72,86.84,64.41,42.56,256.4,150.67,33.69,76.25,184.43,117.87000000000002
1.15625,157.72,246.98,97.89,129.51,74.81,38.19,267.15,177.44,60.05,91.2,215.3,141.47636363636363
1.171875,171.85,317.14,126.25,171.51,83.98,34.48,277.09,206.66,88.19,103.78,249.5,166.40272727272728
1.1875,185.2,388.51,157.68,213.61,90.85,31.91,286.46,236.82,118.3,113.79,287.48,191.87363636363634
1.203125,199.44,450.89,189.91,257.18,94.91,30.63,297.06,264.86,150.24,121.69,329.6,216.94636363636363
1.21875,214.03,496.5,219.99,303.86,96.25,30.31,311.38,287.65,182.83,128.29,375.44,240.5936363636364
1.234375,226.25,521.15,245.26,355.09,95.44,30.26,330.79,303.39,213.5,134.28,423.24,261.6954545454546
1.25,231.78,523.31,264.32,411.36,93.24,29.39,354.17,312.46,238.47,139.86,469.75,278.91909090909087
1.265625,224.33,502.86,277.52,471.39,90.24,26.61,377.67,316.8,253.58,144.47,510.66,290.5572727272727
1.28125,198.72,460.89,286.38,531.47,86.54,21.13,396.13,318.44,255.15,146.69,541.5,294.8218181818182
1.296875,153.59,401.05,292.22,585.75,81.44,12.8,405.18,318.1,240.91,144.32,558.61,290.3609090909091
1.3125,92.61,330.98,294.98,627.42,73.48,2.1,402.95,314.87,210.51,134.73,560.01,276.7854545454545
1.328125,22.66,261.99,292.5,650.85,60.72,-10.23,390.26,306.88,165.79,115.6,545.71,254.79363636363635
1.34375,-48.26,205.9,281.3,653.52,41.3,-23.75,369.74,292.74,110.83,85.8,517.6,226.06545454545451
1.359375,-112.06,170.06,258.03,636.95,14.2,-38.76,344.25,272.13,51.64,46.31,478.92,192.8790909090909
1.375,-161.56,153.58,220.89,606.06,-20.25,-56.36,315.88,245.36,-4.54,0.65,433.43,157.55818181818182
1.390625,-181.94,147.06,170.02,567.35,-60.21,-78.08,285.81,212.44,-50.7,-45.68,384.74,122.80090909090909
1.40625,-163.76,136.84,107.12,526.71,-102.86,-105.39,254.85,172.52,-81.68,-86.46,335.77,90.33272727272728
1.421875,-114.41,111.55,34.79,488.06,-145.16,-139.46,223.77,124.61,-95.63,-116.55,288.56,60.01181818181818
1.4375,-56.84,67.52,-43.28,452.94,-184.74,-181.41,193.33,69.27,-94.56,-133.31,244.37,30.29909090909091
1.453125,-13.29,10.07,-121.64,421.18,-220.29,-232.34,163.81,9.93,-83.3,-137.19,203.88,0.07454545454545909
1.46875,6.21,-49.82,-192.53,391.82,-251.42,-292.98,134.87,-47.27,-67.71,-131.14,167.3,-30.242727272727265
1.484375,3.88,-101.32,-246.78,363.73,-278.26,-362.39,105.52,-95.46,-52.59,-119.27,134.35,-58.962727272727264
1.5,-10.79,-138.5,-276.44,335.8,-300.87,-436.65,74.45,-129.77,-40.47,-105.4,104.15,-84.04454545454547
1.515625,-26.64,-161.68,-277.83,306.85,-319.06,-508.44,40.29,-149.34,-31.76,-91.98,75.29,-104.02727272727272
1.53125,-35.3,-175.23,-253.68,275.73,-332.46,-568.31,1.82,-157.22,-25.66,-79.99,45.95,-118.57727272727274
1.546875,-37.18,-183.83,-212.52,241.42,-340.8,-607.39,-41.76,-158.45,-21.3,-69.39,14.23,-128.81545454545457
1.5625,-34.83,-189.66,-165.66,203.47,-343.88,-620.35,-90.24,-157.61,-18.36,-59.94,-21.31,-136.21545454545455
1.578125,-30.49,-192.12,-122.91,162.19,-341.62,-606.96,-141.83,-157.04,-16.9,-51.61,-61.23,-141.86545454545455
1.59375,-24.37,-189.46,-89.73,118.57,-333.7,-571.22,-192.94,-156.83,-16.85,-44.55,-104.7,-145.98
1.609375,-15.7,-181.04,-66.59,74.06,-319.56,-518.87,-238.71,-155.94,-17.68,-38.79,-149.28,-148.0090909090909
1.625,-4.19,-168.35,-50.96,29.96,-298.71,-454.78,-274.26,-153.58,-18.55,-33.97,-191.13,-147.1381818181818
1.640625,9.4,-154.54,-39.98,-13.08,-271.14,-382.21,-296.3,-149.9,-18.74,-29.24,-225.93,-142.87818181818182
1.65625,23.5,-143.03,-32.24,-55.44,-237.87,-304.3,-304.2,-145.86,-18.09,-23.74,-250.1,-135.5790909090909
1.671875,36.1,-135.92,-27.94,-98.26,-200.95,-226.32,-300.08,-142.51,-16.88,-17.13,-262.12,-126.54636363636365
1.6875,44.21,-133.23,-27.52,-142.77,-163.1,-156.67,-287.79,-140.36,-15.68,-9.89,-263.05,-117.80454545454545
1.703125,46.27,-133.25,-30.39,-189.06,-126.95,-105.11,-271.38,-139.16,-14.9,-3.2,-256.09,-111.20181818181817
1.71875,42.98,-133.65,-34.49,-235.28,-94.43,-78.86,-253.94,-137.92,-14.55,1.61,-245.32,-107.62272727272729
1.734375,37.47,-132.57,-37.2,-277.63,-66.39,-78.82,-237.05,-135.43,-14.37,3.79,-234.17,-106.57909090909092
1.75,33.2,-129.25,-36.54,-311.37,-42.73,-98.06,-221.17,-130.6,-14.11,3.63,-224.47,-106.49727272727273
1.765625,32.14,-124.02,-32.13,-332.61,-22.92,-124.3,-206.37,-122.98,-13.76,2.33,-216.47,-105.55363636363636
1.78125,34.25,-117.67,-25.23,-339.89,-6.42,-145.04,-192.86,-112.84,-13.61,1.55,-209.51,-102.47909090909091
1.796875,38.13,-110.7,-17.95,-334.75,7.08,-152.33,-181.03,-101.08,-14.01,2.6,-202.86,-96.9909090909091
1.8125,41.86,-102.88,-12.18,-321.03,17.76,-145.31,-171.13,-88.81,-15.07,5.97,-196.15,-89.72454545454546
1.828125,43.2,-93.31,-8.68,-303.32,25.94,-129.12,-162.88,-76.93,-16.49,11.16,-189.19,-81.78363636363638
1.84375,41.12,-80.9,-7.04,-285.15,32.25,-111.28,-155.42,-65.76,-17.72,17.01,-181.38,-74.02454545454546
1.859375,36.39,-65.02,-6.06,-268.23,37.59,-97.91,-147.67,-55.04,-18.2,22.32,-171.56,-66.6718181818182
1.875,31.42,-45.92,-4.56,-252.52,42.79,-92.1,-138.83,-44.28,-17.78,26.18,-158.32,-59.447272727272725
1.890625,28.73,-24.84,-2.07,-237.22,48.33,-94.63,-128.72,-33.19,-16.85,28.29,-140.83,-52.09090909090909
1.90625,29.57,-3.54,1.03,-221.77,54.17,-105.72,-117.94,-22.08,-16.32,28.85,-119.63,-44.852727272727265
1.921875,33.55,16.24,3.73,-206.27,59.88,-125.89,-107.61,-11.83,-17.27,28.29,-96.93,-38.555454545454545
1.9375,39.1,33.35,5.04,-191.27,64.94,-154.99,-98.76,-3.56,-20.78,26.99,-75.99,-34.17545454545455
1.953125,44.19,47.46,4.49,-177.28,68.99,-190.09,-91.91,1.95,-27.66,25.18,-59.98,-32.24181818181818
1.96875,46.71,58.95,2.42,-164.33,71.94,-224.22,-86.77,4.59,-38.19,22.89,-50.67,-32.42545454545455
1.984375,45.57,68.45,-0.25,-152.05,73.9,-247.25,-82.42,5.06,-51.76,20.06,-47.62,-33.482727272727274
2.0,41.03,76.39,-2.38,-139.98,75.01,-249.12,-77.77,4.54,-66.31,16.69,-48.6,-33.68181818181818
2.015625,34.56,82.61,-3.29,-127.97,75.37,-223.81,-72.1,4.14,-78.38,12.87,-50.49,-31.499090909090906
2.03125,27.83,86.3,-2.93,-116.26,74.92,-171.84,-65.35,4.56,-83.72,8.9,-50.75,-26.21272727272727
2.046875,21.85,86.24,-1.92,-105.48,73.57,-100.27,-58.14,5.83,-78.76,5.14,-48.35,-18.20818181818182
2.0625,16.64,81.24,-1.18,-96.28,71.16,-20.22,-51.38,7.49,-62.24,2.0,-43.91,-8.789090909090909
2.078125,11.48,70.74,-1.4,-88.98,67.57,56.71,-45.89,8.83,-36.14,-0.18,-39.01,0.33909090909090817
2.09375,5.53,55.2,-2.67,-83.46,62.77,121.33,-42.09,9.27,-5.29,-1.22,-35.22,7.649999999999998
2.109375,-1.81,36.19,-4.41,-79.2,56.9,168.44,-40.01,8.56,24.36,-1.16,-33.3,12.232727272727278
2.125,-10.33,15.88,-5.67,-75.52,50.35,196.81,-39.46,6.82,47.88,-0.27,-33.18,13.937272727272726
2.140625,-19.21,-3.55,-5.63,-71.85,43.66,208.46,-40.3,4.46,63.03,1.05,-34.44,13.243636363636364
2.15625,-27.25,-20.56,-4.0,-67.93,37.36,207.62,-42.42,1.95,70.5,2.35,-36.8,10.983636363636364
2.171875,-33.55,-34.63,-1.22,-63.87,31.73,199.57,-45.69,-0.38,72.75,3.21,-40.46,7.950909090909089
2.1875,-37.91,-46.08,1.71,-60.01,26.67,189.5,-49.75,-2.49,72.41,3.35,-45.79,4.691818181818182
2.203125,-40.82,-55.68,3.62,-56.8,21.69,181.39,-53.86,-4.61,70.93,2.71,-52.89,1.4254545454545435
2.21875,-43.14,-64.07,3.61,-54.58,16.19,177.24,-57.05,-7.21,68.42,1.38,-61.23,-1.8581818181818166
2.234375,-45.7,-71.48,1.43,-53.49,9.77,176.82,-58.33,-10.77,64.26,-0.43,-69.8,-5.247272727272726
2.25,-49.08,-77.67,-2.37,-53.46,2.46,178.4,-57.05,-15.61,58.1,-2.43,-77.51,-8.747272727272724
2.265625,-53.52,-82.12,-6.33,-54.26,-5.26,179.79,-53.12,-21.73,50.49,-4.33,-83.66,-12.186363636363637
2.28125,-59.08,-84.17,-8.45,-55.56,-12.73,179.12,-47.08,-28.87,42.68,-5.86,-88.21,-15.29181818181818
2.296875,-65.86,-83.13,-6.67,-56.96,-19.43,175.54,-39.82,-36.53,35.97,-6.85,-91.56,-17.754545454545454
2.3125,-73.96,-78.4,0.41,-58.03,-25.31,169.34,-32.25,-44.05,30.97,-7.21,-94.2,-19.335454545454546
2.328125,-83.33,-69.53,12.87,-58.23,-30.71,161.62,-25.01,-50.68,27.22,-6.96,-96.59,-19.93909090909091
2.34375,-93.47,-56.55,29.24,-56.99,-36.3,153.84,-18.35,-55.58,23.4,-6.26,-99.23,-19.659090909090907
2.359375,-103.23,-40.12,46.86,-53.81,-42.71,147.28,-12.23,-57.95,18.09,-5.31,-102.8,-18.720909090909092
2.375,-110.8,-21.7,62.83,-48.34,-50.41,142.54,-6.48,-57.16,10.51,-4.35,-108.28,-17.421818181818182
2.390625,-114.22,-3.16,74.98,-40.58,-59.58,139.43,-1.03,-52.98,0.95,-3.53,-116.44,-16.014545454545452
2.40625,-111.97,13.68,82.6,-30.93,-70.07,137.12,3.97,-45.67,-9.36,-2.86,-127.37,-14.623636363636363
2.421875,-103.69,27.73,86.46,-20.16,-81.34,134.64,8.25,-35.96,-18.92,-2.25,-140.14,-13.216363636363637
2.4375,-90.39,38.87,88.14,-9.2,-92.36,131.32,11.46,-24.81,-26.73,-1.59,-152.98,-11.660909090909092
2.453125,-74.16,47.84,89.25,1.01,-101.6,126.89,13.43,-13.2,-32.77,-0.78,-164.01,-9.827272727272724
2.46875,-57.42,55.67,90.72,9.78,-107.23,121.48,14.24,-1.8,-37.91,0.15,-171.95,-7.660909090909089
2.484375,-42.08,63.07,92.75,16.72,-107.53,115.3,14.15,9.04,-43.43,1.13,-176.42,-5.209090909090907
2.5,-29.05,70.11,95.02,21.79,-101.42,108.49,13.61,19.18,-50.25,2.05,-177.53,-2.5454545454545454
2.515625,-18.23,76.26,97.29,25.19,-88.86,101.11,13.05,28.42,-58.58,2.85,-175.27,0.29363636363636014
2.53125,-8.94,80.88,99.61,27.17,-71.03,93.27,12.78,36.25,-67.88,3.54,-169.08,3.324545454545454
2.546875,-0.52,83.65,102.38,28.01,-49.87,85.2,12.81,41.85,-77.26,4.21,-158.1,6.578181818181819
2.5625,7.29,84.81,106.15,27.89,-27.61,77.24,13.02,44.34,-86.01,4.99,-141.95,10.014545454545463
2.578125,14.36,85.04,111.23,26.93,-6.09,69.74,13.21,43.19,-93.82,6.01,-121.35,13.495454545454548
2.59375,20.39,85.05,117.48,25.29,13.51,62.86,13.21,38.55,-100.72,7.36,-98.17,16.80090909090909
2.609375,25.19,85.37,124.11,23.18,30.7,56.58,13.04,31.29,-106.82,9.12,-74.8,19.723636363636366
2.625,28.84,86.49,129.8,20.88,45.41,50.69,12.75,22.68,-112.0,11.25,-53.16,22.148181818181815
2.640625,31.62,89.1,132.88,18.69,57.65,44.94,12.37,13.91,-115.87,13.68,-34.2,24.069999999999997
2.65625,33.79,94.18,131.71,16.9,67.42,39.23,11.75,5.66,-117.85,16.24,-18.06,25.54272727272728
2.671875,35.48,102.49,124.94,15.68,74.66,33.65,10.61,-2.06,-117.4,18.7,-4.73,26.54727272727273
2.6875,36.6,113.66,111.86,15.17,79.43,28.46,8.67,-9.7,-114.22,20.8,5.32,26.91363636363636
2.703125,36.99,125.44,92.54,15.39,82.02,23.95,5.83,-17.76,-108.41,22.25,11.1,26.303636363636368
2.71875,36.65,133.69,67.91,16.27,83.0,20.33,2.22,-26.37,-100.44,22.83,11.79,24.35272727272727
2.734375,35.83,133.42,39.82,17.67,83.13,17.54,-1.79,-35.3,-91.17,22.5,7.45,20.827272727272724
2.75,35.04,120.5,10.79,19.27,83.11,15.22,-5.78,-43.86,-81.75,21.42,-0.55,15.764545454545452
2.765625,34.81,93.08,-16.28,20.76,83.46,12.79,-9.4,-51.52,-73.51,19.85,-10.1,9.44909090909091
2.78125,35.46,52.16,-38.75,21.8,84.32,9.7,-12.45,-57.86,-67.65,18.14,-19.19,2.3345454545454536
2.796875,36.93,1.15,-54.88,22.19,85.55,5.65,-14.9,-62.83,-64.9,16.53,-26.68,-5.108181818181818
2.8125,38.75,-55.21,-64.32,21.89,86.85,0.81,-16.81,-66.67,-65.18,15.07,-32.51,-12.484545454545456
2.828125,40.23,-111.99,-68.14,20.97,87.91,-4.24,-18.3,-69.62,-67.4,13.65,-37.11,-19.458181818181814
2.84375,40.71,-164.69,-68.52,19.57,88.56,-8.72,-19.64,-71.92,-69.72,12.15,-40.73,-25.722727272727273
2.859375,39.8,-209.4,-67.95,17.81,88.79,-12.06,-21.14,-73.75,-70.18,10.56,-43.07,-30.962727272727275
2.875,37.47,-242.84,-68.55,15.76,88.67,-14.08,-23.18,-75.62,-67.44,9.02,-43.49,-34.93454545454546
2.890625,34.01,-262.5,-71.64,13.46,88.17,-15.1,-26.06,-78.44,-61.45,7.82,-41.49,-37.56545454545455
2.90625,29.94,-267.07,-77.62,10.95,87.17,-15.77,-29.91,-83.24,-53.4,7.19,-37.22,-38.99818181818182
2.921875,25.79,-256.81,-86.26,8.26,85.43,-16.75,-34.59,-90.47,-45.29,7.16,-31.44,-39.54272727272727
2.9375,22.0,-233.78,-96.92,5.44,82.71,-18.51,-39.75,-99.3,-39.02,7.59,-24.99,-39.50272727272728
2.953125,18.71,-201.54,-108.75,2.48,78.88,-21.14,-44.86,-107.43,-35.53,8.21,-18.24,-39.019090909090906
2.96875,15.79,-164.4,-120.83,-0.68,74.01,-24.42,-49.37,-111.64,-34.5,8.76,-10.75,-38.00272727272727
2.984375,12.84,-126.6,-132.27,-4.09,68.32,-27.94,-52.69,-109.18,-34.53,9.11,-1.52,-36.23181818181818
3.0,9.41,-91.49,-142.39,-7.72,62.08,-31.31,-54.35,-99.02,-33.81,9.19,10.32,-33.553636363636365
3.015625,5.21,-61.25,-150.96,-11.4,55.56,-34.29,-53.97,-82.51,-30.96,9.0,24.89,-30.061818181818182
3.03125,0.29,-36.87,-158.3,-14.9,48.97,-36.86,-51.39,-62.75,-25.54,8.56,41.36,-26.130000000000006
3.046875,-4.96,-18.73,-165.03,-18.01,42.48,-39.17,-46.68,-43.21,-18.1,7.82,58.27,-22.301818181818184
3.0625,-9.99,-7.18,-171.56,-20.61,36.29,-41.45,-40.14,-26.22,-9.91,6.83,74.25,-19.062727272727276
3.078125,-14.4,-2.73,-177.31,-22.78,30.53,-43.93,-32.25,-12.39,-2.41,5.69,88.53,-16.67727272727273
3.09375,-18.06,-5.87,-180.26,-24.71,25.27,-46.76,-23.57,-0.97,3.27,4.55,101.04,-15.097272727272726
3.109375,-21.21,-16.31,-177.19,-26.69,20.35,-50.01,-14.61,9.01,6.71,3.58,112.18,-14.017272727272728
3.125,-24.29,-32.47,-164.73,-29.01,15.46,-53.63,-5.82,17.8,8.26,2.86,122.41,-13.014545454545454
3.140625,-27.81,-51.39,-141.01,-31.91,10.19,-57.49,2.49,24.77,9.02,2.37,132.1,-11.69727272727273
3.15625,-32.17,-69.44,-106.91,-35.49,4.24,-61.39,10.02,28.95,10.44,2.02,141.77,-9.814545454545453
3.171875,-37.61,-83.39,-66.31,-39.63,-2.5,-64.99,16.5,29.97,13.92,1.69,152.47,-7.261818181818182
3.1875,-44.08,-91.35,-24.98,-43.83,-9.85,-68.03,21.68,28.56,20.38,1.33,165.8,-4.0336363636363615
3.203125,-51.13,-93.11,11.38,-47.25,-17.49,-70.32,25.45,26.3,29.98,0.94,183.29,-0.1781818181818215
3.21875,-57.79,-89.9,39.03,-48.86,-25.05,-72.02,27.8,24.99,42.14,0.52,205.16,4.183636363636367
3.234375,-62.63,-83.61,57.14,-47.69,-32.33,-73.59,28.95,25.76,55.81,0.13,229.1,8.821818181818179
3.25,-64.07,-76.23,67.21,-43.22,-39.31,-75.67,29.29,28.85,69.78,-0.21,250.09,13.319090909090908
3.265625,-60.92,-69.39,71.65,-35.57,-46.19,-78.79,29.19,33.41,83.01,-0.45,261.77,17.065454545454543
3.28125,-52.88,-64.33,72.23,-25.53,-53.3,-82.99,29.03,38.24,94.68,-0.54,258.8,19.400909090909096
3.296875,-40.74,-61.9,69.47,-14.29,-61.07,-87.67,28.99,42.26,104.23,-0.43,239.3,19.831818181818182
3.3125,-26.24,-62.51,62.97,-3.12,-69.84,-91.69,29.1,44.88,111.16,-0.07,205.79,18.220909090909092
3.328125,-11.39,-65.97,52.51,6.96,-79.7,-93.72,29.23,46.13,115.06,0.46,164.31,14.898181818181818
3.34375,2.11,-71.34,38.89,15.33,-90.19,-92.76,29.16,46.39,115.74,1.05,122.03,10.582727272727272
3.359375,13.35,-76.98,24.07,21.78,-100.17,-88.51,28.68,46.07,113.34,1.46,84.68,6.160909090909092
3.375,22.17,-80.77,10.55,26.35,-107.91,-81.45,27.66,45.32,108.5,1.54,55.04,2.454545454545456
3.390625,28.97,-80.6,0.36,29.22,-111.47,-72.71,26.2,43.93,102.2,1.26,33.09,0.04090909090908923
3.40625,34.21,-75.03,-5.72,30.64,-109.32,-63.59,24.44,41.4,95.52,0.73,17.34,-0.852727272727273
3.421875,38.19,-63.63,-8.28,30.83,-100.83,-55.27,22.66,37.22,89.24,0.07,6.19,-0.32818181818181985
3.4375,40.97,-47.22,-8.8,30.0,-86.57,-48.51,20.96,31.05,83.63,-0.54,-1.35,1.23818181818182
3.453125,42.47,-27.57,-9.03,28.43,-68.1,-43.68,19.28,22.96,78.52,-1.09,-5.88,3.3009090909090903
3.46875,42.72,-6.81,-10.2,26.42,-47.54,-40.87,17.37,13.43,73.47,-1.63,-8.19,5.288181818181818
3.484375,41.89,13.11,-12.76,24.3,-26.92,-39.98,14.95,3.23,68.07,-2.29,-9.53,6.733636363636362
3.5,40.38,30.99,-16.35,22.37,-7.72,-40.82,11.8,-6.71,62.16,-3.12,-11.23,7.431818181818181
3.515625,38.59,46.47,-20.16,20.87,9.26,-43.06,7.96,-15.47,55.85,-4.06,-14.05,7.472727272727273
3.53125,36.82,59.92,-23.42,19.91,23.78,-46.1,3.75,-22.23,49.32,-5.05,-17.76,7.176363636363636
3.546875,35.24,72.09,-25.8,19.51,35.91,-49.13,-0.43,-26.35,42.57,-6.06,-21.31,6.930909090909092
3.5625,33.88,83.79,-27.52,19.67,45.73,-51.2,-4.25,-27.41,35.3,-7.16,-23.46,7.033636363636364
3.578125,32.72,95.64,-29.37,20.36,53.26,-51.49,-7.66,-25.21,26.92,-8.46,-23.39,7.574545454545455
3.59375,31.82,107.92,-32.29,21.55,58.53,-49.43,-10.89,-19.83,16.73,-10.09,-21.15,8.442727272727273
3.609375,31.24,120.44,-36.96,23.21,61.66,-44.89,-14.4,-11.62,4.29,-12.05,-17.42,9.409090909090908
3.625,31.06,132.57,-43.47,25.21,62.96,-38.12,-18.59,-1.04,-10.21,-14.24,-13.21,10.265454545454547
3.640625,31.24,143.46,-51.18,27.3,62.93,-29.62,-23.68,11.32,-25.75,-16.45,-9.41,10.92363636363637
3.65625,31.56,152.24,-58.95,29.2,62.17,-20.04,-29.53,24.83,-40.52,-18.46,-6.66,11.44
3.671875,31.73,158.37,-65.53,30.6,61.23,-10.04,-35.66,38.79,-52.33,-20.14,-5.35,11.969999999999999
3.6875,31.39,161.8,-70.0,31.3,60.5,-0.15,-41.33,52.34,-59.23,-21.39,-5.62,12.691818181818183
3.703125,30.33,162.94,-72.08,31.2,60.16,9.26,-45.67,64.45,-60.2,-22.14,-7.41,13.712727272727273
3.71875,28.42,162.5,-72.22,30.31,60.2,18.0,-47.88,74.01,-55.47,-22.35,-10.32,15.018181818181823
3.734375,25.71,161.13,-71.41,28.66,60.54,26.05,-47.32,80.06,-46.5,-21.98,-13.55,16.490000000000002
3.75,22.28,159.27,-70.81,26.31,61.06,33.52,-43.62,82.06,-35.42,-21.07,-16.04,17.958181818181824
3.765625,18.28,157.11,-71.5,23.33,61.63,40.49,-36.8,80.17,-24.41,-19.73,-16.81,19.250909090909094
3.78125,13.83,154.7,-74.33,19.84,62.14,46.92,-27.36,75.3,-15.02,-18.13,-15.27,20.238181818181822
3.796875,9.08,152.09,-79.8,16.06,62.41,52.61,-16.12,68.85,-7.85,-16.53,-11.52,20.84363636363636
3.8125,4.13,149.34,-87.98,12.25,62.28,57.26,-4.11,62.38,-2.68,-15.16,-6.31,21.036363636363635
3.828125,-0.96,146.49,-98.15,8.66,61.52,60.66,7.7,57.01,1.25,-14.16,-0.8,20.838181818181816
3.84375,-6.1,143.4,-108.41,5.39,59.9,62.82,18.64,53.12,4.73,-13.55,3.9,20.349090909090908
3.859375,-11.2,139.69,-115.68,2.32,57.23,64.01,28.34,50.23,8.29,-13.22,7.08,19.735454545454544
3.875,-16.08,134.81,-116.21,-0.81,53.37,64.68,36.71,47.41,12.03,-13.07,8.54,19.21636363636364
3.890625,-20.56,128.17,-106.89,-4.27,48.3,65.24,43.72,43.73,15.71,-12.99,8.54,18.97272727272727
3.90625,-24.55,119.34,-86.6,-8.16,42.19,65.9,49.23,38.83,18.96,-12.96,7.53,19.064545454545456
3.921875,-28.18,108.24,-57.19,-12.34,35.4,66.56,53.06,33.06,21.45,-13.05,5.94,19.35909090909091
3.9375,-31.87,95.17,-23.13,-16.48,28.4,66.91,55.02,27.32,23.07,-13.32,3.97,19.55090909090909
3.953125,-36.2,80.77,9.81,-20.2,21.7,66.6,55.14,22.61,23.97,-13.83,1.71,19.28
3.96875,-41.72,65.91,36.63,-23.29,15.67,65.46,53.81,19.48,24.44,-14.51,-0.82,18.27818181818182
3.984375,-48.53,51.54,54.66,-25.76,10.41,63.56,51.69,17.76,24.87,-15.21,-3.5,16.49909090909091
4.0,-56.03,38.55,64.11,-27.92,5.73,61.2,49.49,16.54,25.55,-15.71,-6.08,14.13
4.015625,-62.91,27.68,67.26,-30.19,1.17,58.74,47.75,14.4,26.68,-15.74,-8.28,11.505454545454546
4.03125,-67.43,19.46,67.01,-32.93,-3.75,56.48,46.57,9.86,28.33,-15.01,-9.97,8.965454545454545
4.046875,-67.93,14.25,65.54,-36.41,-9.35,54.47,45.69,1.75,30.48,-13.35,-11.21,6.720909090909092
4.0625,-63.48,12.31,63.66,-40.65,-15.54,52.58,44.65,-10.2,33.02,-10.71,-12.23,4.855454545454546
4.078125,-54.19,13.81,61.17,-45.41,-21.94,50.48,43.09,-25.22,35.75,-7.27,-13.21,3.36909090909091
4.09375,-41.26,18.74,57.58,-50.18,-27.97,47.83,40.93,-41.44,38.39,-3.4,-14.15,2.2790909090909097
4.109375,-26.57,26.79,52.87,-54.19,-33.17,44.38,38.4,-56.35,40.51,0.41,-14.71,1.669999999999999
4.125,-12.02,37.13,47.65,-56.5,-37.44,40.15,35.85,-67.51,41.69,3.64,-14.44,1.654545454545454
4.140625,1.04,48.58,42.94,-56.26,-41.11,35.4,33.5,-73.23,41.55,6.01,-12.94,2.3163636363636355
4.15625,12.04,59.79,39.7,-52.86,-44.84,30.59,31.32,-73.0,39.85,7.48,-10.19,3.625454545454545
4.171875,21.07,69.68,38.35,-46.22,-49.38,26.2,29.01,-67.26,36.59,8.2,-6.62,5.42
4.1875,28.55,77.59,38.68,-36.76,-55.36,22.45,26.19,-57.02,32.02,8.4,-2.91,7.43909090909091
4.203125,34.85,83.19,39.95,-25.34,-63.11,19.19,22.62,-43.35,26.61,8.22,0.3,9.375454545454545
4.21875,40.04,86.14,41.29,-13.01,-72.6,15.92,18.36,-27.23,20.93,7.73,2.71,10.934545454545455
4.234375,44.08,85.75,41.92,-0.84,-83.22,11.99,13.71,-9.66,15.56,6.96,4.41,11.878181818181815
4.25,46.87,81.03,41.37,10.28,-93.79,6.84,9.02,8.17,10.93,6.05,5.78,12.049999999999999
4.265625,48.48,71.12,39.47,19.71,-102.52,0.23,4.55,24.91,7.21,5.27,7.14,11.415454545454546
4.28125,49.08,55.88,36.28,27.03,-107.4,-7.57,0.34,39.29,4.28,4.92,8.54,10.060909090909092
4.296875,48.92,36.29,31.94,32.12,-106.66,-15.79,-3.69,50.65,1.75,5.23,9.73,8.22636363636364
4.3125,48.17,14.24,26.64,35.12,-99.42,-23.27,-7.72,59.17,-0.96,6.13,10.3,6.218181818181819
4.328125,46.92,-7.99,20.57,36.37,-86.02,-28.67,-11.89,65.78,-4.47,7.32,10.1,4.365454545454546
4.34375,45.24,-28.52,13.94,36.36,-67.98,-30.85,-16.32,71.64,-9.33,8.33,9.34,2.895454545454544
4.359375,43.26,-46.27,6.9,35.52,-47.54,-29.17,-21.09,77.65,-15.86,8.79,8.56,1.8863636363636358
4.375,41.26,-60.86,-0.46,34.15,-26.94,-23.8,-26.17,84.1,-24.19,8.54,8.36,1.2718181818181804
4.390625,39.56,-72.22,-8.07,32.41,-7.87,-15.71,-31.32,90.79,-34.11,7.73,8.97,0.9236363636363638
4.40625,38.42,-80.2,-15.78,30.46,8.83,-6.4,-35.98,97.21,-45.0,6.66,10.12,0.7581818181818177
4.421875,37.92,-84.65,-23.33,28.5,22.99,2.54,-39.27,102.91,-55.68,5.69,11.06,0.7890909090909077
4.4375,37.92,-85.61,-30.33,26.87,34.8,9.9,-40.12,107.48,-64.44,5.02,11.01,1.1363636363636376
4.453125,38.07,-83.69,-36.41,25.92,44.44,15.15,-37.65,110.64,-69.29,4.72,9.5,1.9454545454545473
4.46875,37.93,-79.98,-41.42,25.85,51.98,18.4,-31.46,112.09,-68.55,4.7,6.66,3.2909090909090897
4.484375,37.11,-75.74,-45.45,26.65,57.4,20.12,-21.85,111.64,-61.48,4.88,3.14,5.129090909090909
4.5,35.36,-71.87,-48.92,28.05,60.8,20.89,-9.8,109.25,-48.73,5.18,-0.23,7.270909090909089
4.515625,32.66,-68.71,-52.41,29.65,62.47,21.13,3.31,105.14,-32.22,5.6,-2.85,9.433636363636365
4.53125,29.18,-66.14,-56.54,31.13,62.95,21.17,16.1,99.61,-14.62,6.1,-4.55,11.308181818181819
4.546875,25.29,-64.01,-61.94,32.29,62.81,21.25,27.59,92.93,1.67,6.66,-5.55,12.635454545454543
4.5625,21.26,-62.55,-69.1,33.1,62.62,21.58,37.33,85.13,15.17,7.23,-6.22,13.231818181818177
4.578125,17.3,-62.51,-78.32,33.58,62.73,22.34,45.39,76.07,25.69,7.76,-6.81,13.019999999999998
4.59375,13.36,-64.92,-89.18,33.71,63.23,23.55,52.1,65.66,33.99,8.24,-7.38,12.032727272727273
4.609375,9.27,-70.62,-100.18,33.43,64.02,25.05,57.77,54.15,41.2,8.74,-7.85,10.452727272727271
4.625,4.84,-79.91,-108.53,32.62,64.83,26.5,62.45,42.3,48.17,9.32,-8.25,8.576363636363636
4.640625,-0.02,-92.37,-110.7,31.16,65.36,27.53,65.9,31.38,55.17,10.02,-8.73,6.790909090909091
4.65625,-5.21,-106.96,-103.63,29.07,65.42,27.92,67.71,22.72,61.87,10.81,-9.53,5.47181818181818
4.671875,-10.48,-122.16,-86.08,26.43,64.95,27.8,67.48,17.28,67.72,11.59,-10.81,4.883636363636364
4.6875,-15.53,-136.25,-59.54,23.36,64.03,27.63,65.08,15.17,72.25,12.23,-12.52,5.082727272727272
4.703125,-20.14,-147.39,-27.98,20.01,62.75,28.08,60.65,15.66,75.28,12.62,-14.36,5.9254545454545475
4.71875,-24.31,-153.81,3.48,16.49,61.1,29.75,54.55,17.5,76.95,12.67,-15.89,7.134545454545452
4.734375,-28.2,-154.11,30.37,12.89,58.94,32.89,47.2,19.53,77.61,12.36,-16.71,8.433636363636362
4.75,-32.19,-147.5,50.29,9.32,55.98,37.23,39.03,21.17,77.72,11.74,-16.59,9.654545454545454
4.765625,-36.69,-134.1,63.14,5.93,51.88,42.02,30.4,22.68,77.63,10.91,-15.56,10.74909090909091
4.78125,-42.13,-114.94,70.46,2.84,46.49,46.32,21.77,24.82,77.58,9.96,-13.85,11.756363636363638
4.796875,-48.66,-91.75,74.21,0.15,39.93,49.33,13.7,28.31,77.62,9.07,-11.78,12.739090909090907
4.8125,-56.04,-66.61,75.8,-2.18,32.66,50.66,6.7,33.28,77.64,8.35,-9.61,13.695454545454544
4.828125,-63.44,-41.44,75.81,-4.31,25.27,50.41,1.14,39.03,77.47,7.89,-7.48,14.577272727272726
4.84375,-69.5,-17.65,74.36,-6.52,18.37,49.03,-2.97,44.19,76.94,7.71,-5.32,15.330909090909092
4.859375,-72.6,3.98,71.64,-9.04,12.28,47.11,-5.95,47.3,75.94,7.72,-2.84,15.958181818181817
4.875,-71.36,23.21,68.11,-12.03,6.99,45.1,-8.26,47.47,74.42,7.78,0.21,16.512727272727275
4.890625,-65.2,40.09,64.5,-15.46,2.26,43.2,-10.23,44.88,72.31,7.72,3.97,17.094545454545457
4.90625,-54.54,54.73,61.36,-19.13,-2.35,41.32,-11.93,40.9,69.42,7.41,8.21,17.763636363636365
4.921875,-40.79,67.08,58.88,-22.78,-7.23,39.22,-13.18,37.67,65.43,6.83,12.39,18.501818181818184
4.9375,-25.86,77.0,56.82,-26.19,-12.6,36.67,-13.79,37.27,59.88,6.06,15.76,19.183636363636364
4.953125,-11.54,84.41,54.74,-29.27,-18.48,33.56,-13.79,40.63,52.41,5.22,17.67,19.596363636363638
4.96875,1.01,89.57,52.3,-32.22,-24.63,30.01,-13.5,46.55,42.91,4.43,17.8,19.475454545454546
4.984375,11.45,93.14,49.46,-35.4,-30.76,26.26,-13.36,51.56,31.73,3.76,16.29,18.55727272727273
5.0,20.08,96.18,46.44,-39.22,-36.55,22.61,-13.71,50.58,19.64,3.15,13.65,16.622727272727275
5.015625,27.46,99.75,43.64,-43.89,-41.86,19.19,-14.57,38.51,7.63,2.55,10.59,13.545454545454549
5.03125,34.02,104.58,41.26,-49.13,-46.7,15.95,-15.68,12.28,-3.45,1.94,7.84,9.355454545454544
5.046875,39.87,110.7,39.09,-54.12,-51.32,12.72,-16.73,-27.74,-13.23,1.35,5.94,4.2299999999999995
5.0625,44.83,117.43,36.58,-57.6,-56.07,9.28,-17.59,-77.48,-21.84,0.84,5.13,-1.4990909090909121
5.078125,48.67,123.63,32.93,-58.24,-61.39,5.55,-18.4,-130.48,-29.77,0.38,5.3,-7.438181818181818
5.09375,51.23,128.04,27.5,-55.06,-67.66,1.61,-19.51,-180.05,-37.63,-0.13,5.99,-13.242727272727274
5.109375,52.6,129.78,20.25,-47.82,-75.04,-2.37,-21.1,-221.43,-45.8,-0.85,6.47,-18.664545454545454
5.125,52.98,128.58,11.79,-37.05,-83.38,-6.15,-23.12,-252.93,-54.34,-1.9,6.0,-23.59272727272727
5.140625,52.6,124.81,3.24,-23.94,-92.02,-9.58,-25.07,-275.67,-63.02,-3.19,4.14,-27.972727272727276
5.15625,51.63,119.34,-4.27,-9.9,-99.71,-12.55,-26.26,-292.31,-71.36,-4.45,0.95,-31.717272727272725
5.171875,50.14,113.2,-10.17,3.69,-104.79,-15.05,-26.1,-305.43,-78.64,-5.28,-3.03,-34.67818181818181
5.1875,48.21,107.28,-14.68,15.81,-105.54,-17.13,-24.33,-316.47,-83.9,-5.36,-7.01,-36.64727272727273
5.203125,46.01,102.03,-18.69,25.8,-100.71,-18.97,-21.25,-325.42,-86.0,-4.51,-10.32,-37.45727272727273
5.21875,43.84,97.45,-23.25,33.39,-89.94,-20.85,-17.46,-331.24,-83.93,-2.9,-12.66,-37.050000000000004
5.234375,42.1,93.12,-28.95,38.56,-73.97,-23.19,-13.62,-332.46,-77.12,-0.89,-14.08,-35.49999999999999
5.25,41.05,88.53,-35.6,41.5,-54.46,-26.38,-10.12,-327.88,-66.03,1.06,-14.84,-33.01545454545454
5.265625,40.77,83.45,-42.29,42.53,-33.46,-30.59,-6.82,-316.72,-52.14,2.64,-15.09,-29.79272727272727
5.28125,41.03,78.23,-47.93,42.03,-12.93,-35.57,-3.2,-298.75,-37.64,3.69,-14.74,-25.979999999999997
5.296875,41.36,73.89,-51.76,40.4,5.73,-40.59,1.27,-274.24,-24.6,4.29,-13.62,-21.62454545454546
5.3125,41.15,71.94,-53.77,38.03,21.77,-44.52,6.94,-244.0,-14.21,4.6,-11.73,-16.70909090909091
5.328125,39.87,74.1,-54.75,35.26,34.92,-46.2,13.9,-209.3,-6.3,4.75,-9.41,-11.196363636363637
5.34375,37.24,81.75,-55.95,32.42,45.19,-44.77,22.1,-171.86,0.38,4.8,-7.26,-5.08727272727273
5.359375,33.31,95.28,-58.76,29.79,52.68,-40.04,31.57,-133.63,7.52,4.77,-5.84,1.513636363636364
5.375,28.51,113.57,-64.27,27.64,57.54,-32.57,42.3,-96.46,16.46,4.73,-5.21,8.385454545454547
5.390625,23.45,133.66,-72.88,26.14,60.03,-23.48,53.82,-61.92,27.72,4.85,-4.73,15.15090909090909
5.40625,18.77,151.07,-84.0,25.39,60.54,-14.11,64.9,-31.1,40.97,5.34,-3.21,21.323636363636364
5.421875,14.88,160.91,-95.7,25.39,59.66,-5.62,73.62,-4.52,55.32,6.35,0.56,26.44090909090909
5.4375,11.8,159.34,-104.94,26.1,58.01,1.3,78.15,17.71,69.62,7.83,7.18,30.19090909090909
5.453125,9.15,144.83,-108.17,27.43,56.14,6.49,77.75,35.85,82.72,9.51,16.11,32.52818181818182
5.46875,6.4,118.69,-102.47,29.27,54.41,10.19,73.39,50.37,93.54,10.96,25.7,33.67727272727273
5.484375,3.02,84.48,-86.79,31.4,52.98,12.8,67.33,61.85,101.24,11.82,33.73,33.98727272727273
5.5,-1.2,46.45,-62.57,33.53,51.83,14.72,61.92,70.91,105.4,11.94,38.23,33.74181818181818
5.515625,-6.12,8.07,-33.37,35.27,50.96,16.2,58.2,78.1,106.3,11.36,38.33,33.02727272727273
5.53125,-11.36,-29.09,-3.73,36.23,50.34,17.4,55.28,83.86,104.86,10.21,34.52,31.683636363636364
5.546875,-16.45,-65.42,22.44,36.18,50.0,18.46,50.95,88.38,102.39,8.68,28.54,29.468181818181822
5.5625,-21.09,-102.57,42.99,35.08,49.91,19.51,43.17,91.71,100.09,6.85,22.55,26.200000000000003
5.578125,-25.2,-142.45,57.71,33.16,49.94,20.56,31.45,93.81,98.64,4.8,18.35,21.88818181818182
5.59375,-28.94,-186.08,67.73,30.74,49.76,21.64,17.26,94.69,98.04,2.6,16.75,16.744545454545456
5.609375,-32.62,-232.76,74.48,28.11,48.91,22.67,3.25,94.52,97.86,0.43,17.36,11.110000000000001
5.625,-36.63,-279.68,78.88,25.43,46.98,23.56,-8.22,93.63,97.61,-1.59,18.89,5.35090909090909
5.640625,-41.36,-322.23,81.22,22.72,43.66,24.28,-16.17,92.39,97.05,-3.38,19.84,-0.1800000000000036
5.65625,-47.05,-354.94,81.48,19.86,38.95,24.86,-21.2,91.1,96.22,-4.99,19.06,-5.1499999999999995
5.671875,-53.7,-373.09,79.88,16.8,33.15,25.36,-24.69,89.8,95.21,-6.48,16.21,-9.231818181818177
5.6875,-60.84,-374.18,77.07,13.56,26.81,25.84,-27.91,88.26,93.86,-7.88,11.82,-12.144545454545453
5.703125,-67.48,-358.99,74.02,10.21,20.53,26.32,-31.38,86.06,91.71,-9.07,7.02,-13.73181818181818
5.71875,-72.22,-331.25,71.57,6.85,14.76,26.77,-35.03,82.71,88.17,-9.82,3.16,-14.030000000000006
5.734375,-73.56,-296.4,70.09,3.54,9.62,27.17,-38.75,77.84,82.85,-9.93,1.38,-13.286363636363637
5.75,-70.42,-259.87,69.4,0.3,4.93,27.5,-42.78,71.34,75.99,-9.35,2.34,-11.874545454545457
5.765625,-62.59,-225.76,68.84,-2.87,0.33,27.72,-47.87,63.32,68.53,-8.28,6.18,-10.222727272727274
5.78125,-50.87,-196.37,67.74,-5.95,-4.55,27.78,-54.67,54.12,61.84,-7.05,12.45,-8.684545454545455
5.796875,-36.89,-172.53,65.66,-8.97,-9.88,27.52,-63.3,44.22,57.26,-6.11,20.09,-7.539090909090911
5.8125,-22.58,-154.22,62.63,-11.96,-15.55,26.81,-72.96,34.25,55.53,-5.71,27.42,-6.94
5.828125,-9.49,-141.05,59.1,-14.98,-21.28,25.59,-82.08,25.05,56.37,-5.91,32.35,-6.93909090909091
5.84375,1.54,-132.35,55.63,-18.05,-26.71,23.94,-88.85,17.6,58.58,-6.58,33.01,-7.476363636363637
5.859375,10.47,-126.98,52.62,-21.12,-31.61,22.03,-91.78,12.92,60.37,-7.46,28.6,-8.358181818181816
5.875,17.78,-123.43,50.02,-24.07,-35.93,20.06,-90.18,11.89,59.97,-8.33,19.99,-9.293636363636365
5.890625,24.04,-119.99,47.37,-26.76,-39.91,18.12,-84.25,14.9,56.15,-9.06,9.79,-9.963636363636361
5.90625,29.57,-115.25,43.97,-29.15,-43.95,16.17,-74.9,21.75,48.54,-9.56,1.41,-10.12727272727273
5.921875,34.42,-108.37,39.18,-31.42,-48.57,14.17,-63.38,31.62,37.55,-9.7,-2.26,-9.705454545454545
5.9375,38.39,-99.16,32.8,-33.84,-54.27,12.15,-50.93,43.35,24.2,-9.29,-0.2,-8.799999999999999
5.953125,41.31,-88.0,25.21,-36.74,-61.3,10.28,-38.46,55.8,9.86,-8.15,6.37,-7.620000000000001
5.96875,43.18,-75.58,17.33,-40.21,-69.49,8.7,-26.62,68.11,-3.95,-6.19,14.67,-6.368181818181818
5.984375,44.07,-62.62,10.31,-43.91,-78.08,7.47,-15.65,79.76,-15.73,-3.63,21.67,-5.121818181818181
6.0,44.13,-49.6,5.07,-47.1,-85.69,6.42,-5.69,90.36,-24.22,-0.91,25.4,-3.802727272727272
6.015625,43.45,-36.68,1.88,-48.71,-90.57,5.27,3.15,99.35,-28.63,1.38,25.48,-2.2390909090909084
6.03125,42.13,-23.73,0.18,-47.72,-91.05,3.76,10.69,105.94,-28.78,2.83,22.79,-0.26909090909090855
6.046875,40.29,-10.49,-1.31,-43.49,-86.05,1.79,16.76,109.27,-25.19,3.28,18.53,2.1263636363636365
6.0625,38.18,3.12,-4.1,-35.96,-75.42,-0.43,21.22,108.73,-18.89,3.02,13.39,4.805454545454544
6.078125,36.11,16.84,-9.28,-25.77,-60.11,-2.61,24.2,104.4,-11.24,2.58,7.32,7.494545454545454
6.09375,34.42,29.94,-17.02,-14.05,-41.92,-4.52,26.05,97.13,-3.58,2.47,-0.17,9.886363636363637
6.109375,33.27,41.44,-26.37,-2.15,-22.93,-6.15,27.3,88.4,2.95,2.98,-9.4,11.758181818181816
6.125,32.63,50.42,-35.69,8.71,-5.03,-7.75,28.48,79.79,7.5,4.01,-20.01,13.005454545454548
6.140625,32.28,56.39,-43.23,17.67,10.52,-9.72,29.94,72.47,9.54,5.23,-30.86,13.657272727272725
6.15625,31.9,59.46,-48.03,24.34,23.2,-12.45,31.73,66.8,8.84,6.16,-40.32,13.784545454545453
6.171875,31.23,60.23,-50.24,28.7,33.0,-16.16,33.54,62.24,5.42,6.45,-46.84,13.415454545454542
6.1875,30.08,59.57,-51.19,31.0,40.14,-20.77,34.91,57.74,-0.54,5.95,-49.52,12.488181818181818
6.203125,28.42,58.26,-52.75,31.58,44.87,-25.92,35.39,52.22,-8.65,4.8,-48.37,10.895454545454545
6.21875,26.22,56.79,-56.73,30.88,47.39,-30.95,34.71,45.06,-18.35,3.25,-44.27,8.545454545454545
6.234375,23.54,55.3,-64.32,29.29,47.96,-34.98,32.9,36.27,-28.89,1.62,-38.54,5.46818181818182
6.25,20.47,53.7,-75.72,27.23,47.04,-37.11,30.15,26.47,-39.29,0.19,-32.32,1.891818181818182
6.265625,17.16,51.83,-90.01,25.04,45.25,-36.66,26.83,16.51,-48.48,-0.86,-26.24,-1.7845454545454538
6.28125,13.79,49.58,-105.06,22.96,43.33,-33.41,23.29,7.25,-55.32,-1.46,-20.34,-5.035454545454545
6.296875,10.52,46.88,-117.7,21.17,41.89,-27.65,19.84,-0.71,-58.9,-1.6,-14.36,-7.329090909090908
6.3125,7.36,43.78,-124.26,19.74,41.29,-20.2,16.63,-7.05,-58.64,-1.34,-8.24,-8.266363636363637
6.328125,4.18,40.34,-121.55,18.71,41.58,-12.09,13.71,-11.74,-54.34,-0.8,-2.36,-7.669090909090909
6.34375,0.69,36.7,-107.94,18.19,42.55,-4.31,10.93,-15.0,-46.01,-0.15,2.49,-5.623636363636364
6.359375,-3.31,33.01,-84.29,18.3,43.88,2.37,8.08,-17.35,-33.6,0.45,5.56,-2.445454545454546
6.375,-7.83,29.4,-53.92,19.16,45.19,7.65,5.0,-19.52,-16.87,0.96,6.58,1.4363636363636354
6.390625,-12.58,25.94,-21.74,20.74,46.1,11.52,1.61,-22.26,4.56,1.4,6.04,5.575454545454545
6.40625,-17.08,22.63,7.32,22.85,46.28,14.24,-1.94,-26.11,30.66,1.9,4.97,9.610909090909091
6.421875,-20.86,19.39,29.85,25.14,45.4,16.17,-5.38,-31.14,60.49,2.5,4.49,13.27727272727273
6.4375,-23.79,16.14,44.76,27.16,43.24,17.65,-8.45,-36.76,91.69,3.19,5.2,16.366363636363637
6.453125,-26.15,12.84,53.01,28.57,39.73,18.87,-11.03,-41.87,120.42,3.79,6.98,18.65090909090909
6.46875,-28.56,9.44,56.66,29.2,35.0,19.9,-13.25,-45.14,142.0,4.11,9.13,19.862727272727273
6.484375,-31.72,5.88,57.71,29.07,29.4,20.65,-15.42,-45.38,151.99,4.06,10.82,19.732727272727274
6.5,-36.05,2.09,57.37,28.3,23.42,20.99,-17.86,-41.91,147.27,3.71,11.59,18.083636363636366
6.515625,-41.51,-1.92,56.01,27.09,17.53,20.9,-20.81,-34.71,126.76,3.35,11.56,14.931818181818182
6.53125,-47.46,-5.9,53.61,25.56,12.07,20.47,-24.37,-24.42,91.43,3.25,11.32,10.505454545454546
6.546875,-52.85,-9.3,50.25,23.8,7.04,19.93,-28.58,-12.17,43.9,3.56,11.53,5.191818181818181
6.5625,-56.41,-11.28,46.39,21.85,2.14,19.57,-33.41,0.78,-12.12,4.19,12.56,-0.5218181818181798
6.578125,-57.04,-11.04,42.77,19.73,-3.05,19.53,-38.79,13.35,-72.14,4.88,14.27,-6.13909090909091
6.59375,-54.09,-8.11,40.08,17.48,-8.98,19.79,-44.41,24.84,-131.08,5.38,16.09,-11.182727272727275
6.609375,-47.55,-2.59,38.69,15.1,-15.82,20.18,-49.67,34.97,-183.54,5.58,17.35,-15.209090909090907
6.625,-38.12,4.88,38.48,12.56,-23.47,20.54,-53.69,43.75,-224.52,5.61,17.57,-17.855454545454545
6.640625,-27.04,13.41,38.94,9.85,-31.54,20.81,-55.55,51.24,-250.5,5.66,16.63,-18.917272727272728
6.65625,-15.71,22.22,39.46,6.98,-39.57,21.08,-54.63,57.33,-260.42,5.94,14.78,-18.412727272727274
6.671875,-5.33,30.88,39.63,4.02,-47.15,21.46,-50.86,61.75,-256.04,6.52,12.45,-16.60636363636364
6.6875,3.39,39.28,39.44,1.06,-54.1,21.94,-44.74,64.26,-241.31,7.3,10.02,-13.95090909090909
6.703125,10.37,47.42,39.23,-1.8,-60.5,22.34,-37.11,64.82,-221.02,8.12,7.75,-10.943636363636363
6.71875,15.88,55.21,39.4,-4.54,-66.68,22.41,-28.78,63.71,-199.2,8.82,5.69,-8.007272727272728
6.734375,20.34,62.33,40.17,-7.24,-73.24,21.91,-20.19,61.44,-178.3,9.3,3.73,-5.431818181818183
6.75,24.03,68.36,41.29,-9.98,-80.75,20.79,-11.45,58.57,-159.07,9.54,1.7,-3.360909090909089
6.765625,27.0,72.96,42.18,-12.81,-89.6,19.18,-2.38,55.5,-141.23,9.58,-0.61,-1.8390909090909082
6.78125,29.14,76.06,42.18,-15.69,-99.57,17.34,7.04,52.43,-124.35,9.46,-3.41,-0.8518181818181806
6.796875,30.34,77.84,40.88,-18.47,-109.63,15.44,16.56,49.37,-108.4,9.26,-6.81,-0.32909090909090977
6.8125,30.62,78.72,38.46,-21.06,-117.99,13.56,25.51,46.3,-93.89,9.14,-10.76,-0.12636363636363465
6.828125,30.13,79.18,35.59,-23.42,-122.53,11.7,33.1,43.3,-81.75,9.26,-14.99,-0.039090909090908094
6.84375,29.15,79.66,32.96,-25.62,-121.42,9.83,38.63,40.52,-73.06,9.77,-19.01,0.1281818181818185
6.859375,27.9,80.56,31.16,-27.82,-113.78,8.01,41.79,38.06,-68.47,10.7,-22.26,0.5318181818181826
6.875,26.56,82.13,30.5,-30.17,-99.94,6.26,42.78,35.93,-67.65,12.02,-24.32,1.281818181818182
6.890625,25.21,84.49,30.88,-32.78,-81.39,4.55,42.21,34.0,-68.67,13.56,-25.1,2.45090909090909
6.90625,23.89,87.57,31.8,-35.7,-60.34,2.77,40.87,32.09,-68.0,15.21,-24.8,4.123636363636364
6.921875,22.69,91.09,32.65,-38.92,-39.02,0.72,39.48,30.05,-61.45,16.84,-23.79,6.394545454545452
6.9375,21.75,94.6,32.81,-42.41,-19.25,-1.71,38.52,27.94,-45.61,18.34,-22.31,9.333636363636364
6.953125,21.21,97.59,32.1,-45.97,-2.05,-4.5,38.15,25.88,-19.66,19.61,-20.36,12.909090909090908
6.96875,21.1,99.65,30.92,-49.17,12.23,-7.43,38.31,23.99,13.8,20.47,-17.74,16.920909090909092
6.984375,21.25,100.53,29.73,-51.32,23.77,-10.26,38.77,22.26,49.18,20.71,-14.27,20.94090909090909
7.0,21.32,100.13,29.0,-51.61,32.94,-12.8,39.19,20.39,79.9,20.05,-10.06,24.40454545454546
7.015625,20.83,98.51,29.07,-49.32,40.12,-14.99,39.18,17.9,100.75,18.35,-5.56,26.803636363636368
7.03125,19.44,95.81,29.81,-44.13,45.56,-16.96,38.39,14.34,109.85,15.63,-1.47,27.84272727272727
7.046875,17.06,92.31,30.44,-36.21,49.44,-18.94,36.61,9.59,108.92,12.13,1.64,27.544545454545457
7.0625,13.89,88.31,29.89,-26.3,51.94,-21.15,33.85,4.07,102.12,8.31,3.49,26.220000000000002
7.078125,10.35,84.13,26.85,-15.44,53.32,-23.83,30.42,-1.16,94.03,4.63,4.28,24.325454545454537
7.09375,6.87,79.95,20.46,-4.76,53.91,-27.19,26.81,-4.62,87.82,1.46,4.48,22.29
7.109375,3.73,75.77,10.66,4.79,54.08,-31.33,23.54,-4.82,84.46,-1.08,4.59,20.39909090909091
7.125,0.94,71.35,-2.33,12.6,54.09,-36.11,20.88,-0.81,83.09,-3.03,4.93,18.69090909090909
7.140625,-1.69,66.44,-17.27,18.45,54.1,-41.03,18.71,7.47,82.32,-4.57,5.51,17.13090909090909
7.15625,-4.46,60.91,-31.68,22.39,54.13,-45.24,16.52,19.17,81.2,-5.89,6.19,15.74909090909091
7.171875,-7.56,54.98,-42.11,24.71,54.17,-47.63,13.64,32.79,79.78,-7.06,6.75,14.769090909090908
7.1875,-11.04,49.12,-45.14,25.73,54.17,-47.24,9.4,46.79,78.7,-8.17,7.11,14.493636363636368
7.203125,-14.77,43.82,-38.02,25.8,54.08,-43.62,3.53,60.02,78.47,-9.23,7.3,15.216363636363639
7.21875,-18.51,39.23,-20.09,25.17,53.76,-37.02,-3.79,71.92,78.8,-10.32,7.45,16.96363636363636
7.234375,-21.97,35.05,7.32,24.02,52.95,-28.4,-11.86,82.38,78.59,-11.45,7.67,19.481818181818184
7.25,-24.95,30.6,41.15,22.52,51.33,-19.09,-19.66,91.38,76.59,-12.53,7.98,22.30181818181818
7.265625,-27.43,25.11,75.36,20.8,48.62,-10.4,-26.09,98.72,72.31,-13.41,8.22,24.71
7.28125,-29.57,18.12,104.27,19.02,44.7,-3.25,-30.29,103.96,66.37,-13.91,8.14,26.141818181818177
7.296875,-31.77,9.59,124.76,17.36,39.65,2.02,-31.89,106.52,60.06,-13.95,7.51,26.35090909090909
7.3125,-34.54,-0.05,136.75,15.97,33.78,5.68,-31.13,105.91,54.13,-13.69,6.27,25.37090909090909
7.328125,-38.34,-10.12,141.93,15.02,27.47,8.31,-28.85,101.85,47.62,-13.4,4.66,23.286363636363635
7.34375,-43.37,-19.91,143.1,14.67,21.03,10.57,-26.29,94.31,37.8,-13.36,3.07,20.14727272727272
7.359375,-49.29,-28.76,141.45,14.99,14.58,12.91,-24.77,83.47,21.5,-13.76,1.9,15.838181818181818
7.375,-55.22,-36.08,137.7,15.99,8.1,15.42,-25.33,69.68,-2.86,-14.52,1.33,10.382727272727273
7.390625,-59.85,-41.34,132.43,17.51,1.46,17.89,-28.45,53.48,-33.67,-15.52,1.21,4.1045454545454545
7.40625,-61.75,-44.2,122.61,19.28,-5.36,19.99,-33.79,35.73,-66.31,-16.64,1.14,-2.663636363636366
7.421875,-59.87,-44.66,106.34,20.95,-12.26,21.45,-40.32,17.59,-95.19,-17.8,0.69,-9.370909090909091
7.4375,-53.88,-43.22,85.12,22.23,-19.0,22.19,-46.63,0.32,-116.58,-18.97,-0.38,-15.345454545454544
7.453125,-44.39,-40.75,63.24,22.91,-25.33,22.37,-51.32,-14.98,-130.49,-20.04,-2.03,-20.073636363636364
7.46875,-32.71,-38.06,44.73,22.97,-31.14,22.27,-53.58,-27.76,-140.28,-20.83,-4.01,-23.490909090909096
7.484375,-20.48,-35.52,32.82,22.42,-36.58,22.22,-53.38,-38.15,-150.46,-21.06,-6.14,-25.846363636363638
7.5,-9.14,-32.69,25.87,21.37,-42.0,22.38,-51.39,-46.93,-163.88,-20.53,-8.38,-27.75636363636363
7.515625,0.46,-28.55,21.19,19.88,-47.89,22.85,-48.5,-55.18,-180.41,-19.25,-10.91,-29.664545454545454
7.53125,8.16,-21.98,16.49,18.01,-54.74,23.59,-45.44,-63.83,-197.52,-17.46,-13.9,-31.692727272727268
7.546875,14.25,-12.48,4.5,15.86,-62.83,24.55,-42.34,-73.28,-212.5,-15.52,-17.23,-34.27454545454545
7.5625,19.24,-0.47,-19.7,13.47,-72.09,25.66,-38.87,-83.28,-224.58,-13.73,-20.45,-37.70909090909091
7.578125,23.48,12.73,-54.93,10.93,-81.99,26.82,-34.54,-93.08,-235.42,-12.22,-22.79,-41.910000000000004
7.59375,27.09,25.5,-95.03,8.28,-91.48,27.88,-29.14,-101.93,-247.62,-10.9,-23.52,-46.442727272727275
7.609375,29.97,36.59,-133.48,5.55,-99.03,28.63,-23.02,-109.4,-262.28,-9.66,-22.24,-50.76090909090909
7.625,32.05,45.59,-164.52,2.78,-102.9,28.9,-16.86,-115.72,-277.34,-8.47,-19.08,-54.14272727272728
7.640625,33.33,53.05,-189.92,0.02,-101.58,28.57,-11.36,-121.5,-287.79,-7.42,-14.65,-56.29545454545455
7.65625,33.91,60.14,-213.52,-2.61,-94.23,27.61,-6.91,-127.34,-287.74,-6.64,-9.77,-57.00909090909091
7.671875,33.94,68.32,-239.26,-5.05,-81.02,26.13,-3.42,-133.25,-273.22,-6.13,-5.16,-56.192727272727275
7.6875,33.54,78.79,-277.77,-7.25,-63.21,24.26,-0.52,-138.45,-244.09,-5.65,-1.24,-54.690000000000005
7.703125,32.73,92.02,-336.42,-9.28,-42.81,22.18,2.07,-141.45,-204.19,-4.81,1.86,-53.463636363636354
7.71875,31.52,107.39,-413.5,-11.27,-22.0,20.04,4.36,-140.67,-159.76,-3.31,4.24,-52.99636363636363
7.734375,29.96,122.83,-499.4,-13.34,-2.61,17.96,6.04,-135.06,-117.05,-1.1,6.03,-53.24909090909092
7.75,28.18,135.13,-583.28,-15.54,14.31,15.98,6.77,-124.53,-80.43,1.5,7.36,-54.04999999999998
7.765625,26.43,140.68,-655.05,-17.86,28.4,14.07,6.43,-109.96,-51.52,3.92,8.39,-55.097272727272724
7.78125,24.98,136.66,-714.85,-20.22,39.8,12.17,5.31,-92.86,-29.59,5.67,9.34,-56.69000000000001
7.796875,24.03,122.05,-766.08,-22.53,48.79,10.23,3.89,-74.8,-12.74,6.56,10.54,-59.09636363636364
7.8125,23.67,98.05,-764.25,-24.76,55.54,8.22,2.73,-56.96,0.83,6.81,12.29,-57.98454545454546
7.828125,23.82,67.56,-686.04,-26.91,60.1,6.21,2.09,-39.98,12.22,6.91,14.74,-50.843636363636364
7.84375,24.24,33.87,-544.55,-29.07,62.57,4.29,1.93,-24.1,21.71,7.29,17.69,-38.557272727272725
7.859375,24.56,-0.5,-380.03,-31.4,63.17,2.53,2.02,-9.45,29.34,8.01,20.58,-24.651818181818182
7.875,24.37,-34.63,-228.76,-34.05,62.32,1.01,2.14,3.73,35.47,8.79,22.59,-12.456363636363637
7.890625,23.39,-69.11,-127.0,-37.08,60.5,-0.29,2.26,14.98,41.06,9.11,23.04,-5.376363636363633
7.90625,21.51,-105.58,-59.81,-40.39,58.21,-1.46,2.47,23.84,47.24,8.73,21.67,-2.142727272727271
7.921875,18.86,-145.65,-14.79,-43.6,55.84,-2.61,2.91,30.07,54.92,7.92,18.85,-1.5709090909090904
7.9375,15.78,-189.98,14.89,-46.07,53.63,-3.89,3.58,33.84,64.14,7.6,15.44,-2.821818181818182
7.953125,12.61,-237.48,32.54,-47.04,51.73,-5.37,4.31,35.64,73.9,8.98,12.45,-5.248181818181817
7.96875,9.61,-284.82,39.45,-45.79,50.21,-7.05,4.83,36.14,82.48,13.07,10.56,-8.300909090909085
7.984375,6.86,-327.03,33.62,-41.9,49.04,-8.82,4.96,35.85,88.12,20.08,9.79,-11.766363636363629
8.0,4.24,-358.71,18.43,-35.43,48.07,-10.59,4.57,34.95,89.71,29.21,9.64,-15.08272727272727
8.015625,1.63,-375.86,2.44,-26.87,47.05,-12.28,3.68,33.25,87.29,38.72,9.33,-17.42
8.03125,-1.12,-377.32,-5.82,-17.1,45.68,-13.98,2.38,30.49,81.9,46.44,8.32,-18.193636363636365
8.046875,-4.06,-365.2,1.55,-7.14,43.68,-15.93,0.71,26.45,75.13,50.35,6.51,-17.086363636363632
8.0625,-7.17,-343.88,23.25,2.09,40.91,-18.43,-1.27,21.2,68.38,49.02,4.22,-14.698181818181824
8.078125,-10.42,-318.15,55.54,9.92,37.37,-21.68,-3.57,15.09,62.42,41.92,1.91,-11.786363636363637
8.09375,-13.77,-291.49,94.06,15.99,33.08,-25.54,-6.24,8.61,57.24,29.32,-0.17,-8.99181818181818
8.109375,-17.21,-265.44,128.58,20.25,28.11,-29.5,-9.39,2.29,52.24,12.27,-2.09,-7.26272727272727
8.125,-20.67,-240.12,150.26,22.82,22.47,-32.65,-13.18,-3.43,46.66,-7.62,-4.18,-7.240000000000004
8.140625,-24.13,-215.49,157.3,23.91,16.2,-34.04,-17.65,-8.08,40.03,-28.26,-6.75,-8.814545454545454
8.15625,-27.54,-192.23,154.49,23.74,9.41,-32.9,-22.6,-11.17,32.31,-47.26,-9.87,-11.238181818181816
8.171875,-30.97,-171.69,148.62,22.51,2.4,-28.95,-27.48,-12.11,24.01,-62.31,-13.32,-13.57181818181818
8.1875,-34.6,-155.16,146.93,20.41,-4.39,-22.41,-31.42,-10.39,15.9,-71.63,-16.7,-14.859999999999998
8.203125,-38.69,-142.94,149.66,17.77,-10.57,-13.89,-33.44,-5.83,8.84,-74.54,-19.61,-14.840000000000002
8.21875,-43.46,-134.12,154.98,14.96,-15.89,-4.21,-32.79,1.25,3.35,-71.67,-21.8,-13.581818181818186
8.234375,-48.86,-127.02,161.03,12.43,-20.46,5.77,-29.32,9.84,-0.53,-64.87,-23.22,-11.382727272727273
8.25,-54.5,-120.1,162.95,10.56,-24.63,15.24,-23.46,18.43,-3.22,-56.44,-23.93,-9.009090909090908
8.265625,-59.48,-112.63,157.52,9.57,-28.97,23.4,-16.07,25.36,-5.39,-48.56,-24.04,-7.208181818181817
8.28125,-62.65,-104.76,146.28,9.43,-34.02,29.49,-8.05,29.45,-7.59,-42.53,-23.59,-6.2309090909090905
8.296875,-62.84,-97.22,134.16,9.96,-40.17,32.84,-0.02,30.42,-9.99,-38.68,-22.64,-5.834545454545454
8.3125,-59.34,-90.76,125.98,10.9,-47.57,33.11,7.81,29.22,-12.19,-36.61,-21.15,-5.5090909090909115
8.328125,-52.15,-85.69,125.52,11.99,-56.22,30.38,15.59,27.76,-13.46,-35.62,-19.11,-4.637272727272728
8.34375,-42.09,-81.85,131.49,13.08,-65.82,25.24,23.5,28.35,-12.99,-35.07,-16.5,-2.969090909090907
8.359375,-30.49,-78.65,141.05,14.04,-75.69,18.63,31.55,32.91,-10.24,-34.46,-13.35,-0.427272727272728
8.375,-18.79,-75.43,151.03,14.79,-84.66,11.67,39.4,42.26,-5.05,-33.29,-9.81,2.92
8.390625,-8.09,-71.61,156.4,15.19,-91.1,5.25,46.34,55.97,2.38,-31.06,-6.15,6.683636363636364
8.40625,1.1,-66.82,152.54,15.15,-93.21,0.0,51.51,72.53,11.62,-27.33,-2.72,10.397272727272728
8.421875,8.81,-61.01,137.72,14.56,-89.54,-3.8,54.1,89.97,22.21,-22.03,0.12,13.737272727272728
8.4375,15.32,-54.32,113.61,13.39,-79.6,-6.12,53.73,106.54,33.53,-15.6,2.17,16.604545454545455
8.453125,20.92,-47.02,84.29,11.72,-64.1,-7.04,50.57,121.13,44.91,-8.91,3.44,19.08272727272727
8.46875,25.7,-39.27,55.6,9.62,-44.84,-6.68,45.35,133.4,55.48,-2.92,4.22,21.423636363636362
8.484375,29.56,-31.05,31.83,7.23,-24.11,-5.2,39.21,143.7,64.26,1.78,4.86,23.824545454545454
8.5,32.4,-22.11,15.78,4.65,-4.1,-2.81,33.35,152.69,70.38,5.18,5.67,26.461818181818185
8.515625,34.21,-12.2,8.09,1.99,13.7,0.24,28.72,161.12,73.2,7.76,6.72,29.413636363636364
8.53125,35.12,-1.18,6.49,-0.64,28.66,3.6,25.84,169.43,72.51,10.17,7.84,32.53090909090909
8.546875,35.33,10.72,7.39,-3.13,40.79,6.92,24.77,177.41,68.45,12.91,8.71,35.47909090909091
8.5625,35.02,22.91,7.78,-5.46,50.37,9.82,25.2,184.15,61.56,16.14,8.99,37.86181818181818
8.578125,34.3,34.55,6.2,-7.7,57.66,12.05,26.72,188.21,52.6,19.65,8.55,39.344545454545454
8.59375,33.21,44.85,2.47,-10.01,62.73,13.41,28.94,188.28,42.65,23.03,7.45,39.72818181818181
8.609375,31.83,53.33,-2.7,-12.53,65.63,13.95,31.69,183.84,32.97,25.75,5.99,39.06818181818182
8.625,30.38,59.9,-9.0,-15.38,66.53,13.8,34.84,175.35,24.87,27.35,4.59,37.56636363636363
8.640625,29.13,64.81,-16.22,-18.54,65.88,13.25,38.22,163.9,19.5,27.47,3.66,35.550909090909094
8.65625,28.33,68.44,-24.16,-21.95,64.39,12.6,41.41,150.36,17.51,25.99,3.5,33.310909090909085
8.671875,28.12,71.11,-32.57,-25.52,62.84,12.09,43.6,134.55,18.92,23.12,4.25,30.95545454545455
8.6875,28.35,72.95,-41.09,-29.18,61.85,11.8,43.86,115.18,23.1,19.41,5.81,28.367272727272734
8.703125,28.69,73.9,-49.32,-32.97,61.64,11.64,41.3,90.44,29.05,15.59,7.9,25.26
8.71875,28.72,73.83,-56.97,-36.96,61.99,11.45,35.43,59.09,35.57,12.35,10.07,21.32454545454545
8.734375,28.13,72.64,-63.88,-41.16,62.39,11.06,26.41,21.2,41.65,10.13,11.75,16.39272727272727
8.75,26.79,70.41,-70.16,-45.53,62.31,10.38,14.91,-21.9,46.52,8.98,12.35,10.459999999999999
8.765625,24.78,67.4,-76.13,-50.0,61.47,9.48,2.01,-68.25,49.79,8.69,11.42,3.696363636363638
8.78125,22.27,64.02,-82.1,-54.51,59.85,8.48,-10.94,-116.03,51.34,8.87,8.77,-3.6345454545454534
8.796875,19.4,60.73,-88.28,-59.13,57.65,7.45,-22.26,-163.89,51.36,9.22,4.59,-11.196363636363634
8.8125,16.26,57.89,-94.51,-64.05,55.11,6.43,-29.98,-210.58,50.21,9.53,-0.54,-18.566363636363636
8.828125,12.88,55.7,-100.16,-69.47,52.27,5.34,-32.21,-254.55,48.37,9.72,-5.82,-25.266363636363632
8.84375,9.35,54.12,-104.26,-75.32,48.96,4.05,-27.98,-293.77,46.27,9.78,-10.52,-30.84727272727273
8.859375,5.86,52.98,-105.69,-81.13,44.87,2.46,-18.11,-326.27,44.15,9.74,-14.28,-35.03818181818181
8.875,2.61,51.96,-103.62,-86.02,39.75,0.57,-5.47,-351.03,42.01,9.71,-17.21,-37.88545454545454
8.890625,-0.25,50.77,-98.02,-88.96,33.56,-1.58,5.81,-368.41,39.66,9.89,-19.75,-39.75272727272727
8.90625,-2.73,49.18,-89.73,-89.08,26.52,-3.87,12.11,-379.78,36.83,10.5,-22.37,-41.12909090909091
8.921875,-5.04,47.09,-80.39,-86.14,19.03,-6.21,12.01,-386.4,33.47,11.67,-25.2,-42.37363636363636
8.9375,-7.45,44.58,-71.93,-80.63,11.49,-8.56,6.92,-388.45,29.71,13.36,-27.89,-43.53181818181818
8.953125,-10.2,41.82,-65.89,-73.76,4.19,-10.87,0.27,-384.63,25.89,15.29,-29.73,-44.329090909090915
8.96875,-13.35,39.1,-62.76,-67.07,-2.73,-13.09,-4.46,-372.91,22.27,17.02,-30.0,-44.36181818181819
8.984375,-16.75,36.69,-61.84,-62.0,-9.34,-15.15,-5.49,-351.79,18.88,18.09,-28.25,-43.35909090909092
9.0,-20.15,34.76,-61.49,-59.41,-15.85,-17.06,-3.4,-321.55,15.44,18.29,-24.45,-41.35181818181818
9.015625,-23.28,33.34,-59.83,-59.36,-22.56,-18.96,-0.27,-284.57,11.41,17.62,-18.97,-38.67545454545454
9.03125,-26.05,32.22,-55.56,-61.07,-29.82,-21.15,1.89,-244.6,6.2,16.37,-12.29,-35.805454545454545
9.046875,-28.5,31.05,-48.5,-63.28,-37.94,-23.97,2.45,-205.45,-0.66,14.92,-4.96,-33.167272727272724
9.0625,-30.87,29.49,-39.74,-64.63,-47.08,-27.62,2.28,-169.78,-9.42,13.63,2.45,-31.026363636363637
9.078125,-33.5,27.29,-31.2,-64.26,-57.17,-31.91,2.85,-138.52,-20.0,12.62,9.24,-29.505454545454544
9.09375,-36.74,24.51,-24.98,-62.11,-67.79,-36.18,5.14,-111.12,-31.91,11.87,14.58,-28.611818181818183
9.109375,-40.85,21.54,-22.6,-58.95,-78.11,-39.42,8.86,-86.3,-44.11,11.24,17.74,-28.269090909090913
9.125,-45.73,19.1,-24.64,-56.03,-86.89,-40.63,12.79,-62.95,-54.91,10.65,18.36,-28.26181818181818
9.140625,-50.88,18.04,-30.63,-54.4,-92.61,-39.2,15.51,-40.62,-62.25,10.07,16.82,-28.19545454545455
9.15625,-55.35,19.2,-39.4,-54.34,-93.84,-35.14,16.2,-19.56,-64.24,9.64,14.18,-27.513636363636365
9.171875,-57.9,23.09,-49.43,-55.02,-89.6,-29.1,14.9,-0.38,-59.94,9.47,11.87,-25.639999999999997
9.1875,-57.37,29.69,-59.17,-54.75,-79.77,-22.14,12.38,16.35,-49.89,9.59,11.15,-22.175454545454542
9.203125,-53.15,38.41,-67.2,-51.59,-65.2,-15.25,9.54,30.38,-36.13,9.94,12.51,-17.067272727272726
9.21875,-45.4,48.16,-72.41,-43.94,-47.56,-9.12,7.08,41.8,-21.52,10.27,15.56,-10.643636363636364
9.234375,-35.06,57.79,-74.08,-30.94,-28.86,-4.01,5.22,50.96,-8.81,10.41,19.27,-3.4645454545454544
9.25,-23.51,66.39,-71.95,-12.61,-10.86,0.14,3.72,58.23,0.31,10.2,22.54,3.8727272727272717
9.265625,-12.19,73.6,-66.3,10.19,5.27,3.55,2.12,63.88,5.54,9.73,24.75,10.921818181818182
9.28125,-2.12,79.66,-57.8,35.74,19.14,6.4,-0.0,67.99,7.66,9.16,25.97,17.436363636363634
9.296875,6.21,85.1,-47.3,61.53,30.83,8.85,-2.8,70.54,7.89,8.68,26.74,23.297272727272727
9.3125,12.79,90.47,-35.58,84.58,40.59,11.04,-6.02,71.48,7.24,8.41,27.56,28.41454545454546
9.328125,17.91,96.02,-23.16,102.26,48.53,13.09,-9.09,70.96,6.14,8.28,28.52,32.67818181818181
9.34375,21.85,101.64,-10.31,113.25,54.5,15.14,-11.4,69.29,4.61,8.14,29.15,35.98727272727273
9.359375,24.84,107.05,2.85,118.25,58.29,17.18,-12.6,67.02,2.58,7.8,28.73,38.36272727272728
9.375,27.0,112.02,16.2,119.84,59.84,19.05,-12.83,64.74,0.18,7.13,26.68,39.986363636363635
9.390625,28.34,116.44,29.57,121.3,59.38,20.5,-12.67,62.91,-2.2,6.11,22.91,41.14454545454546
9.40625,28.9,120.24,42.76,124.98,57.45,21.36,-12.9,61.7,-4.13,4.83,17.96,42.10454545454545
9.421875,28.77,123.27,55.64,131.17,54.82,21.58,-14.14,60.87,-5.36,3.41,12.74,42.979090909090914
9.4375,28.09,125.14,68.15,138.03,52.15,21.38,-16.64,59.93,-6.01,2.02,8.22,43.67818181818182
9.453125,26.99,125.36,80.3,142.84,49.93,21.07,-20.16,58.27,-6.45,0.79,5.15,44.00818181818182
9.46875,25.64,123.61,92.12,143.59,48.34,20.95,-24.15,55.4,-7.15,-0.21,3.77,43.81000000000001
9.484375,24.17,120.02,103.69,140.1,47.31,21.17,-28.03,51.12,-8.36,-0.99,3.95,43.10454545454545
9.5,22.68,115.28,115.08,133.86,46.57,21.67,-31.33,45.44,-9.97,-1.65,5.2,42.07545454545454
9.515625,21.35,110.39,126.32,126.9,45.74,22.3,-33.93,38.55,-11.62,-2.3,6.91,40.96454545454546
9.53125,20.34,106.29,137.41,120.55,44.48,22.87,-35.95,30.7,-12.82,-3.05,8.46,39.93454545454545
9.546875,19.81,103.38,148.31,114.86,42.46,23.23,-37.7,22.25,-13.3,-3.96,9.33,38.97
9.5625,19.85,101.46,158.9,109.01,39.54,23.34,-39.54,13.76,-13.06,-4.91,9.24,37.96272727272728
9.578125,20.41,99.82,169.14,102.28,35.71,23.17,-41.81,6.04,-12.5,-5.67,8.06,36.78636363636363
9.59375,21.24,97.6,179.11,94.81,31.1,22.7,-44.78,0.17,-12.16,-6.01,5.89,35.42454545454545
9.609375,21.96,94.29,189.09,87.64,25.88,21.92,-48.56,-2.81,-12.58,-5.68,3.12,34.02454545454546
9.625,22.19,89.89,199.58,81.95,20.21,20.85,-53.23,-2.21,-14.09,-4.6,0.53,32.82454545454545
9.640625,21.62,84.88,211.3,78.14,14.17,19.58,-58.69,1.96,-16.7,-2.84,-0.62,32.07272727272727
9.65625,20.12,80.08,225.24,75.38,7.77,18.25,-64.71,8.92,-20.03,-0.64,1.1,31.952727272727273
9.671875,17.78,76.18,242.33,71.84,1.03,17.0,-70.9,17.36,-23.47,1.68,6.74,32.50636363636364
9.6875,14.85,73.5,262.93,65.62,-5.97,15.86,-76.62,25.86,-26.36,3.88,16.39,33.630909090909086
9.703125,11.65,71.79,286.15,55.69,-13.06,14.73,-81.21,33.37,-28.21,5.8,28.87,35.051818181818184
9.71875,8.47,70.26,309.52,42.46,-20.03,13.43,-84.0,39.47,-28.95,7.38,42.1,36.373636363636365
9.734375,5.48,67.87,329.29,27.62,-26.69,11.8,-84.63,44.35,-28.95,8.64,53.78,37.14181818181819
9.75,2.64,63.77,341.56,13.45,-32.92,9.77,-83.04,48.49,-28.92,9.54,62.29,36.96636363636364
9.765625,-0.21,57.62,343.63,2.07,-38.72,7.53,-79.55,52.27,-29.62,10.03,67.11,35.650909090909096
9.78125,-3.34,49.88,335.05,-5.23,-44.18,5.34,-74.67,55.76,-31.57,10.04,68.65,33.24818181818182
9.796875,-6.89,41.67,317.77,-8.14,-49.48,3.45,-68.98,58.71,-34.95,9.6,67.61,30.033636363636365
9.8125,-10.87,34.4,295.22,-7.16,-54.9,1.95,-62.89,60.7,-39.48,8.83,64.37,26.379090909090916
9.828125,-15.04,29.63,270.87,-3.28,-60.82,0.7,-56.51,61.44,-44.51,7.97,58.88,22.666363636363638
9.84375,-19.08,28.75,247.16,2.35,-67.62,-0.59,-49.76,60.83,-49.12,7.15,50.86,19.175454545454546
9.859375,-22.69,32.87,225.01,8.6,-75.6,-2.23,-42.56,59.07,-52.18,6.43,40.49,16.11
9.875,-25.75,42.41,204.33,14.49,-84.74,-4.32,-35.17,56.49,-52.57,5.69,28.67,13.593636363636366
9.890625,-28.35,56.56,184.75,19.17,-94.44,-6.79,-28.47,53.51,-49.44,4.88,16.86,11.658181818181818
9.90625,-30.72,72.83,166.24,22.07,-103.5,-9.41,-23.83,50.41,-42.55,4.02,6.54,10.190909090909095
9.921875,-33.2,87.17,149.1,23.01,-110.18,-11.89,-22.68,47.38,-32.43,3.32,-1.5,8.918181818181814
9.9375,-36.11,94.84,133.69,22.39,-112.69,-14.08,-25.92,44.45,-20.34,3.07,-7.41,7.444545454545454
9.953125,-39.64,91.91,119.97,21.08,-109.69,-15.94,-33.32,41.6,-7.91,3.47,-12.11,5.401818181818182
9.96875,-43.79,76.51,107.55,19.99,-100.78,-17.61,-43.36,38.78,3.39,4.5,-16.74,2.585454545454545
9.984375,-48.15,49.42,95.85,19.55,-86.64,-19.32,-53.64,36.02,12.7,5.89,-22.1,-0.9472727272727297
10.0,-51.93,13.34,84.51,19.28,-68.85,-21.36,-61.61,33.38,19.93,7.25,-28.27,-4.9390909090909085
10.015625,-53.97,-28.52,73.47,17.92,-49.38,-23.96,-65.34,30.94,25.57,8.26,-34.67,-9.061818181818182
10.03125,-53.11,-73.7,62.87,14.06,-29.97,-27.24,-64.02,28.77,30.34,8.79,-40.49,-13.063636363636364
10.046875,-48.6,-120.83,52.84,6.9,-11.78,-31.14,-57.86,26.8,34.72,8.92,-45.08,-16.828181818181818
10.0625,-40.48,-168.89,43.25,-3.12,4.72,-35.36,-47.75,24.94,38.85,8.84,-48.25,-20.295454545454547
10.078125,-29.66,-216.02,33.75,-14.44,19.52,-39.32,-34.86,23.04,42.57,8.77,-50.19,-23.34909090909091
10.09375,-17.67,-258.93,24.04,-25.22,32.71,-42.26,-20.36,20.96,45.6,8.79,-51.15,-25.771818181818183
10.109375,-6.16,-293.41,14.0,-34.16,44.24,-43.38,-5.4,18.57,47.79,8.89,-51.14,-27.28727272727273
10.125,3.67,-315.74,3.88,-41.16,53.86,-42.11,8.83,15.73,49.19,8.94,-49.96,-27.71545454545454
10.140625,11.32,-324.34,-5.99,-47.07,61.18,-38.28,21.2,12.27,49.93,8.9,-47.4,-27.116363636363634
10.15625,16.95,-320.42,-15.36,-52.96,65.96,-32.26,30.84,7.99,50.16,8.73,-43.62,-25.817272727272726
10.171875,21.08,-307.49,-24.32,-59.37,68.24,-24.87,37.31,2.94,49.97,8.47,-39.27,-24.30090909090909
10.1875,24.21,-289.89,-33.29,-65.96,68.44,-17.15,40.84,-2.48,49.32,8.14,-35.27,-23.008181818181818
10.203125,26.57,-271.1,-42.65,-71.84,67.22,-10.05,42.13,-7.37,48.26,7.7,-32.37,-22.13636363636364
10.21875,28.09,-252.83,-52.47,-76.18,65.33,-4.17,42.1,-10.54,46.95,7.1,-30.81,-21.584545454545452
10.234375,28.65,-234.99,-62.22,-78.73,63.33,0.37,41.58,-10.88,45.74,6.32,-30.22,-21.004545454545454
10.25,28.26,-216.56,-70.91,-79.77,61.54,3.8,41.04,-7.73,44.95,5.4,-29.9,-19.98909090909091
10.265625,27.17,-196.65,-77.61,-79.8,60.01,6.51,40.46,-1.2,44.79,4.45,-29.2,-18.279090909090908
10.28125,25.85,-175.2,-81.9,-79.05,58.71,8.81,39.52,7.94,45.12,3.55,-27.77,-15.856363636363632
10.296875,24.74,-153.04,-84.31,-77.37,57.53,10.87,37.78,18.56,45.49,2.7,-25.57,-12.965454545454547
10.3125,24.06,-131.45,-86.21,-74.37,56.41,12.69,35.0,29.61,45.25,1.73,-22.77,-10.004545454545452
10.328125,23.74,-111.56,-89.48,-69.76,55.28,14.28,31.33,40.37,43.8,0.4,-19.5,-7.372727272727275
10.34375,23.48,-93.92,-95.91,-63.34,53.95,15.67,27.25,50.51,40.8,-1.45,-15.88,-5.3490909090909105
10.359375,22.93,-78.47,-106.51,-54.96,52.13,16.96,23.48,59.91,36.31,-3.78,-12.07,-4.006363636363634
10.375,21.97,-64.93,-121.11,-44.25,49.43,18.27,20.6,68.46,30.69,-6.27,-8.32,-3.2236363636363663
10.390625,20.76,-53.13,-138.15,-30.65,45.55,19.6,18.79,75.96,24.54,-8.51,-4.93,-2.7427272727272736
10.40625,19.69,-43.35,-154.69,-13.73,40.45,20.88,17.71,82.16,18.45,-10.09,-1.96,-2.225454545454545
10.421875,19.11,-36.11,-166.82,6.34,34.4,21.98,16.58,86.89,12.87,-10.76,0.75,-1.3427272727272723
10.4375,19.17,-31.88,-170.42,28.48,27.94,22.83,14.52,90.08,8.03,-10.48,3.63,0.1727272727272725
10.453125,19.66,-30.66,-162.38,50.88,21.67,23.42,10.81,91.68,3.89,-9.31,7.03,2.4263636363636376
10.46875,20.08,-31.85,-141.81,71.58,15.97,23.88,5.2,91.6,0.21,-7.38,10.99,5.315454545454546
10.484375,19.91,-34.47,-110.67,89.23,10.87,24.36,-2.03,89.66,-3.37,-4.86,15.12,8.522727272727272
10.5,18.76,-37.52,-73.48,103.42,6.01,24.94,-10.04,85.68,-7.22,-2.09,18.82,11.57090909090909
10.515625,16.57,-40.42,-35.95,114.39,0.88,25.65,-17.68,79.68,-11.67,0.46,21.57,13.952727272727275
10.53125,13.6,-43.15,-3.11,122.46,-4.92,26.39,-23.7,71.9,-16.81,2.22,23.2,15.28
10.546875,10.24,-46.0,22.26,127.36,-11.46,27.09,-26.99,62.77,-22.36,2.74,23.96,15.419090909090913
10.5625,6.89,-49.2,40.13,128.21,-18.46,27.61,-26.92,52.76,-27.59,1.89,24.34,14.514545454545452
10.578125,3.85,-52.5,52.52,124.13,-25.37,27.87,-23.5,42.25,-31.3,0.0,24.7,12.968181818181819
10.59375,1.16,-55.08,62.06,115.04,-31.73,27.78,-17.41,31.58,-32.24,-2.29,25.17,11.276363636363639
10.609375,-1.28,-55.8,70.59,102.06,-37.41,27.35,-9.8,21.04,-29.51,-4.29,25.61,9.86909090909091
10.625,-3.71,-53.65,78.53,87.15,-42.7,26.57,-1.92,11.04,-23.05,-5.55,25.82,8.957272727272727
10.640625,-6.4,-48.13,85.2,72.26,-48.19,25.56,5.41,2.08,-13.78,-6.05,25.71,8.515454545454547
10.65625,-9.6,-39.5,89.7,58.41,-54.58,24.43,11.9,-5.38,-3.39,-6.04,25.34,8.29909090909091
10.671875,-13.39,-28.65,91.73,45.46,-62.35,23.24,17.81,-11.07,6.34,-5.91,24.84,8.004545454545456
10.6875,-17.64,-16.77,91.87,32.67,-71.65,22.02,23.61,-14.98,14.11,-5.89,24.25,7.418181818181818
10.703125,-22.01,-4.97,91.22,19.59,-82.1,20.69,29.58,-17.36,19.5,-6.08,23.44,6.5
10.71875,-26.05,5.9,90.74,6.65,-92.76,19.19,35.64,-18.74,22.91,-6.43,22.2,5.386363636363637
10.734375,-29.41,15.42,90.84,-4.99,-102.23,17.45,41.35,-19.81,25.1,-6.9,20.42,4.294545454545457
10.75,-32.07,23.48,91.21,-14.2,-108.79,15.53,46.3,-21.43,26.75,-7.58,18.15,3.395454545454543
10.765625,-34.34,30.16,91.31,-20.65,-110.83,13.53,50.33,-24.55,28.09,-8.53,15.63,2.7409090909090903
10.78125,-36.78,35.59,90.7,-25.04,-107.29,11.63,53.69,-29.94,28.94,-9.81,13.02,2.2463636363636352
10.796875,-39.92,39.88,89.39,-28.6,-98.02,9.96,56.8,-37.85,28.96,-11.3,10.32,1.7836363636363624
10.8125,-44.08,43.1,87.77,-32.23,-83.85,8.58,59.87,-47.77,27.96,-12.83,7.24,1.250909090909091
10.828125,-49.15,45.33,86.19,-36.08,-66.4,7.4,62.58,-58.52,26.11,-14.14,3.41,0.6118181818181806
10.84375,-54.55,46.71,84.58,-39.62,-47.48,6.17,64.1,-68.53,23.82,-15.02,-1.36,-0.10727272727272698
10.859375,-59.35,47.46,82.33,-42.24,-28.64,4.64,63.51,-76.48,21.62,-15.4,-6.86,-0.8554545454545465
10.875,-62.42,47.87,78.59,-43.87,-10.8,2.58,60.34,-81.71,19.84,-15.34,-12.41,-1.5754545454545443
10.890625,-62.69,48.26,72.77,-45.01,5.71,-0.05,55.06,-84.38,18.55,-15.01,-17.08,-2.169999999999999
10.90625,-59.35,48.81,65.04,-46.39,20.95,-3.09,49.01,-85.14,17.55,-14.57,-20.07,-2.477272727272727
10.921875,-52.17,49.58,56.46,-48.4,34.92,-6.21,43.87,-84.62,16.59,-14.15,-21.11,-2.2945454545454553
10.9375,-41.65,50.4,48.54,-50.79,47.4,-9.06,40.96,-83.05,15.5,-13.75,-20.45,-1.45
10.953125,-28.98,51.05,42.59,-52.86,57.91,-11.43,40.78,-80.02,14.31,-13.3,-18.89,0.10545454545454547
10.96875,-15.79,51.33,39.04,-53.96,65.83,-13.32,43.03,-74.74,13.18,-12.74,-17.25,2.2372727272727273
10.984375,-3.65,51.19,37.23,-53.84,70.89,-14.96,47.03,-66.36,12.23,-12.05,-16.16,4.686363636363637
11.0,6.37,50.76,35.66,-52.77,73.23,-16.7,52.18,-54.5,11.42,-11.38,-15.74,7.13909090909091
11.015625,13.95,50.24,32.69,-51.25,73.58,-18.9,58.03,-39.42,10.5,-10.94,-15.72,9.341818181818182
11.03125,19.49,49.81,27.23,-49.63,72.97,-21.78,64.02,-22.08,9.16,-10.93,-15.58,11.152727272727269
11.046875,23.73,49.53,19.14,-47.91,72.27,-25.44,69.14,-4.03,7.15,-11.35,-14.84,12.490000000000002
11.0625,27.29,49.35,9.17,-45.81,71.99,-29.79,71.89,13.02,4.46,-11.96,-13.2,13.31
11.078125,30.48,49.12,-1.42,-43.02,72.01,-34.47,70.73,27.59,1.27,-12.34,-10.59,13.57818181818182
11.09375,33.2,48.7,-11.56,-39.49,71.84,-38.93,64.83,39.02,-2.12,-12.05,-7.23,13.29181818181818
11.109375,35.16,47.97,-20.68,-35.52,70.98,-42.36,54.68,47.67,-5.42,-10.82,-3.55,12.555454545454545
11.125,36.18,46.87,-28.97,-31.63,69.25,-43.93,41.96,54.79,-8.45,-8.65,-0.26,11.559999999999999
11.140625,36.29,45.37,-37.21,-28.25,66.91,-43.0,28.98,61.93,-11.17,-5.8,1.78,10.53
11.15625,35.65,43.44,-46.47,-25.51,64.43,-39.36,17.71,70.05,-13.68,-2.68,1.73,9.573636363636362
11.171875,34.53,41.18,-57.79,-23.16,62.19,-33.39,9.14,78.91,-16.19,0.32,-0.9,8.621818181818181
11.1875,33.14,38.77,-71.65,-20.74,60.15,-25.91,3.27,86.98,-18.94,2.9,-5.87,7.463636363636363
11.203125,31.58,36.47,-87.51,-17.88,57.92,-18.01,-0.53,92.21,-22.16,4.95,-12.15,5.899090909090907
11.21875,29.91,34.52,-103.44,-14.57,54.88,-10.67,-2.96,93.17,-25.96,6.45,-18.16,3.9245454545454574
11.234375,28.18,32.99,-116.19,-11.18,50.64,-4.51,-4.5,89.95,-30.18,7.53,-22.34,1.8536363636363646
11.25,26.49,31.81,-121.98,-8.35,45.24,0.24,-5.41,84.39,-34.29,8.36,-23.84,0.24181818181818118
11.265625,24.96,30.73,-117.71,-6.67,39.14,3.73,-5.99,79.15,-37.4,9.1,-22.86,-0.3472727272727267
11.28125,23.68,29.49,-102.37,-6.36,33.02,6.26,-6.7,76.44,-38.42,9.94,-20.59,0.39909090909090816
11.296875,22.71,27.93,-77.79,-7.22,27.45,8.18,-8.11,76.86,-36.46,11.0,-18.53,2.3654545454545444
11.3125,22.05,26.17,-48.16,-8.73,22.64,9.77,-10.7,79.18,-31.16,12.34,-17.75,5.0590909090909095
11.328125,21.63,24.66,-18.71,-10.37,18.36,11.23,-14.52,80.96,-22.91,13.81,-18.36,7.79818181818182
11.34375,21.28,24.15,6.17,-11.84,14.13,12.65,-19.13,79.74,-12.8,15.24,-19.51,10.007272727272728
11.359375,20.74,25.55,24.23,-13.2,9.37,14.04,-23.7,74.03,-2.21,16.38,-19.9,11.393636363636363
11.375,19.69,29.66,35.71,-14.77,3.72,15.34,-27.26,63.68,7.61,17.03,-18.52,11.990000000000002
11.390625,17.88,37.0,42.43,-16.9,-2.89,16.38,-29.04,49.57,15.97,17.17,-15.12,12.04090909090909
11.40625,15.25,47.51,46.51,-19.68,-10.14,17.02,-28.7,33.14,22.89,16.95,-10.15,11.872727272727273
11.421875,12.04,60.6,49.22,-22.9,-17.49,17.19,-26.36,16.04,28.83,16.67,-4.41,11.766363636363637
11.4375,8.68,75.36,50.78,-26.07,-24.4,16.94,-22.5,0.18,34.39,16.56,1.52,11.94909090909091
11.453125,5.64,90.8,50.77,-28.73,-30.5,16.53,-17.69,-12.29,39.83,16.77,7.45,12.598181818181816
11.46875,3.15,106.17,48.92,-30.69,-35.88,16.27,-12.41,-19.23,44.9,17.18,13.42,13.8
11.484375,1.13,120.97,45.62,-32.14,-40.95,16.38,-6.87,-19.39,48.91,17.52,19.34,15.50181818181818
11.5,-0.79,134.93,41.96,-33.65,-46.43,16.92,-1.09,-13.5,51.08,17.48,24.72,17.420909090909092
11.515625,-3.06,147.76,39.25,-35.76,-53.11,17.76,4.98,-4.9,50.93,16.79,28.85,19.044545454545453
11.53125,-5.96,159.02,38.43,-38.71,-61.47,18.64,11.23,0.85,48.63,15.33,31.21,19.745454545454546
11.546875,-9.52,168.16,39.68,-42.14,-71.57,19.32,17.25,-2.39,45.03,13.18,31.91,18.991818181818182
11.5625,-13.48,174.64,42.43,-45.16,-82.83,19.65,22.39,-19.09,41.36,10.5,31.72,16.55727272727273
11.578125,-17.45,178.15,45.66,-46.7,-94.02,19.57,25.93,-50.17,38.76,7.6,31.7,12.639090909090909
11.59375,-21.08,178.58,48.51,-45.93,-103.43,19.08,27.36,-92.51,37.82,4.79,32.67,7.805454545454544
11.609375,-24.21,175.99,50.6,-42.55,-109.14,18.18,26.59,-140.06,38.41,2.24,34.71,2.796363636363637
11.625,-26.91,170.55,52.12,-36.89,-109.56,16.9,24.1,-186.06,39.79,0.03,37.2,-1.7027272727272724
11.640625,-29.37,162.48,53.61,-29.6,-103.86,15.22,20.77,-225.33,41.03,-1.92,39.24,-5.248181818181819
11.65625,-31.82,152.11,55.48,-21.4,-92.29,13.28,17.59,-255.51,41.37,-3.73,40.19,-7.702727272727273
11.671875,-34.46,139.91,57.74,-12.82,-76.15,11.21,15.37,-276.82,40.49,-5.41,39.95,-9.180909090909088
11.6875,-37.48,126.46,59.87,-4.22,-57.39,9.2,14.45,-290.81,38.48,-6.89,38.86,-9.951818181818183
11.703125,-41.07,112.27,61.14,4.04,-37.95,7.37,14.69,-298.88,35.6,-7.95,37.32,-10.31090909090909
11.71875,-45.4,97.66,60.92,11.43,-19.27,5.73,15.53,-301.57,32.12,-8.46,35.5,-10.528181818181823
11.734375,-50.46,82.74,59.15,17.28,-2.0,4.19,16.35,-298.81,28.11,-8.41,33.11,-10.795454545454545
11.75,-55.79,67.56,56.32,20.97,13.82,2.59,16.56,-290.69,23.49,-8.07,29.79,-11.222727272727269
11.765625,-60.38,52.27,53.38,22.19,28.41,0.82,15.9,-278.17,17.94,-7.76,25.39,-11.819090909090914
11.78125,-62.77,37.29,51.35,21.13,41.76,-1.22,14.32,-263.01,11.1,-7.73,20.26,-12.501818181818182
11.796875,-61.52,23.16,50.98,18.44,53.52,-3.5,12.02,-247.05,2.58,-8.06,15.12,-13.119090909090907
11.8125,-55.79,10.37,52.52,14.96,63.13,-5.91,9.21,-231.28,-7.85,-8.54,10.67,-13.50090909090909
11.828125,-45.79,-0.85,55.76,11.39,70.09,-8.31,6.1,-215.34,-20.16,-8.93,7.26,-13.525454545454549
11.84375,-32.84,-10.56,60.14,8.22,74.3,-10.49,2.78,-197.76,-33.84,-9.04,4.73,-13.123636363636365
11.859375,-18.91,-19.09,65.05,5.61,76.11,-12.36,-0.87,-177.01,-48.06,-8.87,2.66,-12.340000000000002
11.875,-5.89,-26.77,70.03,3.62,76.23,-13.91,-4.99,-152.43,-61.77,-8.55,0.69,-11.249090909090908
11.890625,4.99,-33.82,74.81,2.29,75.4,-15.34,-9.75,-124.95,-74.08,-8.17,-1.19,-9.98272727272727
11.90625,13.41,-40.27,79.09,1.67,74.22,-16.99,-15.18,-96.75,-84.5,-7.66,-2.69,-8.695454545454545
11.921875,19.75,-46.14,82.36,1.78,72.92,-19.26,-21.11,-70.66,-92.99,-6.84,-3.54,-7.611818181818182
11.9375,24.68,-51.54,83.75,2.57,71.52,-22.35,-27.2,-49.0,-99.87,-5.48,-3.74,-6.9690909090909114
11.953125,28.72,-56.67,82.23,3.88,69.94,-26.27,-33.02,-32.94,-105.54,-3.51,-3.69,-6.98818181818182
11.96875,32.1,-61.73,77.04,5.47,68.09,-30.65,-38.16,-22.4,-110.1,-1.08,-3.98,-7.763636363636362
11.984375,34.79,-66.72,68.06,7.13,66.06,-34.89,-42.31,-16.34,-113.07,1.5,-4.99,-9.16181818181818
12.0,36.7,-71.27,56.04,8.62,63.97,-38.28,-45.38,-13.43,-113.4,3.9,-6.65,-10.834545454545456
12.015625,37.82,-74.64,42.24,9.69,61.9,-40.16,-47.53,-12.43,-109.8,5.9,-8.43,-12.312727272727273
12.03125,38.24,-76.02,27.99,10.07,59.86,-40.11,-49.18,-12.36,-101.3,7.47,-9.63,-13.17909090909091
12.046875,38.04,-74.93,14.15,9.54,57.7,-37.95,-51.01,-12.31,-87.94,8.64,-9.81,-13.261818181818182
12.0625,37.27,-71.61,1.07,7.99,55.17,-33.84,-53.73,-11.35,-70.87,9.43,-8.99,-12.67818181818182
12.078125,35.93,-66.97,-11.08,5.59,51.97,-28.11,-57.9,-8.47,-52.17,9.81,-7.66,-11.732727272727272
12.09375,33.99,-62.4,-21.79,2.68,47.88,-21.29,-63.69,-2.82,-34.12,9.71,-6.48,-10.757272727272724
12.109375,31.44,-59.13,-29.99,-0.27,42.8,-13.93,-70.71,5.87,-18.42,9.09,-5.94,-9.926363636363634
12.125,28.44,-57.6,-34.36,-2.86,36.9,-6.55,-78.05,17.14,-5.62,8.06,-6.25,-9.159090909090908
12.140625,25.28,-57.12,-33.94,-4.84,30.53,0.34,-84.55,29.85,4.76,6.83,-7.36,-8.201818181818181
12.15625,22.41,-55.93,-28.76,-6.14,24.18,6.34,-89.03,42.63,13.74,5.65,-9.17,-6.7345454545454535
12.171875,20.3,-51.59,-20.05,-6.85,18.29,11.2,-90.61,54.41,22.25,4.69,-11.75,-4.5190909090909095
12.1875,19.28,-41.61,-9.81,-7.15,13.08,14.88,-88.94,64.71,30.55,4.01,-15.27,-1.4790909090909095
12.203125,19.37,-24.25,-0.19,-7.27,8.51,17.6,-84.11,73.69,38.17,3.51,-19.88,2.2863636363636357
12.21875,20.22,0.82,6.97,-7.5,4.23,19.8,-76.55,81.76,44.23,3.09,-25.35,6.52
12.234375,21.13,31.77,10.29,-8.08,-0.15,22.0,-66.94,89.17,47.9,2.65,-31.03,10.791818181818183
12.25,21.39,64.57,8.68,-9.15,-5.0,24.64,-56.05,95.78,48.85,2.18,-35.97,14.538181818181819
12.265625,20.52,93.55,1.24,-10.69,-10.47,27.82,-44.63,101.12,47.36,1.73,-39.25,17.118181818181817
12.28125,18.43,112.71,-12.53,-12.56,-16.54,31.3,-33.38,104.75,44.25,1.3,-40.5,17.930000000000003
12.296875,15.48,117.57,-32.3,-14.56,-23.03,34.56,-22.82,106.58,40.52,0.83,-40.01,16.62
12.3125,12.27,106.23,-56.42,-16.58,-29.72,37.08,-13.29,106.98,37.01,0.24,-38.67,13.193636363636363
12.328125,9.37,79.86,-81.9,-18.71,-36.41,38.56,-5.01,106.62,34.15,-0.48,-37.54,8.046363636363635
12.34375,7.05,41.68,-105.07,-21.21,-42.9,38.99,1.87,106.05,31.94,-1.27,-37.27,1.805454545454544
12.359375,5.2,-4.31,-122.6,-24.39,-49.09,38.68,7.15,105.46,30.2,-1.97,-37.87,-4.867272727272731
12.375,3.44,-54.5,-132.78,-28.36,-55.05,38.05,10.67,104.57,28.76,-2.47,-38.69,-11.487272727272726
12.390625,1.27,-106.0,-136.09,-32.87,-61.01,37.54,12.37,102.85,27.71,-2.72,-38.83,-17.798181818181817
12.40625,-1.64,-156.22,-135.02,-37.21,-67.39,37.53,12.44,99.87,27.32,-2.79,-37.61,-23.701818181818183
12.421875,-5.34,-202.25,-133.03,-40.39,-74.6,38.37,11.41,95.53,27.77,-2.82,-34.92,-29.115454545454543
12.4375,-9.61,-240.73,-133.07,-41.39,-82.94,40.19,10.03,90.11,28.99,-2.89,-31.25,-33.86909090909091
12.453125,-14.04,-268.46,-136.38,-39.48,-92.3,42.74,9.08,84.08,30.57,-3.02,-27.39,-37.69090909090909
12.46875,-18.25,-283.41,-142.07,-34.51,-102.04,45.17,9.19,77.84,31.83,-3.18,-24.08,-40.31909090909091
12.484375,-22.0,-285.46,-147.77,-26.96,-111.03,46.09,10.53,71.5,32.14,-3.33,-21.61,-41.62727272727273
12.5,-25.24,-276.53,-150.88,-17.78,-117.71,44.0,12.9,64.91,31.17,-3.43,-19.8,-41.671818181818175
12.515625,-28.15,-259.75,-149.86,-8.16,-120.47,37.9,15.77,57.78,28.94,-3.53,-18.18,-40.700909090909086
12.53125,-31.01,-238.47,-144.89,0.84,-118.01,27.82,18.5,49.8,25.84,-3.67,-16.4,-39.059090909090905
12.546875,-34.12,-215.35,-137.54,8.51,-109.82,14.98,20.49,40.89,22.28,-3.85,-14.43,-37.087272727272726
12.5625,-37.8,-192.13,-129.79,14.6,-96.33,1.38,21.39,31.15,18.67,-4.04,-12.62,-35.047272727272734
12.578125,-42.19,-169.79,-123.05,19.19,-78.94,-10.87,21.12,20.88,15.18,-4.13,-11.4,-33.090909090909086
12.59375,-47.22,-148.98,-117.63,22.58,-59.52,-20.4,19.82,10.46,11.82,-4.06,-10.89,-31.274545454545454
12.609375,-52.39,-130.2,-112.99,25.03,-39.97,-26.75,17.78,0.35,8.43,-3.79,-10.84,-29.576363636363627
12.625,-56.76,-113.94,-108.31,26.71,-21.57,-30.37,15.26,-8.93,4.83,-3.36,-10.57,-27.91
12.640625,-59.06,-100.43,-103.2,27.69,-4.89,-31.99,12.42,-16.78,0.84,-2.78,-9.35,-26.13909090909091
12.65625,-58.07,-89.58,-97.84,27.96,10.09,-32.21,9.29,-22.52,-3.71,-2.14,-6.57,-24.118181818181814
12.671875,-53.04,-81.02,-92.83,27.51,23.62,-31.35,5.86,-25.51,-8.87,-1.42,-1.96,-21.728181818181817
12.6875,-44.08,-74.19,-88.81,26.38,35.72,-29.52,2.19,-25.31,-14.49,-0.58,4.25,-18.94909090909091
12.703125,-32.17,-68.52,-86.15,24.64,46.05,-26.92,-1.55,-21.9,-20.1,0.44,11.21,-15.906363636363634
12.71875,-18.93,-63.51,-84.88,22.46,54.08,-24.01,-5.12,-15.72,-24.87,1.74,17.56,-12.836363636363636
12.734375,-6.03,-58.84,-84.81,20.07,59.41,-21.46,-8.38,-7.64,-27.79,3.29,21.72,-10.041818181818185
12.75,5.28,-54.29,-85.59,17.76,62.07,-19.83,-11.37,1.27,-27.98,5.02,22.53,-7.73909090909091
12.765625,14.41,-49.83,-86.84,15.86,62.57,-19.38,-14.33,10.1,-25.08,6.73,20.02,-5.97909090909091
12.78125,21.34,-45.69,-88.19,14.61,61.75,-19.93,-17.62,18.34,-19.44,8.26,15.69,-4.625454545454545
12.796875,26.39,-42.38,-89.22,14.12,60.45,-21.0,-21.44,25.98,-12.04,9.47,12.21,-3.4054545454545457
12.8125,29.89,-40.57,-89.62,14.28,59.24,-22.08,-25.88,33.29,-4.17,10.33,12.38,-2.082727272727273
12.828125,32.06,-40.84,-89.25,14.82,58.31,-22.8,-30.81,40.54,3.1,10.84,17.87,-0.5599999999999997
12.84375,33.0,-43.29,-88.22,15.34,57.54,-23.14,-36.1,47.69,9.2,11.07,28.52,1.055454545454546
12.859375,32.83,-47.41,-87.01,15.5,56.71,-23.33,-41.63,54.35,14.2,11.11,42.37,2.5172727272727267
12.875,31.77,-52.13,-86.48,15.1,55.68,-23.7,-47.3,59.89,18.46,11.02,56.58,3.5354545454545456
12.890625,30.14,-56.16,-87.61,14.13,54.46,-24.51,-52.86,63.75,22.35,10.83,68.51,3.9118181818181825
12.90625,28.32,-58.39,-91.14,12.7,53.19,-25.95,-57.78,65.65,25.96,10.57,76.52,3.604545454545455
12.921875,26.62,-58.15,-96.97,11.05,51.99,-28.14,-61.28,65.74,29.11,10.33,80.07,2.7609090909090885
12.9375,25.24,-55.22,-103.7,9.4,50.84,-31.11,-62.57,64.41,31.49,10.11,79.43,1.6654545454545449
12.953125,24.18,-49.69,-108.5,7.95,49.63,-34.8,-61.16,62.19,32.91,9.93,75.28,0.7200000000000014
12.96875,23.3,-41.78,-107.66,6.84,48.16,-38.9,-57.0,59.52,33.4,9.67,68.49,0.36727272727272653
12.984375,22.43,-31.86,-97.76,6.03,46.26,-42.86,-50.47,56.68,33.13,9.22,60.0,0.9818181818181823
13.0,21.45,-20.42,-77.02,5.37,43.85,-45.87,-42.13,53.79,32.26,8.43,50.73,2.7672727272727276
13.015625,20.39,-8.18,-46.32,4.58,40.95,-47.1,-32.44,50.91,30.83,7.33,41.31,5.66
13.03125,19.41,4.0,-9.18,3.4,37.64,-45.98,-21.71,47.99,28.84,6.1,31.88,9.308181818181819
13.046875,18.71,15.3,29.23,1.66,34.01,-42.41,-10.17,44.92,26.28,4.98,22.2,13.155454545454546
13.0625,18.36,25.1,63.81,-0.57,30.13,-36.8,1.79,41.55,23.3,4.14,11.97,16.616363636363637
13.078125,18.17,33.09,91.13,-3.04,26.09,-29.89,13.47,37.73,20.24,3.66,1.32,19.27
13.09375,17.75,39.2,110.22,-5.4,21.97,-22.5,23.86,33.43,17.51,3.41,-9.02,20.948181818181812
13.109375,16.67,43.51,122.18,-7.36,17.85,-15.25,32.07,28.79,15.42,3.23,-17.88,21.74818181818182
13.125,14.73,46.02,129.08,-8.87,13.74,-8.5,37.59,24.1,14.05,2.96,-24.2,21.88181818181818
13.140625,12.03,46.74,132.52,-10.06,9.59,-2.45,40.53,19.69,13.21,2.63,-27.59,21.53090909090909
13.15625,8.97,45.79,133.03,-11.23,5.26,2.84,41.61,15.7,12.49,2.25,-28.53,20.743636363636366
13.171875,5.99,43.43,130.25,-12.65,0.63,7.29,41.71,11.97,11.44,1.83,-28.08,19.437272727272727
13.1875,3.35,40.15,123.74,-14.41,-4.36,10.9,41.63,8.16,9.69,1.26,-27.29,17.529090909090908
13.203125,0.98,36.57,113.9,-16.42,-9.61,13.75,41.81,3.8,7.01,0.38,-26.76,15.037272727272727
13.21875,-1.52,33.21,102.19,-18.51,-15.0,16.07,42.3,-1.41,3.32,-0.96,-26.43,12.114545454545452
13.234375,-4.58,30.4,90.7,-20.55,-20.35,18.13,42.91,-7.4,-1.34,-2.69,-25.91,9.02909090909091
13.25,-8.44,28.19,81.11,-22.52,-25.52,20.11,43.42,-13.59,-6.71,-4.64,-24.83,6.052727272727274
13.265625,-12.97,26.4,73.91,-24.62,-30.51,21.98,43.66,-19.0,-12.39,-6.65,-23.29,3.32
13.28125,-17.69,24.79,68.21,-27.16,-35.39,23.55,43.51,-22.37,-17.85,-8.63,-21.79,0.8345454545454533
13.296875,-22.02,23.14,62.48,-30.44,-40.34,24.59,42.95,-22.55,-22.55,-10.63,-20.93,-1.4818181818181821
13.3125,-25.51,21.3,55.4,-34.62,-45.58,24.95,41.96,-18.79,-26.21,-12.72,-21.01,-3.7118181818181815
13.328125,-28.11,19.22,46.67,-39.54,-51.4,24.78,40.52,-11.02,-28.83,-14.9,-21.81,-5.8563636363636355
13.34375,-30.14,16.89,37.15,-44.63,-58.09,24.45,38.59,0.15,-30.84,-17.03,-22.72,-7.838181818181818
13.359375,-32.2,14.32,28.26,-48.94,-65.79,24.37,36.16,13.58,-32.85,-18.87,-23.14,-9.554545454545455
13.375,-34.95,11.51,21.18,-51.31,-74.27,24.84,33.18,27.92,-35.52,-20.27,-22.8,-10.953636363636363
13.390625,-38.86,8.51,16.15,-50.68,-82.81,25.85,29.6,41.99,-39.31,-21.12,-21.96,-12.05818181818182
13.40625,-44.07,5.33,12.5,-46.45,-90.08,27.14,25.4,55.0,-44.3,-21.46,-21.19,-12.925454545454544
13.421875,-50.23,1.98,9.03,-38.76,-94.4,28.31,20.69,66.54,-50.14,-21.23,-21.03,-13.567272727272725
13.4375,-56.45,-1.61,4.71,-28.48,-94.24,29.04,15.72,76.43,-56.05,-20.25,-21.7,-13.898181818181815
13.453125,-61.42,-5.66,-0.75,-16.98,-88.67,29.16,10.88,84.51,-60.9,-18.28,-22.95,-13.732727272727272
13.46875,-63.65,-10.48,-6.82,-5.66,-77.79,28.73,6.46,90.55,-63.49,-15.18,-24.27,-12.872727272727275
13.484375,-61.98,-16.33,-12.5,4.35,-62.67,27.87,2.53,94.26,-62.8,-11.1,-25.17,-11.23090909090909
13.5,-55.94,-23.15,-16.87,12.48,-45.06,26.7,-1.13,95.36,-58.37,-6.52,-25.36,-8.896363636363635
13.515625,-45.99,-30.38,-19.64,18.63,-26.85,25.31,-4.9,93.73,-50.45,-2.19,-24.82,-6.1409090909090915
13.53125,-33.44,-36.84,-21.26,22.97,-9.55,23.76,-9.15,89.43,-40.08,1.23,-23.68,-3.328181818181818
13.546875,-20.0,-40.98,-22.76,25.8,5.99,22.13,-14.1,82.63,-28.72,3.39,-22.05,-0.7881818181818173
13.5625,-7.21,-41.2,-25.23,27.41,19.5,20.57,-19.75,73.76,-17.88,4.33,-19.98,1.3018181818181829
13.578125,3.9,-36.43,-29.2,28.05,31.12,19.17,-25.9,63.38,-8.6,4.49,-17.38,2.9636363636363643
13.59375,12.97,-26.44,-34.5,27.98,41.03,17.98,-32.28,52.11,-1.28,4.32,-14.21,4.334545454545455
13.609375,20.09,-11.86,-40.21,27.45,49.29,16.88,-38.48,40.6,4.33,4.24,-10.48,5.622727272727272
13.625,25.53,5.95,-45.14,26.67,55.83,15.7,-43.93,29.23,8.82,4.39,-6.41,6.967272727272728
13.640625,29.56,25.41,-48.41,25.82,60.54,14.27,-47.87,18.02,12.77,4.77,-2.35,8.411818181818182
13.65625,32.37,45.16,-49.87,25.03,63.43,12.5,-49.48,6.59,16.47,5.27,1.32,9.89
13.671875,34.17,64.34,-50.22,24.38,64.74,10.44,-48.07,-5.61,19.84,5.85,4.26,11.283636363636363
13.6875,35.24,82.58,-50.86,23.97,64.86,8.22,-43.28,-18.9,22.54,6.53,6.27,12.469999999999999
13.703125,35.85,99.8,-53.36,23.9,64.32,6.02,-35.28,-32.99,24.23,7.31,7.34,13.376363636363635
13.71875,36.17,115.98,-59.04,24.24,63.49,3.98,-24.68,-46.85,24.77,8.07,7.62,13.977272727272727
13.734375,36.19,130.93,-68.5,25.05,62.62,2.19,-12.28,-58.85,24.38,8.56,7.34,14.330000000000002
13.75,35.78,144.27,-81.27,26.27,61.71,0.67,1.08,-67.33,23.48,8.53,6.76,14.54090909090909
13.765625,34.81,155.58,-95.53,27.76,60.68,-0.65,14.7,-71.21,22.57,7.8,6.05,14.778181818181823
13.78125,33.25,164.64,-108.1,29.33,59.43,-1.9,27.98,-70.36,21.94,6.45,5.34,15.27272727272727
13.796875,31.22,171.58,-114.94,30.74,57.99,-3.22,40.36,-65.66,21.57,4.73,4.7,16.279090909090908
13.8125,28.97,176.93,-112.23,31.78,56.44,-4.78,51.29,-58.77,21.2,3.06,4.24,18.01181818181818
13.828125,26.76,181.42,-97.68,32.33,54.85,-6.69,60.3,-51.59,20.5,1.71,4.11,20.547272727272727
13.84375,24.85,185.71,-71.61,32.37,53.14,-8.96,67.14,-45.74,19.37,0.79,4.4,23.769090909090906
13.859375,23.44,190.19,-37.16,31.94,51.11,-11.51,71.83,-42.23,18.04,0.19,5.15,27.362727272727273
13.875,22.59,195.06,0.59,31.15,48.51,-14.18,74.69,-41.17,17.07,-0.27,6.16,30.927272727272733
13.890625,22.23,200.43,36.25,30.08,45.16,-16.85,76.17,-41.78,17.02,-0.63,7.03,34.100909090909084
13.90625,22.04,206.48,65.78,28.73,41.11,-19.47,76.73,-42.64,18.23,-0.85,7.36,36.68181818181818
13.921875,21.61,213.22,87.49,27.1,36.58,-22.12,76.69,-42.12,20.53,-0.83,6.78,38.62999999999999
13.9375,20.48,220.13,101.99,25.16,31.87,-24.97,76.19,-38.89,23.37,-0.56,5.31,40.00727272727273
13.953125,18.39,225.8,111.24,22.98,27.23,-28.18,75.22,-32.37,25.94,-0.26,3.25,40.839999999999996
13.96875,15.35,228.1,117.32,20.68,22.71,-31.67,73.69,-22.82,27.5,-0.28,1.09,41.06090909090909
13.984375,11.66,224.85,121.56,18.38,18.2,-35.13,71.46,-11.24,27.53,-0.98,-0.72,40.50636363636363
14.0,7.75,214.86,124.24,16.17,13.53,-37.92,68.34,1.06,25.87,-2.45,-2.03,39.03818181818182
14.015625,4.01,198.69,124.85,14.04,8.64,-39.3,64.09,12.86,22.58,-4.46,-2.91,36.64454545454545
14.03125,0.63,178.56,122.75,11.89,3.58,-38.64,58.54,23.29,17.95,-6.52,-3.62,33.49181818181818
14.046875,-2.5,157.37,117.62,9.63,-1.49,-35.65,51.59,31.84,12.33,-8.13,-4.3,29.846363636363638
14.0625,-5.6,137.37,109.75,7.22,-6.43,-30.47,43.38,38.41,6.06,-8.97,-5.01,25.973636363636363
14.078125,-8.96,119.22,100.03,4.75,-11.16,-23.63,34.32,43.15,-0.54,-9.08,-5.67,22.039090909090906
14.09375,-12.67,102.0,89.61,2.44,-15.74,-15.83,24.93,46.35,-7.31,-8.74,-6.27,18.069999999999997
14.109375,-16.69,84.12,79.58,0.52,-20.27,-7.77,15.78,48.4,-14.25,-8.28,-6.95,14.017272727272728
14.125,-20.78,64.44,70.68,-0.81,-24.85,-0.03,7.35,49.62,-21.56,-7.86,-7.84,9.850909090909092
14.140625,-24.65,42.96,63.12,-1.57,-29.57,6.98,0.08,50.15,-29.56,-7.51,-8.97,5.587272727272727
14.15625,-28.11,20.8,56.76,-1.96,-34.4,13.03,-5.67,49.93,-38.38,-7.14,-10.1,1.3418181818181811
14.171875,-31.12,-0.47,51.45,-2.3,-39.27,18.04,-9.63,48.81,-47.71,-6.69,-10.87,-2.705454545454545
14.1875,-33.87,-19.42,47.08,-2.98,-44.05,22.06,-11.75,46.56,-56.69,-6.2,-10.98,-6.385454545454545
14.203125,-36.72,-35.0,43.64,-4.24,-48.63,25.29,-12.43,43.01,-63.89,-5.79,-10.49,-9.568181818181818
14.21875,-40.14,-46.26,41.02,-6.17,-52.96,28.03,-12.44,37.95,-67.74,-5.54,-9.84,-12.19
14.234375,-44.52,-51.89,38.84,-8.59,-57.17,30.53,-12.87,31.2,-66.97,-5.37,-9.57,-14.216363636363637
14.25,-49.99,-50.21,36.43,-11.2,-61.55,32.94,-14.62,22.67,-61.2,-5.19,-9.94,-15.623636363636365
14.265625,-56.23,-39.7,33.05,-13.6,-66.55,35.19,-18.11,12.52,-51.05,-4.88,-10.62,-16.361818181818183
14.28125,-62.35,-20.08,28.26,-15.51,-72.6,37.04,-23.08,1.44,-38.08,-4.42,-10.82,-16.38181818181818
14.296875,-66.98,6.7,22.18,-16.85,-79.9,38.2,-28.87,-9.41,-24.3,-3.91,-9.81,-15.722727272727274
14.3125,-68.64,36.07,15.48,-17.86,-88.09,38.45,-34.79,-18.62,-11.52,-3.47,-7.42,-14.582727272727272
14.328125,-66.2,61.74,9.21,-18.97,-96.23,37.81,-40.59,-25.09,-0.83,-3.16,-4.4,-13.337272727272728
14.34375,-59.35,77.3,4.35,-20.72,-102.8,36.56,-46.58,-28.45,7.59,-2.92,-2.17,-12.471818181818179
14.359375,-48.8,78.21,1.53,-23.51,-106.11,35.27,-53.39,-29.23,14.39,-2.71,-2.25,-12.418181818181818
14.375,-35.99,63.1,0.75,-27.42,-104.8,34.56,-61.53,-28.54,20.57,-2.49,-5.48,-13.388181818181819
14.390625,-22.58,33.69,1.44,-32.1,-98.21,34.96,-70.81,-27.59,27.07,-2.25,-11.6,-15.270909090909093
14.40625,-9.89,-6.34,2.69,-36.78,-86.68,36.63,-80.27,-27.22,34.39,-1.98,-19.32,-17.706363636363637
14.421875,1.41,-53.03,3.55,-40.4,-71.42,39.29,-88.31,-27.66,42.53,-1.64,-26.88,-20.23272727272727
14.4375,11.24,-103.3,3.3,-41.86,-54.13,42.14,-93.37,-28.58,51.1,-1.16,-32.76,-22.48909090909091
14.453125,19.77,-155.01,1.73,-40.32,-36.47,43.98,-94.44,-29.22,59.56,-0.52,-36.09,-24.275454545454547
14.46875,27.08,-206.02,-0.91,-35.47,-19.68,43.52,-91.47,-28.58,67.38,0.26,-36.69,-25.507272727272724
14.484375,33.08,-253.34,-4.0,-27.66,-4.38,39.73,-85.26,-25.59,74.2,1.04,-34.89,-26.09727272727273
14.5,37.54,-292.86,-6.81,-17.86,9.28,32.21,-76.99,-19.29,79.74,1.62,-31.21,-25.875454545454545
14.515625,40.42,-320.46,-8.8,-7.4,21.39,21.43,-67.69,-9.26,83.79,1.83,-26.23,-24.634545454545446
14.53125,41.91,-333.63,-9.86,2.41,31.96,8.74,-57.72,4.08,86.12,1.65,-20.6,-22.267272727272726
14.546875,42.4,-332.71,-10.38,10.59,40.79,-4.07,-46.83,19.22,86.53,1.14,-15.03,-18.94090909090909
14.5625,42.37,-321.01,-11.12,16.7,47.62,-15.26,-34.53,33.96,84.94,0.5,-10.06,-15.080909090909092
14.578125,42.11,-303.43,-13.02,20.78,52.27,-23.63,-20.69,46.16,81.48,-0.02,-5.85,-11.258181818181816
14.59375,41.69,-284.71,-16.88,23.14,54.85,-28.8,-5.98,54.76,76.59,-0.26,-2.02,-7.965454545454546
14.609375,41.04,-267.91,-23.23,24.16,55.83,-31.14,8.05,60.31,70.92,-0.15,2.21,-5.44636363636364
14.625,40.0,-254.07,-32.0,24.11,55.87,-31.42,19.41,64.88,65.17,0.28,7.43,-3.667272727272727
14.640625,38.51,-242.79,-42.35,23.24,55.63,-30.38,26.38,70.99,59.89,0.92,13.47,-2.4081818181818204
14.65625,36.66,-233.25,-52.55,21.76,55.5,-28.52,28.11,80.35,55.24,1.61,19.18,-1.446363636363636
14.671875,34.7,-224.98,-60.03,20.01,55.62,-26.09,25.07,93.05,50.99,2.28,22.72,-0.6054545454545406
14.6875,32.93,-217.89,-61.79,18.34,55.89,-23.28,18.8,107.51,46.58,2.91,22.55,0.2318181818181861
14.703125,31.58,-212.02,-55.04,17.06,56.13,-20.37,11.38,121.44,41.31,3.45,18.26,1.1981818181818156
14.71875,30.71,-207.09,-38.12,16.33,56.19,-17.81,4.64,132.97,34.6,3.76,10.95,2.4663636363636354
14.734375,30.17,-202.39,-11.34,16.09,55.98,-16.06,-0.39,141.26,26.19,3.67,2.78,4.178181818181823
14.75,29.61,-197.12,22.78,16.17,55.45,-15.36,-3.67,146.39,16.28,2.99,-4.08,6.3127272727272725
14.765625,28.62,-190.8,59.84,16.44,54.53,-15.62,-5.81,148.53,5.47,1.69,-8.49,8.58181818181818
14.78125,26.92,-183.61,94.62,16.89,53.17,-16.52,-7.55,147.22,-5.39,0.0,-10.7,10.459090909090907
14.796875,24.41,-176.26,122.4,17.64,51.28,-17.64,-9.37,141.54,-15.6,-1.64,-11.89,11.351818181818187
14.8125,21.27,-169.5,140.18,18.84,48.8,-18.69,-11.35,130.83,-24.85,-2.77,-13.25,10.864545454545457
14.828125,17.8,-163.49,147.25,20.5,45.66,-19.61,-13.4,115.66,-33.39,-3.05,-15.18,8.977272727272727
14.84375,14.33,-157.49,145.03,22.44,41.88,-20.55,-15.35,98.11,-41.9,-2.4,-17.07,6.093636363636364
14.859375,11.06,-149.9,136.37,24.26,37.47,-21.77,-17.03,81.13,-51.16,-0.98,-17.75,2.8818181818181814
14.875,7.96,-138.75,124.62,25.49,32.51,-23.44,-17.74,67.29,-61.58,0.96,-16.17,0.104545454545457
14.890625,4.8,-122.56,112.69,25.8,27.09,-25.67,-16.0,57.68,-73.09,3.15,-11.73,-1.621818181818182
14.90625,1.3,-100.98,102.58,25.09,21.41,-28.46,-9.93,51.57,-85.11,5.27,-4.3,-1.9600000000000002
14.921875,-2.74,-74.97,95.25,23.6,15.71,-31.7,1.82,46.87,-96.81,6.94,5.98,-0.9136363636363634
14.9375,-7.33,-46.65,90.63,21.67,10.26,-35.18,18.87,41.03,-107.31,7.63,18.62,1.1127272727272735
14.953125,-12.24,-18.49,87.8,19.63,5.26,-38.49,38.78,31.71,-115.64,6.83,32.47,3.419999999999999
14.96875,-17.13,7.38,85.09,17.69,0.7,-41.0,57.84,17.06,-120.66,4.28,45.4,5.150000000000001
14.984375,-21.64,29.73,80.34,15.85,-3.63,-41.97,72.8,-4.21,-121.13,0.09,54.59,5.529090909090911
15.0,-25.6,48.21,71.21,14.01,-8.08,-40.74,82.5,-32.66,-115.94,-5.24,57.44,4.100909090909091
15.015625,-29.06,63.08,55.79,12.12,-13.0,-37.02,88.25,-67.71,-104.74,-11.04,52.71,0.8527272727272723
15.03125,-32.24,74.75,33.32,10.19,-18.52,-31.11,92.79,-107.24,-88.37,-16.73,41.32,-3.8036363636363633
15.046875,-35.53,83.46,4.71,8.31,-24.46,-23.85,98.39,-147.87,-68.95,-22.1,26.13,-9.250909090909092
15.0625,-39.36,89.26,-27.41,6.53,-30.45,-16.3,105.42,-185.74,-49.27,-27.11,10.92,-14.864545454545457
15.078125,-44.04,92.21,-59.32,4.83,-36.02,-9.39,112.15,-217.82,-31.97,-31.81,-0.92,-20.190909090909088
15.09375,-49.64,92.57,-87.22,3.1,-40.88,-3.62,116.02,-242.79,-18.62,-36.08,-7.19,-24.940909090909088
15.109375,-55.72,90.93,-108.52,1.27,-45.08,1.03,115.17,-261.17,-9.43,-39.58,-6.9,-28.90909090909091
15.125,-61.26,88.12,-122.64,-0.64,-48.96,4.89,109.38,-274.52,-3.47,-41.98,-0.03,-31.91909090909091
15.140625,-64.85,84.98,-130.91,-2.44,-53.06,8.33,99.72,-284.33,0.7,-43.11,12.53,-33.85818181818182
15.15625,-64.99,82.07,-135.84,-3.85,-57.92,11.51,87.37,-291.24,4.37,-43.26,28.65,-34.83
15.171875,-60.68,79.55,-139.83,-4.7,-63.91,14.33,72.7,-294.85,8.25,-43.1,44.68,-35.232727272727274
15.1875,-51.86,77.21,-144.17,-5.07,-71.13,16.57,55.12,-294.21,12.44,-43.4,55.98,-35.68363636363636
15.203125,-39.49,74.67,-148.77,-5.27,-79.3,18.13,33.96,-288.53,16.69,-44.88,58.48,-36.75545454545454
15.21875,-25.3,71.62,-152.57,-5.73,-87.71,19.11,9.47,-277.63,20.59,-47.99,50.72,-38.67454545454545
15.234375,-11.17,67.93,-154.47,-6.81,-95.19,19.79,-16.65,-262.19,23.82,-52.86,35.02,-41.161818181818184
15.25,1.43,63.74,-154.2,-8.6,-100.34,20.43,-41.69,-243.4,26.2,-59.37,16.96,-43.53090909090909
15.265625,11.74,59.27,-152.56,-10.91,-101.74,21.12,-62.85,-222.66,27.68,-67.18,3.16,-44.99363636363636
15.28125,19.75,54.7,-150.96,-13.39,-98.4,21.76,-78.17,-201.28,28.37,-75.73,-1.55,-44.99090909090909
15.296875,25.87,50.01,-150.61,-15.72,-90.09,22.17,-87.08,-180.33,28.36,-84.14,4.07,-43.40818181818182
15.3125,30.59,45.02,-151.84,-17.72,-77.4,22.29,-90.27,-160.53,27.73,-91.11,17.53,-40.51909090909091
15.328125,34.28,39.43,-153.9,-19.4,-61.61,22.2,-89.08,-142.31,26.56,-95.18,34.26,-36.79545454545455
15.34375,37.06,32.91,-155.44,-20.9,-44.28,22.18,-84.95,-125.8,24.91,-95.09,49.78,-32.692727272727275
15.359375,38.93,25.2,-155.28,-22.4,-26.85,22.44,-78.98,-110.81,22.88,-90.33,61.16,-28.549090909090907
15.375,39.79,16.07,-152.9,-24.01,-10.37,23.05,-71.91,-96.98,20.7,-81.48,67.27,-24.61545454545455
15.390625,39.63,5.46,-148.58,-25.83,4.52,23.88,-64.19,-83.8,18.67,-70.13,68.04,-21.12090909090909
15.40625,38.54,-6.44,-142.93,-27.91,17.56,24.67,-56.22,-70.73,17.04,-58.27,63.64,-18.277272727272727
15.421875,36.76,-18.88,-136.43,-30.28,28.6,25.2,-48.46,-57.38,15.96,-47.6,54.23,-16.207272727272727
15.4375,34.63,-30.5,-129.09,-32.82,37.61,25.36,-41.36,-43.68,15.41,-38.89,40.27,-14.82363636363636
15.453125,32.5,-39.41,-120.62,-35.21,44.54,25.16,-35.29,-29.93,15.16,-31.95,23.08,-13.815454545454543
15.46875,30.62,-43.66,-110.74,-36.79,49.46,24.67,-30.35,-16.81,14.89,-26.11,4.81,-12.728181818181817
15.484375,29.06,-41.82,-99.54,-36.75,52.57,23.89,-26.36,-5.18,14.29,-20.8,-12.07,-11.155454545454546
15.5,27.8,-33.49,-87.64,-34.37,54.18,22.78,-22.87,4.26,13.08,-16.02,-25.59,-8.898181818181817
15.515625,26.74,-19.42,-76.1,-29.28,54.8,21.32,-19.38,11.18,11.11,-12.27,-34.92,-6.02
15.53125,25.78,-1.28,-66.41,-21.75,54.93,19.6,-15.5,15.83,8.36,-10.08,-40.42,-2.8127272727272725
15.546875,24.95,18.98,-60.31,-12.61,55.04,17.77,-11.16,18.95,4.91,-9.42,-43.05,0.36818181818181794
15.5625,24.28,39.72,-59.69,-3.09,55.41,16.06,-6.68,21.36,0.9,-9.47,-43.77,3.1845454545454555
15.578125,23.71,59.87,-66.09,5.58,56.09,14.57,-2.64,23.71,-3.43,-8.84,-43.07,5.405454545454543
15.59375,23.09,78.94,-79.73,12.57,56.89,13.32,0.37,26.1,-7.82,-6.05,-41.0,6.9709090909090925
15.609375,22.17,96.8,-98.75,17.55,57.53,12.22,2.0,28.03,-11.96,0.04,-37.54,8.008181818181818
15.625,20.7,113.25,-118.86,20.71,57.76,11.15,2.3,28.74,-15.6,10.07,-32.95,8.84272727272727
15.640625,18.54,127.94,-134.04,22.44,57.46,10.07,1.71,27.51,-18.62,23.98,-27.91,9.916363636363634
15.65625,15.71,140.41,-138.03,23.15,56.62,8.98,0.79,24.13,-21.12,41.11,-23.28,11.67909090909091
15.671875,12.35,150.22,-126.47,23.12,55.27,7.92,0.01,19.14,-23.52,60.15,-19.79,14.4
15.6875,8.6,157.22,-98.36,22.46,53.34,6.87,-0.5,13.71,-26.47,79.22,-17.72,18.03363636363636
15.703125,4.56,161.63,-56.65,21.26,50.68,5.75,-0.95,9.31,-30.72,96.17,-16.86,22.19818181818182
15.71875,0.31,163.95,-7.35,19.63,47.07,4.41,-1.75,7.33,-36.69,109.07,-16.73,26.295454545454547
15.734375,-4.09,164.92,42.34,17.76,42.42,2.77,-3.27,8.57,-44.16,116.75,-16.79,29.747272727272726
15.75,-8.5,165.4,86.01,15.89,36.87,0.79,-5.57,13.16,-52.04,119.09,-16.7,32.21818181818182
15.765625,-12.72,166.14,119.64,14.25,30.76,-1.51,-8.41,20.6,-58.57,116.97,-16.26,33.71727272727273
15.78125,-16.57,167.79,142.02,13.02,24.56,-4.0,-11.39,29.99,-61.83,111.85,-15.37,34.55181818181818
15.796875,-19.99,170.67,154.18,12.29,18.64,-6.55,-14.2,40.39,-60.43,105.16,-13.91,35.11363636363636
15.8125,-23.09,174.61,158.35,12.14,13.16,-9.02,-16.82,51.09,-54.06,97.99,-11.72,35.693636363636365
15.828125,-26.16,178.87,156.77,12.54,8.02,-11.29,-19.57,61.63,-43.62,91.05,-8.79,36.31363636363636
15.84375,-29.59,182.27,151.08,13.43,2.95,-13.24,-22.97,71.79,-30.86,84.79,-5.32,36.757272727272735
15.859375,-33.75,183.48,142.34,14.66,-2.35,-14.82,-27.48,81.34,-17.78,79.63,-1.84,36.67545454545455
15.875,-38.83,181.53,131.46,16.01,-8.08,-16.08,-33.43,89.85,-5.92,75.9,0.9,35.75545454545454
15.890625,-44.59,176.14,119.53,17.16,-14.22,-17.23,-40.89,96.62,3.99,73.81,2.25,33.87
15.90625,-50.27,167.89,107.85,17.92,-20.54,-18.63,-49.71,100.87,11.96,73.13,1.92,31.126363636363635
15.921875,-54.64,157.92,97.66,18.12,-26.68,-20.71,-59.43,102.01,18.46,73.19,0.2,27.827272727272724
15.9375,-56.24,147.47,89.6,17.76,-32.35,-23.83,-69.32,99.96,24.01,73.06,-2.22,24.354545454545452
15.953125,-53.89,137.41,83.46,16.95,-37.47,-28.06,-78.32,95.31,28.94,71.81,-4.49,21.05909090909091
15.96875,-47.15,127.88,78.33,15.8,-42.26,-33.03,-85.13,89.22,33.38,68.86,-6.01,18.171818181818182
15.984375,-36.58,118.41,73.17,14.42,-47.25,-37.9,-88.56,83.01,37.3,64.14,-6.63,15.775454545454549
16.0,-23.64,108.02,67.39,12.84,-53.09,-41.52,-87.8,77.7,40.59,58.18,-6.67,13.81818181818182
16.015625,-10.17,95.64,61.11,11.1,-60.3,-42.84,-82.72,73.63,43.11,51.76,-6.67,12.15
16.03125,2.18,80.36,55.0,9.27,-69.07,-41.26,-73.85,70.45,44.73,45.64,-7.04,10.582727272727276
16.046875,12.48,61.71,49.83,7.47,-79.04,-36.85,-62.21,67.45,45.32,40.26,-7.94,8.952727272727271
16.0625,20.56,39.98,45.88,5.84,-89.2,-30.35,-48.83,63.94,44.82,35.61,-9.24,7.182727272727271
16.078125,26.79,16.34,42.7,4.48,-98.09,-22.88,-34.5,59.6,43.35,31.32,-10.73,5.307272727272727
16.09375,31.67,-7.23,39.27,3.33,-103.96,-15.6,-19.68,54.5,41.19,26.93,-12.27,3.46818181818182
16.109375,35.5,-28.3,34.43,2.19,-105.26,-9.32,-4.65,48.93,38.74,22.14,-13.92,1.8618181818181803
16.125,38.28,-44.78,27.46,0.85,-101.03,-4.39,10.19,43.13,36.47,17.11,-15.78,0.6827272727272727
16.140625,39.86,-55.5,18.54,-0.81,-91.22,-0.75,24.3,37.14,34.71,12.33,-17.92,0.06181818181818179
16.15625,40.15,-60.52,8.7,-2.67,-76.75,1.92,36.89,30.76,33.59,8.47,-20.22,0.029090909090909764
16.171875,39.3,-60.85,-0.47,-4.44,-59.3,4.03,47.24,23.79,33.0,6.01,-22.39,0.5381818181818183
16.1875,37.65,-57.79,-7.59,-5.84,-40.79,5.94,54.91,16.19,32.63,5.05,-24.09,1.4790909090909083
16.203125,35.56,-52.28,-12.02,-6.72,-22.91,7.94,59.91,8.09,32.1,5.17,-25.07,2.7063636363636374
16.21875,33.36,-44.65,-14.19,-7.25,-6.78,10.17,62.64,-0.26,31.07,5.61,-25.21,4.046363636363636
16.234375,31.18,-34.84,-15.4,-7.78,7.16,12.6,63.77,-8.6,29.35,5.58,-24.5,5.319999999999999
16.25,29.03,-22.98,-17.19,-8.7,19.01,15.03,64.03,-16.75,26.89,4.49,-23.0,6.35090909090909
16.265625,26.91,-9.8,-20.71,-10.17,29.08,17.15,63.97,-24.38,23.76,2.2,-20.77,7.0218181818181815
16.28125,24.89,3.42,-26.24,-12.15,37.65,18.64,63.91,-31.01,20.03,-1.04,-17.79,7.300909090909091
16.296875,23.09,15.32,-33.19,-14.39,44.84,19.37,63.95,-35.9,15.78,-4.72,-14.02,7.284545454545457
16.3125,21.59,24.99,-40.42,-16.61,50.59,19.46,64.05,-38.22,11.12,-8.22,-9.43,7.172727272727273
16.328125,20.36,32.51,-46.83,-18.63,54.77,19.22,64.17,-37.4,6.29,-11.02,-4.12,7.210909090909093
16.34375,19.19,38.88,-51.8,-20.37,57.36,18.99,64.27,-33.28,1.58,-12.74,1.63,7.609999999999999
16.359375,17.82,45.58,-55.43,-21.86,58.5,19.02,64.37,-26.27,-2.66,-13.18,7.33,8.474545454545456
16.375,16.03,54.05,-58.44,-23.13,58.56,19.34,64.38,-17.18,-6.2,-12.39,12.39,9.764545454545454
16.390625,13.84,65.06,-61.96,-24.23,58.01,19.89,64.13,-6.93,-9.02,-10.74,16.24,11.299090909090909
16.40625,11.42,78.45,-67.16,-25.31,57.28,20.56,63.34,3.65,-11.33,-8.79,18.59,12.790909090909093
16.421875,8.99,92.99,-74.93,-26.62,56.61,21.27,61.71,14.06,-13.5,-7.18,19.52,13.901818181818179
16.4375,6.66,106.6,-85.48,-28.4,56.05,22.0,59.08,23.97,-15.85,-6.37,19.39,14.33181818181818
16.453125,4.34,116.82,-97.88,-30.74,55.48,22.64,55.54,33.22,-18.65,-6.43,18.74,13.916363636363634
16.46875,1.85,121.52,-109.9,-33.33,54.74,23.01,51.36,41.6,-22.08,-7.04,18.08,12.709999999999997
16.484375,-1.08,119.62,-118.25,-35.46,53.74,22.85,46.9,48.79,-26.32,-7.68,17.74,10.986363636363636
16.5,-4.53,111.57,-119.39,-36.15,52.42,22.0,42.42,54.4,-31.53,-7.92,17.84,9.193636363636365
16.515625,-8.41,99.31,-110.76,-34.59,50.74,20.49,37.99,58.16,-37.71,-7.63,18.36,7.813636363636362
16.53125,-12.48,85.6,-91.91,-30.37,48.61,18.62,33.54,59.98,-44.43,-7.04,19.2,7.21090909090909
16.546875,-16.44,72.96,-64.91,-23.79,45.88,16.76,28.97,60.04,-50.66,-6.59,20.2,7.492727272727271
16.5625,-20.13,62.81,-33.84,-15.69,42.35,15.24,24.2,58.76,-54.93,-6.67,21.21,8.482727272727272
16.578125,-23.49,55.03,-3.34,-7.18,37.89,14.14,19.28,56.55,-55.79,-7.36,22.02,9.795454545454545
16.59375,-26.7,48.43,22.88,0.71,32.48,13.33,14.26,53.63,-52.41,-8.43,22.44,10.965454545454543
16.609375,-30.04,41.66,43.08,7.29,26.25,12.6,9.1,49.93,-44.97,-9.52,22.33,11.610000000000001
16.625,-33.89,33.99,57.52,12.27,19.52,11.76,3.58,45.08,-34.71,-10.29,21.68,11.500909090909092
16.640625,-38.54,25.71,67.75,15.68,12.72,10.82,-2.61,38.69,-23.42,-10.65,20.6,10.613636363636363
16.65625,-44.1,17.85,75.47,17.67,6.32,9.82,-9.77,30.72,-12.75,-10.7,19.24,9.07
16.671875,-50.24,11.66,81.77,18.41,0.64,8.88,-18.08,21.62,-3.73,-10.64,17.8,7.099090909090908
16.6875,-56.12,8.16,86.93,18.08,-4.3,8.01,-27.52,12.28,3.5,-10.59,16.45,4.98909090909091
16.703125,-60.51,8.04,90.75,16.9,-8.81,7.13,-37.98,3.79,9.35,-10.5,15.34,3.0454545454545467
16.71875,-62.05,11.74,93.1,15.14,-13.48,6.13,-49.2,-3.11,14.4,-10.18,14.5,1.544545454545454
16.734375,-59.7,19.23,94.17,13.15,-18.8,4.99,-60.87,-8.15,19.02,-9.46,13.82,0.6727272727272736
16.75,-53.12,29.62,94.52,11.3,-24.99,3.76,-72.45,-11.63,23.2,-8.27,13.01,0.4499999999999991
16.765625,-42.9,40.55,94.81,9.83,-31.76,2.53,-83.11,-14.19,26.73,-6.8,11.72,0.6736363636363629
16.78125,-30.36,48.19,95.49,8.84,-38.56,1.37,-91.75,-16.47,29.36,-5.4,9.63,0.94
16.796875,-17.11,48.04,96.7,8.3,-44.81,0.25,-97.15,-19.01,31.02,-4.4,6.7,0.7754545454545436
16.8125,-4.63,36.41,98.34,8.09,-50.29,-0.99,-98.42,-22.1,31.76,-3.96,3.23,-0.2327272727272729
16.828125,6.22,11.96,100.19,8.13,-55.25,-2.56,-95.22,-25.94,31.73,-3.99,-0.27,-2.2727272727272725
16.84375,15.16,-23.51,102.16,8.48,-60.32,-4.59,-88.0,-30.59,31.14,-4.19,-3.23,-5.2263636363636365
16.859375,22.39,-65.65,104.29,9.21,-66.2,-7.03,-77.71,-35.93,30.22,-4.28,-5.31,-8.727272727272728
16.875,28.25,-109.07,106.7,10.36,-73.41,-9.7,-65.45,-41.52,29.22,-4.14,-6.57,-12.30272727272727
16.890625,32.97,-148.9,109.42,11.84,-82.06,-12.29,-51.94,-46.63,28.42,-3.85,-7.44,-15.496363636363633
16.90625,36.58,-181.91,112.27,13.42,-91.78,-14.6,-37.42,-50.39,28.05,-3.57,-8.54,-17.989999999999995
16.921875,39.02,-206.49,114.88,14.79,-101.78,-16.55,-21.77,-52.06,28.17,-3.42,-10.42,-19.60272727272727
16.9375,40.26,-222.14,116.77,15.68,-110.83,-18.23,-4.93,-51.41,28.67,-3.36,-13.28,-20.254545454545458
16.953125,40.4,-228.87,117.58,15.97,-117.4,-19.86,12.72,-48.63,29.24,-3.32,-16.94,-19.919090909090905
16.96875,39.71,-227.06,117.2,15.69,-119.91,-21.65,30.24,-44.22,29.49,-3.31,-20.89,-18.61
16.984375,38.45,-217.8,115.84,14.96,-117.08,-23.75,46.26,-38.64,29.12,-3.42,-24.5,-16.41454545454545
17.0,36.82,-203.13,113.91,13.92,-108.39,-26.25,59.45,-32.05,27.95,-3.86,-27.13,-13.52363636363636
17.015625,34.95,-185.89,111.94,12.64,-94.32,-29.13,68.92,-24.31,26.04,-4.77,-28.33,-10.205454545454545
17.03125,32.93,-169.0,110.39,11.19,-76.32,-32.23,74.44,-15.17,23.57,-5.97,-27.84,-6.728181818181816
17.046875,30.93,-154.56,109.56,9.66,-56.37,-35.23,76.4,-4.63,20.72,-7.05,-25.66,-3.293636363636362
17.0625,29.14,-143.19,109.54,8.22,-36.41,-37.56,75.58,6.89,17.62,-7.5,-22.06,0.024545454545455477
17.078125,27.74,-134.11,110.18,7.01,-17.75,-38.53,72.85,18.52,14.29,-7.03,-17.45,3.2472727272727258
17.09375,26.76,-125.74,111.23,6.11,-0.93,-37.52,68.99,29.22,10.73,-5.66,-12.45,6.430909090909092
17.109375,26.03,-116.73,112.32,5.41,14.15,-34.19,64.59,38.17,6.98,-3.76,-7.7,9.569999999999999
17.125,25.25,-106.61,113.06,4.63,27.81,-28.74,60.12,44.9,3.13,-1.82,-3.79,12.540000000000003
17.140625,24.1,-95.83,112.89,3.5,40.16,-21.88,55.96,49.28,-0.57,-0.16,-1.14,15.119090909090913
17.15625,22.43,-85.41,111.15,1.91,51.03,-14.57,52.33,51.32,-3.9,1.13,0.08,17.045454545454547
17.171875,20.32,-76.2,107.01,0.02,60.01,-7.82,49.33,50.79,-6.68,2.2,0.05,18.093636363636364
17.1875,18.01,-68.34,99.75,-1.82,66.8,-2.26,46.91,47.19,-8.83,3.19,-0.8,18.16363636363636
17.203125,15.73,-61.26,88.9,-3.28,71.37,1.89,44.81,39.85,-10.4,4.16,-1.83,17.267272727272726
17.21875,13.52,-54.0,74.48,-4.16,74.08,4.8,42.77,28.39,-11.6,5.07,-2.41,15.54
17.234375,11.22,-45.86,57.13,-4.59,75.46,6.85,40.52,13.12,-12.78,5.81,-2.08,13.163636363636362
17.25,8.52,-36.8,38.05,-4.9,76.07,8.39,37.9,-4.6,-14.53,6.37,-0.71,10.341818181818182
17.265625,5.19,-27.52,19.0,-5.51,76.26,9.66,34.84,-22.62,-17.64,6.81,1.48,7.2681818181818185
17.28125,1.19,-19.04,2.0,-6.68,76.2,10.73,31.38,-38.53,-22.93,7.2,4.02,4.140000000000001
17.296875,-3.32,-12.32,-10.97,-8.44,75.88,11.55,27.55,-50.5,-30.92,7.52,6.41,1.13090909090909
17.3125,-7.97,-7.78,-18.38,-10.7,75.26,12.08,23.39,-57.9,-41.44,7.73,8.34,-1.5790909090909082
17.328125,-12.44,-5.26,-19.72,-13.19,74.33,12.27,18.88,-61.47,-53.38,7.67,9.74,-3.8700000000000006
17.34375,-16.58,-4.19,-15.75,-15.64,73.13,12.17,13.97,-62.82,-64.66,7.32,10.73,-5.665454545454546
17.359375,-20.45,-3.95,-8.39,-17.8,71.69,11.89,8.58,-63.69,-72.84,6.76,11.45,-6.9772727272727275
17.375,-24.25,-4.09,-0.22,-19.41,69.97,11.59,2.56,-65.17,-75.85,6.19,11.9,-7.889090909090908
17.390625,-28.22,-4.43,6.28,-20.36,67.89,11.43,-4.18,-67.36,-72.7,5.78,11.95,-8.538181818181819
17.40625,-32.53,-5.04,9.59,-20.69,65.25,11.53,-11.58,-69.54,-63.93,5.5,11.46,-9.089090909090908
17.421875,-37.27,-6.08,9.44,-20.74,61.87,11.91,-19.39,-70.61,-51.31,5.27,10.44,-9.67909090909091
17.4375,-42.42,-7.8,6.68,-21.07,57.57,12.52,-27.15,-69.61,-37.16,4.94,9.19,-10.391818181818183
17.453125,-47.85,-10.49,2.65,-22.28,52.32,13.26,-34.34,-65.82,-23.57,4.43,8.19,-11.227272727272727
17.46875,-53.16,-14.45,-1.5,-24.74,46.26,14.0,-40.62,-58.88,-11.79,3.8,7.88,-12.109090909090908
17.484375,-57.63,-19.79,-5.25,-28.36,39.72,14.64,-46.01,-48.62,-2.11,3.16,8.42,-12.893636363636368
17.5,-60.21,-26.28,-8.84,-32.55,33.15,15.11,-50.97,-35.1,5.8,2.58,9.55,-13.43272727272727
17.515625,-59.73,-33.11,-12.86,-36.35,26.98,15.36,-56.31,-18.76,12.51,1.95,10.72,-13.600000000000005
17.53125,-55.36,-38.92,-17.81,-38.75,21.37,15.35,-62.88,-0.5,18.48,1.11,11.3,-13.328181818181816
17.546875,-46.96,-42.18,-23.82,-38.95,16.18,15.06,-71.23,18.27,23.93,-0.11,10.96,-12.622727272727273
17.5625,-35.29,-41.55,-30.72,-36.65,10.97,14.48,-81.28,36.02,28.96,-1.61,9.73,-11.540000000000001
17.578125,-21.85,-36.36,-38.41,-32.02,5.28,13.64,-92.2,51.46,33.62,-3.08,7.96,-10.17818181818182
17.59375,-8.39,-26.77,-47.33,-25.56,-1.22,12.65,-102.49,63.97,38.0,-4.07,6.09,-8.647272727272725
17.609375,3.65,-13.71,-58.53,-17.95,-8.47,11.64,-110.37,73.64,42.16,-4.27,4.37,-7.076363636363637
17.625,13.47,1.49,-73.21,-9.87,-16.1,10.75,-114.17,81.16,46.04,-3.68,2.74,-5.580000000000002
17.640625,21.01,17.4,-91.89,-1.97,-23.56,10.05,-112.81,87.31,49.48,-2.59,0.87,-4.245454545454546
17.65625,26.7,32.83,-113.63,5.1,-30.38,9.51,-106.05,92.53,52.29,-1.5,-1.58,-3.107272727272726
17.671875,31.1,46.87,-135.99,10.61,-36.44,8.95,-94.47,96.7,54.36,-0.78,-4.78,-2.1700000000000004
17.6875,34.64,58.88,-155.83,13.88,-41.97,8.12,-79.23,99.22,55.78,-0.5,-8.55,-1.4145454545454557
17.703125,37.51,68.46,-170.55,14.43,-47.5,6.85,-61.68,99.38,56.75,-0.45,-12.46,-0.8418181818181826
17.71875,39.74,75.28,-179.35,12.26,-53.69,5.14,-43.01,96.95,57.53,-0.28,-15.97,-0.49090909090908946
17.734375,41.22,79.25,-183.27,7.94,-61.11,3.23,-24.0,92.44,58.32,0.28,-18.62,-0.39272727272727453
17.75,41.9,80.48,-184.46,2.51,-70.1,1.52,-5.11,87.11,59.14,1.26,-20.17,-0.5381818181818201
17.765625,41.75,79.32,-184.78,-2.84,-80.54,0.39,13.39,82.43,59.9,2.47,-20.58,-0.8263636363636372
17.78125,40.85,76.32,-184.79,-7.22,-91.73,-0.04,31.18,79.42,60.41,3.64,-19.91,-1.079090909090911
17.796875,39.28,72.1,-183.66,-10.25,-102.35,0.01,47.74,78.17,60.46,4.47,-18.31,-1.1218181818181812
17.8125,37.21,67.25,-179.99,-12.23,-110.58,0.03,62.42,77.88,59.89,4.76,-15.92,-0.8436363636363615
17.828125,34.78,62.15,-172.99,-13.82,-114.53,-0.53,74.53,77.33,58.58,4.28,-12.91,-0.28454545454545316
17.84375,32.16,57.04,-163.14,-15.7,-112.76,-2.01,83.58,75.66,56.52,2.83,-9.49,0.4263636363636378
17.859375,29.53,52.05,-152.12,-18.19,-104.78,-4.39,89.48,72.97,53.84,0.26,-5.95,1.1545454545454534
17.875,27.11,47.3,-142.03,-21.09,-91.25,-7.3,92.54,70.42,50.7,-3.39,-2.56,1.8590909090909096
17.890625,25.04,43.01,-134.48,-23.66,-73.77,-10.22,93.42,69.82,47.26,-7.85,0.42,2.6354545454545475
17.90625,23.4,39.51,-130.13,-24.97,-54.42,-12.73,92.86,72.74,43.53,-12.64,2.85,3.636363636363636
17.921875,22.12,37.07,-128.73,-24.35,-35.06,-14.65,91.53,79.91,39.28,-17.23,4.72,4.964545454545455
17.9375,20.99,35.7,-129.52,-21.75,-16.92,-16.09,89.88,90.77,34.18,-21.22,6.19,6.564545454545453
17.953125,19.78,35.1,-131.76,-18.09,-0.5,-17.27,88.11,103.79,28.03,-24.51,7.54,8.201818181818181
17.96875,18.32,34.67,-134.87,-15.12,14.23,-18.46,86.28,116.98,21.16,-27.21,9.0,9.543636363636363
17.984375,16.56,33.71,-138.46,-14.96,27.47,-19.88,84.36,128.39,14.43,-29.53,10.71,10.254545454545452
18.0,14.54,31.76,-142.15,-19.18,39.28,-21.72,82.32,136.47,9.05,-31.49,12.57,10.131818181818181
18.015625,12.33,28.77,-145.65,-28.0,49.45,-24.1,80.09,140.08,6.04,-32.93,14.31,9.126363636363637
18.03125,9.9,25.07,-148.86,-40.0,57.69,-27.01,77.57,138.56,5.68,-33.48,15.6,7.338181818181818
18.046875,7.17,21.17,-152.11,-52.27,63.75,-30.18,74.61,131.89,7.16,-32.91,16.2,4.95272727272727
18.0625,4.03,17.54,-156.32,-61.5,67.68,-33.05,71.08,121.08,8.81,-31.15,16.14,2.212727272727275
18.078125,0.43,14.33,-162.59,-65.2,69.8,-34.79,66.94,108.29,8.58,-28.59,15.69,-0.6463636363636381
18.09375,-3.54,11.35,-171.65,-62.64,70.57,-34.62,62.3,96.53,4.68,-25.83,15.21,-3.421818181818186
18.109375,-7.7,8.15,-183.05,-55.22,70.51,-32.03,57.39,88.7,-3.86,-23.51,15.0,-5.9654545454545485
18.125,-11.86,4.26,-194.68,-46.12,69.96,-27.11,52.39,86.35,-17.02,-22.03,15.1,-8.250909090909092
18.140625,-15.86,-0.56,-202.98,-39.42,69.12,-20.47,47.32,88.96,-33.84,-21.3,15.29,-10.340000000000002
18.15625,-19.6,-6.13,-203.9,-38.62,68.08,-13.12,42.08,94.08,-52.7,-20.83,15.26,-12.309090909090907
18.171875,-23.11,-11.73,-194.21,-45.18,66.91,-6.06,36.4,98.7,-71.59,-19.92,14.76,-14.093636363636366
18.1875,-26.44,-16.22,-172.5,-57.24,65.74,-0.02,30.13,100.53,-88.44,-18.0,13.68,-15.343636363636362
18.203125,-29.82,-18.26,-139.56,-69.28,64.69,4.78,23.3,98.79,-101.55,-14.93,12.05,-15.435454545454547
18.21875,-33.57,-16.75,-97.96,-73.28,63.8,8.51,16.17,93.77,-109.92,-10.97,10.01,-13.653636363636366
18.234375,-38.0,-11.06,-51.25,-61.2,62.89,11.53,9.1,85.56,-113.49,-6.7,7.64,-9.543636363636365
18.25,-43.19,-1.3,-3.14,-28.14,61.59,14.22,2.4,73.11,-113.16,-2.68,5.05,-3.2036363636363636
18.265625,-48.75,11.81,42.92,24.81,59.39,16.73,-3.89,54.12,-110.5,0.81,2.33,4.5254545454545445
18.28125,-53.7,27.17,83.95,89.94,55.84,19.07,-9.98,26.2,-107.21,3.8,-0.35,12.248181818181818
18.296875,-56.66,43.61,117.63,154.53,50.78,21.15,-16.3,-11.48,-104.57,6.52,-2.88,18.393636363636364
18.3125,-56.27,60.11,142.53,204.62,44.35,22.91,-23.34,-57.05,-103.09,9.24,-5.22,21.708181818181814
18.328125,-51.74,75.84,158.35,229.27,37.02,24.4,-31.55,-106.1,-102.42,12.05,-7.48,21.603636363636365
18.34375,-43.17,90.15,166.09,223.9,29.4,25.7,-41.09,-153.2,-101.62,14.91,-9.87,18.290909090909093
18.359375,-31.6,102.48,167.66,191.34,22.13,26.86,-51.81,-193.88,-99.44,17.62,-12.49,12.624545454545455
18.375,-18.64,112.32,165.33,140.38,15.55,27.87,-63.14,-226.32,-94.86,20.01,-15.22,5.752727272727281
18.390625,-5.94,119.34,161.1,82.6,9.76,28.67,-74.02,-251.71,-87.36,21.92,-17.68,-1.2109090909090896
18.40625,5.25,123.46,156.29,28.7,4.53,29.26,-83.07,-273.2,-77.12,23.19,-19.42,-7.466363636363639
18.421875,14.38,124.88,151.59,-14.25,-0.51,29.76,-88.85,-294.05,-64.88,23.73,-20.12,-12.574545454545449
18.4375,21.48,124.0,147.25,-43.88,-5.74,30.39,-90.22,-315.75,-51.67,23.48,-19.75,-16.400909090909096
18.453125,26.88,121.27,143.32,-61.8,-11.4,31.31,-86.67,-336.99,-38.49,22.48,-18.61,-18.972727272727273
18.46875,30.91,117.07,139.73,-71.77,-17.49,32.49,-78.47,-354.12,-26.06,20.85,-17.1,-20.360000000000003
18.484375,33.71,111.61,136.31,-77.7,-23.81,33.69,-66.5,-362.67,-14.71,18.78,-15.49,-20.61636363636364
18.5,35.25,105.01,132.83,-82.14,-30.09,34.54,-52.03,-359.31,-4.44,16.48,-13.79,-19.790000000000006
18.515625,35.49,97.47,129.06,-86.07,-36.1,34.72,-36.28,-343.53,4.91,14.08,-11.78,-18.002727272727267
18.53125,34.56,89.36,124.9,-89.28,-41.78,34.17,-20.15,-317.86,13.59,11.71,-9.21,-15.453636363636361
18.546875,32.82,81.23,120.42,-91.07,-47.28,33.07,-4.15,-286.97,21.75,9.56,-5.94,-12.414545454545449
18.5625,30.74,73.69,115.71,-90.66,-52.97,31.62,11.48,-255.82,29.43,7.86,-2.15,-9.18818181818182
18.578125,28.76,67.2,110.69,-87.31,-59.33,29.99,26.55,-228.07,36.48,6.91,1.85,-6.025454545454545
18.59375,27.07,61.83,105.08,-80.23,-66.86,28.11,40.72,-205.21,42.6,6.91,5.67,-3.119090909090909
18.609375,25.61,57.2,98.4,-68.74,-75.81,25.85,53.38,-186.78,47.31,7.86,8.96,-0.6145454545454544
18.625,24.17,52.58,90.25,-52.64,-85.97,23.11,63.84,-171.35,50.19,9.47,11.57,1.383636363636363
18.640625,22.5,47.08,80.57,-32.62,-96.42,19.99,71.49,-157.44,50.98,11.28,13.44,2.8045454545454547
18.65625,20.54,39.98,69.75,-10.45,-105.64,16.71,76.12,-144.14,49.79,12.76,14.57,3.6354545454545457
18.671875,18.42,30.91,58.56,11.45,-111.65,13.49,78.03,-131.0,47.07,13.55,15.04,3.9881818181818187
18.6875,16.43,20.01,47.76,30.66,-112.61,10.34,78.03,-117.64,43.47,13.54,15.02,4.091818181818183
18.703125,14.84,7.93,37.74,45.57,-107.32,7.0,77.09,-103.33,39.62,12.92,14.79,4.25909090909091
18.71875,13.76,-4.22,28.29,55.71,-95.79,3.1,76.03,-87.07,35.87,11.98,14.61,4.75181818181818
18.734375,13.09,-15.06,18.7,61.66,-79.18,-1.63,75.23,-67.92,32.3,11.05,14.66,5.718181818181818
18.75,12.57,-23.26,8.13,64.69,-59.61,-7.11,74.61,-45.58,28.72,10.23,14.93,7.119999999999999
18.765625,11.83,-27.84,-3.91,66.04,-39.36,-12.89,73.81,-20.85,24.91,9.49,15.25,8.770909090909091
18.78125,10.56,-28.58,-17.24,66.55,-20.27,-18.31,72.5,4.43,20.75,8.65,15.43,10.406363636363638
18.796875,8.55,-26.07,-31.04,66.37,-3.3,-22.87,70.62,27.83,16.21,7.49,15.31,11.736363636363636
18.8125,5.81,-21.49,-44.11,65.11,11.45,-26.38,68.36,47.16,11.4,5.95,14.86,12.556363636363637
18.828125,2.51,-16.09,-55.39,62.12,24.32,-29.02,66.03,61.24,6.45,4.07,14.08,12.756363636363638
18.84375,-1.08,-10.59,-64.3,56.97,35.59,-31.11,63.81,70.25,1.49,2.09,12.91,12.366363636363639
18.859375,-4.73,-4.9,-70.99,49.74,45.22,-32.9,61.57,75.54,-3.36,0.24,11.25,11.516363636363637
18.875,-8.24,1.9,-76.26,41.14,52.86,-34.42,58.96,78.98,-7.96,-1.29,9.0,10.424545454545454
18.890625,-11.56,11.09,-81.37,32.33,58.11,-35.45,55.58,82.14,-12.25,-2.4,6.23,9.313636363636363
18.90625,-14.72,23.89,-87.75,24.63,61.0,-35.85,51.19,85.7,-16.18,-3.08,3.28,8.373636363636363
18.921875,-17.76,40.94,-96.71,19.14,62.0,-35.62,45.87,89.39,-19.85,-3.34,0.64,7.6999999999999975
18.9375,-20.75,61.91,-108.95,16.39,61.96,-34.98,40.03,92.33,-23.32,-3.25,-1.23,7.285454545454548
18.953125,-23.79,85.13,-124.01,16.24,61.75,-34.26,34.13,93.64,-26.53,-2.92,-2.13,7.022727272727274
18.96875,-27.06,107.65,-139.74,17.96,61.88,-33.72,28.57,92.87,-29.11,-2.49,-2.26,6.777272727272727
18.984375,-30.8,125.55,-152.39,20.47,62.4,-33.37,23.46,90.18,-30.33,-2.17,-2.05,6.450000000000003
19.0,-35.17,134.8,-157.4,22.67,63.02,-33.05,18.63,86.16,-29.33,-2.15,-2.02,6.014545454545453
19.015625,-40.1,132.4,-150.84,23.8,63.4,-32.6,13.66,81.57,-25.42,-2.56,-2.5,5.528181818181817
19.03125,-45.05,117.28,-131.06,23.71,63.36,-31.94,8.08,77.03,-18.46,-3.4,-3.61,5.085454545454547
19.046875,-48.97,90.5,-99.6,22.83,62.93,-31.22,1.34,72.93,-9.08,-4.61,-5.32,4.702727272727275
19.0625,-50.53,54.63,-60.93,21.95,62.28,-30.72,-6.97,69.29,1.48,-6.14,-7.5,4.258181818181819
19.078125,-48.62,12.61,-21.04,21.78,61.54,-30.71,-17.18,65.82,11.65,-7.96,-10.02,3.4427272727272733
19.09375,-42.76,-33.18,14.7,22.69,60.71,-31.29,-29.33,62.01,20.11,-10.07,-12.62,1.906363636363637
19.109375,-33.41,-80.97,43.1,24.53,59.62,-32.36,-43.12,57.13,26.07,-12.41,-14.98,-0.6181818181818179
19.125,-21.88,-129.04,63.79,26.8,57.96,-33.59,-57.81,50.49,29.44,-14.81,-16.58,-4.1118181818181805
19.140625,-9.87,-174.93,78.49,28.85,55.45,-34.57,-72.16,41.63,30.66,-16.94,-16.95,-8.212727272727273
19.15625,1.09,-215.25,89.74,30.19,51.86,-34.87,-84.62,30.5,30.42,-18.47,-15.8,-12.291818181818183
19.171875,10.07,-246.46,99.52,30.6,47.08,-34.2,-93.59,17.54,29.34,-19.14,-13.21,-15.67727272727273
19.1875,16.93,-266.15,108.67,30.12,41.26,-32.47,-97.86,3.77,27.84,-18.84,-9.59,-17.847272727272728
19.203125,22.08,-274.15,117.02,28.89,34.71,-29.74,-96.89,-9.42,26.16,-17.72,-5.57,-18.60272727272727
19.21875,26.07,-272.52,124.06,27.15,27.89,-26.29,-90.96,-20.49,24.42,-16.0,-1.69,-18.032727272727268
19.234375,29.19,-264.69,129.41,25.2,21.3,-22.41,-81.07,-28.1,22.79,-13.93,1.69,-16.42
19.25,31.41,-253.92,133.18,23.35,15.25,-18.42,-68.61,-31.38,21.49,-11.7,4.49,-14.078181818181815
19.265625,32.5,-242.32,135.78,21.86,9.79,-14.51,-54.93,-30.2,20.71,-9.36,6.75,-11.266363636363637
19.28125,32.27,-230.51,137.64,20.83,4.65,-10.81,-41.01,-25.15,20.61,-6.91,8.51,-8.17090909090909
19.296875,30.88,-218.16,138.93,20.17,-0.65,-7.37,-27.36,-17.35,21.14,-4.31,9.71,-4.9427272727272715
19.3125,28.74,-204.8,139.55,19.56,-6.49,-4.23,-14.05,-8.08,22.09,-1.59,10.18,-1.7381818181818174
19.328125,26.42,-190.44,139.26,18.62,-13.03,-1.51,-1.05,1.64,23.19,1.12,9.84,1.2781818181818196
19.34375,24.35,-175.64,137.95,17.1,-20.13,0.65,11.46,11.27,24.22,3.66,8.76,3.968181818181817
19.359375,22.68,-161.15,135.83,15.02,-27.38,2.12,22.85,20.77,25.08,5.83,7.2,6.2590909090909115
19.375,21.34,-147.55,133.39,12.54,-34.37,2.91,32.11,30.37,25.81,7.51,5.52,8.143636363636363
19.390625,20.14,-134.96,131.2,9.79,-40.86,3.18,38.25,40.32,26.47,8.64,4.04,9.655454545454544
19.40625,18.93,-123.18,129.64,6.7,-46.88,3.25,40.76,50.58,27.01,9.24,3.0,10.82272727272727
19.421875,17.67,-111.9,128.69,2.95,-52.71,3.47,40.04,60.82,27.19,9.41,2.45,11.64363636363636
19.4375,16.39,-101.01,127.91,-1.83,-58.75,4.12,37.38,70.42,26.69,9.3,2.35,12.088181818181818
19.453125,15.09,-90.82,126.61,-7.87,-65.38,5.27,34.5,78.64,25.29,9.05,2.53,12.082727272727276
19.46875,13.77,-81.85,124.18,-15.11,-72.88,6.83,32.84,84.88,23.08,8.86,2.83,11.584545454545456
