Timestamp,Participant_11,Participant_12,Participant_13,Participant_14,Participant_15,Participant_16,Participant_17,Participant_18,Participant_22,Participant_23,Participant_24,Average
0.0,54.62,88.0,-58.0,29.0,-87.48,-33.77,-2.66,-31.34,-39.66,81.65,-1.32,-0.08727272727272604
0.015625,49.12,84.61,-60.77,29.95,-93.01,-31.03,1.86,-28.71,-45.6,82.38,2.84,-0.7600000000000041
0.03125,44.41,80.6,-64.93,30.03,-99.55,-26.77,5.08,-25.51,-48.4,81.43,13.88,-0.8845454545454557
0.046875,41.23,75.75,-68.01,29.35,-107.8,-22.46,5.92,-22.35,-48.15,79.28,31.93,-0.48272727272727356
0.0625,39.96,69.85,-68.45,28.21,-117.94,-19.55,4.54,-19.71,-45.3,76.76,54.87,0.29454545454545084
0.078125,40.57,63.01,-66.46,26.92,-129.31,-18.92,1.86,-17.71,-40.63,74.47,78.73,1.1390909090909078
0.09375,42.71,55.76,-64.01,25.67,-140.23,-20.47,-1.25,-16.17,-34.98,72.31,99.19,1.6845454545454546
0.109375,45.86,48.96,-63.78,24.5,-148.18,-23.15,-4.63,-14.8,-29.14,69.31,113.31,1.6599999999999993
0.125,49.54,43.47,-67.91,23.3,-150.46,-25.26,-8.79,-13.52,-23.69,64.08,120.73,1.0445454545454553
0.140625,53.4,39.77,-77.33,21.91,-144.96,-25.1,-14.55,-12.48,-19.02,55.42,123.44,0.045454545454544165
0.15625,57.19,37.71,-91.79,20.26,-130.91,-21.47,-22.39,-12.04,-15.31,42.95,124.45,-1.0318181818181826
0.171875,60.74,36.56,-110.35,18.34,-109.26,-14.01,-32.05,-12.5,-12.7,27.39,126.07,-1.9790909090909075
0.1875,63.86,35.39,-131.87,16.28,-82.47,-3.18,-42.53,-13.97,-11.29,10.31,128.89,-2.780000000000001
0.203125,66.25,33.41,-155.19,14.22,-53.76,9.87,-52.51,-16.29,-11.16,-6.46,131.74,-3.625454545454545
0.21875,67.54,30.37,-179.13,12.28,-26.23,23.72,-60.86,-19.23,-12.28,-21.54,132.68,-4.789090909090907
0.234375,67.28,26.52,-202.34,10.54,-2.16,36.97,-66.95,-22.56,-14.41,-34.46,130.09,-6.49818181818182
0.25,65.18,22.41,-223.51,8.96,17.25,48.54,-70.74,-26.17,-17.21,-45.72,123.33,-8.879999999999999
0.265625,61.25,18.45,-241.56,7.52,31.8,57.8,-72.62,-30.04,-20.24,-56.51,112.8,-11.940909090909088
0.28125,55.95,14.72,-255.83,6.16,41.95,64.62,-73.08,-34.16,-23.23,-68.16,99.61,-15.58636363636363
0.296875,50.04,10.81,-265.98,4.86,48.39,69.22,-72.55,-38.48,-26.19,-81.73,85.2,-19.673636363636366
0.3125,44.39,6.08,-271.89,3.6,51.9,72.1,-71.25,-42.91,-29.36,-97.58,71.11,-23.982727272727267
0.328125,39.6,-0.02,-273.46,2.34,53.15,73.85,-69.31,-47.33,-33.15,-115.17,58.66,-28.25818181818182
0.34375,35.83,-7.61,-270.93,0.99,52.74,75.11,-66.87,-51.7,-37.83,-132.96,48.51,-32.24727272727273
0.359375,32.7,-16.28,-265.17,-0.56,51.16,76.41,-64.19,-56.07,-43.4,-148.45,40.42,-35.76636363636363
0.375,29.63,-25.22,-257.94,-2.42,48.85,78.02,-61.57,-60.58,-49.44,-158.6,33.32,-38.72272727272727
0.390625,26.14,-33.52,-251.45,-4.62,46.17,80.08,-59.34,-65.47,-55.29,-160.47,25.89,-41.08
0.40625,22.2,-40.53,-247.56,-7.09,43.43,82.62,-57.68,-70.94,-60.17,-152.21,17.29,-42.78545454545455
0.421875,18.22,-46.15,-247.05,-9.62,40.85,85.71,-56.61,-77.01,-63.43,-133.73,7.61,-43.74636363636364
0.4375,14.75,-50.78,-249.28,-12.0,38.58,89.52,-56.06,-83.42,-64.7,-106.98,-2.24,-43.87363636363636
0.453125,12.25,-55.3,-252.58,-14.08,36.61,94.17,-55.91,-89.48,-63.95,-75.37,-11.28,-43.17454545454546
0.46875,10.73,-60.73,-255.13,-15.86,34.84,99.61,-56.01,-94.15,-61.54,-42.76,-19.24,-41.84
0.484375,9.78,-67.93,-255.62,-17.51,33.09,105.5,-56.25,-96.28,-58.07,-12.28,-26.89,-40.22363636363636
0.5,8.78,-77.17,-253.25,-19.33,31.26,111.25,-56.49,-94.95,-54.29,14.32,-35.55,-38.67454545454546
0.515625,7.2,-87.83,-247.31,-21.57,29.31,116.28,-56.6,-89.8,-50.82,36.72,-46.21,-37.32999999999999
0.53125,4.79,-98.1,-236.61,-24.39,27.24,120.17,-56.56,-81.19,-48.12,55.5,-58.71,-35.99818181818181
0.546875,1.74,-105.22,-219.46,-27.73,24.97,122.81,-56.39,-70.04,-46.39,71.41,-71.57,-34.17000000000001
0.5625,-1.58,-106.1,-194.46,-31.39,22.24,124.35,-56.3,-57.58,-45.61,84.88,-82.76,-31.300909090909098
0.578125,-4.73,-98.31,-161.48,-35.13,18.63,125.05,-56.41,-44.96,-45.62,96.0,-90.63,-27.05363636363636
0.59375,-7.5,-81.11,-122.43,-38.71,13.68,125.21,-56.72,-32.95,-46.03,104.77,-94.73,-21.501818181818184
0.609375,-10.01,-55.92,-81.01,-42.0,7.22,125.14,-57.01,-21.96,-46.25,111.42,-95.84,-15.110909090909088
0.625,-12.66,-26.01,-41.51,-45.01,-0.62,125.18,-56.85,-12.12,-45.45,116.52,-95.38,-8.537272727272727
0.640625,-15.98,4.5,-7.37,-47.9,-9.3,125.67,-55.82,-3.4,-42.71,120.86,-94.53,-2.361818181818181
0.65625,-20.34,31.96,19.77,-50.96,-18.23,126.81,-53.72,4.25,-37.33,125.21,-93.81,3.0554545454545443
0.671875,-25.82,54.21,40.13,-54.61,-26.89,128.57,-50.68,10.9,-29.11,130.03,-93.14,7.5990909090909105
0.6875,-32.01,70.85,54.96,-59.25,-35.1,130.53,-47.23,16.75,-18.57,135.38,-92.29,11.274545454545454
0.703125,-38.18,82.71,65.55,-65.17,-43.04,132.13,-44.1,22.01,-6.81,140.98,-91.27,14.073636363636364
0.71875,-43.47,91.14,72.67,-72.28,-51.05,132.91,-41.97,26.96,4.8,146.4,-90.41,15.972727272727274
0.734375,-47.23,97.23,76.61,-80.04,-59.43,132.74,-41.2,31.86,15.19,151.29,-90.06,16.996363636363636
0.75,-49.28,101.5,77.7,-87.48,-68.22,131.92,-41.73,36.8,23.92,155.48,-90.3,17.300909090909087
0.765625,-50.08,104.13,76.74,-93.37,-77.14,130.95,-43.08,41.74,31.3,158.93,-90.85,17.206363636363637
0.78125,-50.62,105.14,74.91,-96.58,-85.61,130.07,-44.55,46.45,38.06,161.65,-91.32,17.05454545454546
0.796875,-52.18,104.62,73.36,-96.46,-93.06,129.0,-45.59,50.67,44.9,163.54,-91.55,17.022727272727273
0.8125,-55.92,102.77,72.68,-92.96,-99.04,126.72,-45.94,54.2,52.12,164.35,-91.83,17.013636363636365
0.828125,-62.32,99.75,72.69,-86.73,-103.52,121.69,-45.78,57.04,59.45,163.78,-92.76,16.662727272727274
0.84375,-70.62,95.55,72.64,-78.88,-106.82,112.28,-45.58,59.39,66.21,161.63,-94.86,15.54
0.859375,-78.5,90.11,71.73,-70.73,-109.53,97.4,-45.82,61.55,71.66,158.04,-98.14,13.433636363636362
0.875,-82.34,83.34,69.45,-63.48,-112.22,76.8,-46.61,63.75,75.34,153.48,-101.9,10.509999999999998
0.890625,-78.08,75.3,65.8,-58.03,-115.11,51.16,-47.49,66.04,77.16,148.55,-104.87,7.311818181818182
0.90625,-62.7,66.31,61.12,-54.89,-117.87,21.8,-47.39,68.33,77.39,143.73,-105.63,4.563636363636363
0.921875,-35.44,56.84,55.8,-54.13,-119.5,-9.76,-45.01,70.51,76.41,139.03,-103.09,2.878181818181818
0.9375,1.43,47.51,50.19,-55.41,-118.56,-42.22,-39.3,72.67,74.51,133.89,-96.79,2.538181818181817
0.953125,43.05,38.89,44.65,-58.04,-113.45,-74.72,-29.89,75.17,71.85,127.41,-86.76,3.469090909090906
0.96875,83.38,31.46,39.77,-61.03,-102.93,-106.82,-17.31,78.5,68.58,118.79,-73.32,5.370000000000002
0.984375,117.05,25.45,36.3,-63.17,-86.63,-138.35,-2.75,82.96,64.96,108.02,-56.72,7.920000000000001
1.0,140.83,20.87,34.98,-63.27,-65.25,-169.23,12.48,88.38,61.39,96.07,-36.98,10.933636363636365
1.015625,154.3,17.41,36.05,-60.33,-40.46,-199.29,27.46,94.05,58.35,84.69,-14.16,14.37
1.03125,159.36,14.59,39.01,-53.73,-14.4,-227.99,41.9,98.94,56.12,75.52,11.36,18.243636363636366
1.046875,159.08,11.91,42.58,-43.32,11.15,-254.11,56.03,102.1,54.68,69.1,38.57,22.524545454545454
1.0625,156.39,9.02,45.33,-29.35,35.49,-275.53,70.2,103.02,53.84,64.27,66.0,27.152727272727272
1.078125,153.19,5.89,46.22,-12.36,59.47,-289.42,84.49,101.68,53.44,58.37,92.27,32.11272727272727
1.09375,150.13,2.9,45.19,7.04,85.23,-292.85,98.58,98.43,53.66,48.3,116.67,37.57090909090909
1.109375,146.82,0.69,43.09,28.35,115.4,-283.89,111.99,93.75,55.09,31.87,139.45,43.87363636363637
1.125,142.45,-0.02,41.21,51.21,151.94,-262.52,124.3,88.13,58.47,8.84,161.48,51.40818181818181
1.140625,136.23,1.45,40.55,75.45,195.15,-231.0,135.49,82.09,64.28,-19.13,183.48,60.36727272727273
1.15625,127.61,5.48,41.2,100.97,243.38,-193.42,145.83,76.27,72.32,-49.35,205.44,70.52090909090909
1.171875,116.44,12.12,42.32,127.58,293.4,-154.51,155.66,71.35,81.63,-79.52,226.51,81.18
1.1875,102.91,21.0,42.51,154.78,341.42,-118.44,165.07,67.86,90.81,-108.72,245.57,91.34272727272727
1.203125,87.52,31.41,40.69,181.73,384.09,-88.06,173.7,65.89,98.59,-137.64,261.96,99.9890909090909
1.21875,71.03,42.27,36.64,207.29,418.89,-64.95,180.69,64.98,104.31,-167.99,275.87,106.27545454545456
1.234375,54.25,52.35,31.23,230.28,444.06,-49.51,184.83,64.32,108.12,-201.57,288.0,109.66909090909093
1.25,37.7,60.45,25.99,249.92,458.15,-41.55,184.49,63.04,110.77,-239.71,298.84,109.82636363636362
1.265625,21.29,65.66,22.42,266.07,459.68,-40.53,177.66,60.52,113.16,-283.08,307.99,106.44000000000001
1.28125,4.09,67.43,21.19,279.19,447.3,-45.7,162.03,56.4,115.96,-331.73,314.14,99.1181818181818
1.296875,-15.5,65.59,21.85,289.91,420.36,-56.56,135.63,50.4,119.41,-384.8,315.59,87.44363636363637
1.3125,-39.26,60.32,23.12,298.31,379.4,-73.36,97.88,42.1,123.38,-439.81,310.98,71.18727272727273
1.328125,-68.28,52.06,23.51,303.27,326.28,-97.6,50.65,30.93,127.61,-492.26,299.77,50.53999999999999
1.34375,-102.26,41.41,22.0,302.46,263.66,-131.52,-1.44,16.21,131.82,-536.06,282.21,26.226363636363633
1.359375,-139.05,28.93,18.26,292.86,194.55,-176.61,-51.75,-2.75,135.85,-565.21,258.87,-0.5500000000000062
1.375,-174.9,14.95,12.24,271.72,121.9,-231.37,-93.58,-26.79,139.56,-575.99,230.36,-28.354545454545452
1.390625,-205.18,-0.58,3.67,237.46,48.9,-290.06,-122.3,-56.71,142.88,-568.59,197.21,-55.75454545454545
1.40625,-225.69,-18.08,-8.03,190.37,-20.7,-343.23,-136.78,-93.23,145.78,-546.86,160.09,-81.48727272727272
1.421875,-233.85,-37.87,-23.31,132.96,-82.53,-380.44,-139.36,-136.4,148.27,-516.5,119.95,-104.46181818181817
1.4375,-229.48,-59.77,-41.59,69.9,-132.32,-393.99,-134.38,-184.94,150.32,-482.35,77.85,-123.70454545454545
1.453125,-214.92,-82.6,-60.67,7.41,-167.09,-381.75,-126.32,-235.84,151.54,-446.7,34.61,-138.39363636363638
1.46875,-194.16,-104.06,-77.37,-47.81,-186.2,-347.49,-118.22,-284.58,151.03,-409.31,-9.54,-147.97363636363636
1.484375,-171.63,-121.28,-88.58,-90.16,-191.68,-298.6,-111.25,-326.05,147.23,-369.01,-54.72,-152.3390909090909
1.5,-150.85,-131.47,-92.84,-116.68,-187.46,-242.67,-105.41,-355.87,138.28,-325.7,-100.73,-151.94545454545457
1.515625,-133.61,-132.82,-91.0,-127.89,-178.02,-184.83,-100.4,-371.51,122.47,-281.21,-146.31,-147.7390909090909
1.53125,-119.95,-125.04,-85.54,-127.37,-167.0,-127.36,-96.34,-372.78,98.98,-238.7,-188.82,-140.9018181818182
1.546875,-108.7,-109.37,-78.96,-120.34,-156.62,-71.25,-93.68,-361.73,68.33,-201.05,-224.82,-132.56272727272727
1.5625,-98.39,-88.26,-72.07,-111.67,-147.74,-18.33,-92.77,-341.96,32.45,-169.51,-251.25,-123.5909090909091
1.578125,-87.97,-64.65,-63.6,-104.41,-140.41,27.91,-93.34,-317.85,-5.66,-143.48,-266.65,-114.55545454545455
1.59375,-77.09,-41.45,-51.32,-99.38,-134.46,63.31,-94.38,-293.81,-42.62,-121.5,-271.69,-105.85363636363637
1.609375,-66.05,-21.06,-33.93,-95.99,-129.71,85.19,-94.63,-273.49,-75.42,-102.44,-268.76,-97.84454545454545
1.625,-55.47,-5.08,-12.44,-93.35,-125.95,94.05,-93.04,-259.06,-101.97,-86.18,-260.88,-90.85181818181819
1.640625,-45.94,5.78,9.91,-91.16,-122.82,93.73,-89.39,-250.66,-121.43,-73.36,-250.57,-85.08272727272728
1.65625,-37.84,11.68,29.24,-89.72,-119.82,89.61,-84.3,-246.46,-134.1,-64.44,-239.22,-80.48818181818183
1.671875,-31.35,13.5,43.0,-89.34,-116.52,86.21,-79.07,-243.46,-141.12,-59.05,-227.22,-76.76545454545455
1.6875,-26.47,12.45,51.03,-89.82,-112.71,85.5,-75.02,-238.77,-144.03,-55.86,-214.63,-73.48454545454545
1.703125,-23.11,9.8,55.3,-90.32,-108.49,86.79,-73.05,-230.88,-144.28,-53.22,-201.77,-70.29363636363637
1.71875,-21.21,6.74,58.4,-89.84,-104.26,87.7,-73.33,-220.14,-142.96,-49.92,-189.35,-67.10636363636364
1.734375,-20.71,4.04,61.99,-87.77,-100.54,86.06,-75.34,-208.39,-140.71,-45.88,-178.15,-64.12727272727273
1.75,-21.56,2.13,66.16,-84.29,-97.76,81.15,-78.09,-197.79,-137.82,-42.23,-168.53,-61.693636363636365
1.765625,-23.71,1.15,69.77,-80.23,-96.03,73.89,-80.52,-189.74,-134.4,-40.94,-160.19,-60.08636363636363
1.78125,-27.07,1.01,71.6,-76.71,-95.15,66.18,-81.71,-184.3,-130.59,-43.92,-152.27,-59.357272727272736
1.796875,-31.48,1.45,71.3,-74.59,-94.71,59.81,-81.04,-180.63,-126.55,-52.12,-143.85,-59.309999999999995
1.8125,-36.74,2.24,69.66,-74.06,-94.31,55.64,-78.12,-177.88,-122.39,-64.73,-134.35,-59.549090909090914
1.828125,-42.59,3.18,68.05,-74.7,-93.77,53.44,-72.77,-175.81,-118.15,-78.88,-123.78,-59.61636363636364
1.84375,-48.71,4.09,67.61,-75.64,-93.3,52.04,-65.0,-174.73,-113.79,-90.17,-112.64,-59.11272727272728
1.859375,-54.78,4.93,68.59,-76.06,-93.29,50.09,-55.03,-174.98,-109.19,-93.83,-101.69,-57.74909090909091
1.875,-60.57,5.62,70.41,-75.47,-94.19,46.56,-43.32,-176.02,-104.32,-86.37,-91.54,-55.38272727272727
1.890625,-66.09,6.06,72.07,-73.97,-96.16,41.16,-30.62,-176.17,-99.24,-66.88,-82.58,-52.03818181818181
1.90625,-71.74,6.11,72.76,-72.12,-99.01,34.33,-17.79,-173.07,-94.09,-37.42,-74.83,-47.89727272727273
1.921875,-78.34,5.64,72.17,-70.65,-102.28,26.96,-5.75,-164.78,-88.98,-2.34,-68.14,-43.31727272727272
1.9375,-86.97,4.49,70.66,-70.16,-105.51,19.95,4.82,-150.75,-83.96,33.3,-62.24,-38.76090909090909
1.953125,-98.45,2.65,69.11,-70.88,-108.55,13.83,13.48,-132.35,-79.02,65.45,-56.86,-34.69
1.96875,-112.73,0.21,68.42,-72.75,-111.76,8.6,20.1,-112.24,-74.11,92.05,-51.82,-31.45727272727273
1.984375,-128.25,-2.67,69.15,-75.46,-115.95,3.82,24.79,-93.21,-69.24,113.04,-47.02,-29.181818181818176
2.0,-141.88,-5.87,71.33,-78.72,-122.08,-1.13,27.79,-76.89,-64.46,129.47,-42.38,-27.710909090909084
2.015625,-149.5,-9.37,74.37,-82.15,-130.78,-6.69,29.39,-63.12,-59.92,142.42,-37.89,-26.658181818181824
2.03125,-147.26,-13.25,77.41,-85.25,-141.88,-13.06,29.88,-50.3,-55.77,152.3,-33.59,-25.524545454545454
2.046875,-132.99,-17.6,79.67,-87.31,-154.05,-20.2,29.58,-36.56,-52.1,158.9,-29.53,-23.83545454545455
2.0625,-107.1,-22.39,80.83,-87.39,-164.88,-28.15,28.82,-20.92,-48.95,161.88,-25.87,-21.283636363636365
2.078125,-72.66,-27.44,81.12,-84.6,-171.36,-37.06,27.91,-3.92,-46.28,161.5,-22.73,-17.77454545454545
2.09375,-34.46,-32.48,81.26,-78.35,-170.71,-47.01,27.12,12.62,-43.96,158.87,-20.16,-13.387272727272723
2.109375,2.44,-37.24,81.97,-68.67,-161.25,-57.69,26.6,26.65,-41.86,155.7,-18.11,-8.314545454545456
2.125,34.02,-41.57,83.71,-56.23,-143.06,-68.03,26.41,36.97,-39.83,153.73,-16.4,-2.7527272727272747
2.140625,58.12,-45.6,86.44,-42.22,-118.0,-76.27,26.42,43.81,-37.83,154.01,-14.82,3.096363636363637
2.15625,74.39,-49.6,89.68,-28.0,-89.2,-80.45,26.48,48.59,-35.94,156.57,-13.16,9.032727272727273
2.171875,83.78,-53.93,92.89,-14.8,-60.11,-79.09,26.36,53.07,-34.34,160.43,-11.31,14.813636363636364
2.1875,87.93,-58.84,95.71,-3.52,-33.67,-71.89,25.89,58.33,-33.25,164.07,-9.33,20.13
2.203125,88.61,-64.43,98.17,5.36,-11.72,-59.81,24.93,64.32,-32.83,166.03,-7.44,24.653636363636362
2.21875,87.45,-70.53,100.51,11.72,5.12,-44.7,23.44,70.07,-33.06,165.45,-6.01,28.13272727272727
2.234375,85.78,-76.51,102.99,15.76,17.03,-28.73,21.41,74.43,-33.72,162.23,-5.53,30.467272727272725
2.25,84.52,-81.32,105.45,17.89,24.68,-13.6,18.88,76.86,-34.44,156.97,-6.44,31.768181818181816
2.265625,84.12,-83.5,107.35,18.64,28.83,-0.38,15.91,77.73,-34.96,150.5,-8.94,32.300000000000004
2.28125,84.56,-81.5,108.06,18.58,30.18,10.61,12.53,78.02,-35.2,143.46,-12.7,32.418181818181814
2.296875,85.47,-74.28,107.26,18.19,29.36,19.45,8.85,78.54,-35.36,135.97,-16.81,32.421818181818175
2.3125,86.43,-61.71,105.26,17.78,27.0,26.45,4.98,79.28,-35.76,127.67,-19.83,32.50454545454546
2.328125,87.15,-44.8,102.89,17.51,23.74,31.98,1.06,79.26,-36.71,117.92,-20.24,32.70545454545455
2.34375,87.64,-25.5,101.05,17.4,20.12,36.29,-2.83,76.99,-38.32,106.23,-16.95,32.92
2.359375,88.13,-6.12,100.31,17.37,16.43,39.61,-6.7,71.26,-40.4,92.63,-9.84,32.97090909090909
2.375,88.97,11.39,100.69,17.42,12.71,42.06,-10.63,61.88,-42.65,77.71,0.06,32.691818181818185
2.390625,90.45,25.86,101.88,17.58,8.75,43.72,-14.73,49.79,-44.72,62.57,10.82,31.99727272727272
2.40625,92.62,36.94,103.56,17.99,4.32,44.69,-19.04,36.56,-46.47,48.34,20.24,30.886363636363637
2.421875,95.31,44.96,105.48,18.87,-0.61,45.19,-23.5,23.55,-48.0,35.78,26.54,29.415454545454544
2.4375,98.06,50.4,107.1,20.38,-5.65,45.54,-27.9,11.34,-49.61,25.04,28.88,27.598181818181818
2.453125,100.24,53.61,107.13,22.62,-10.03,46.07,-32.09,-0.35,-51.69,15.55,27.43,25.317272727272734
2.46875,101.18,54.82,103.36,25.5,-12.77,47.04,-36.04,-12.01,-54.58,6.3,23.16,22.360000000000007
2.484375,100.31,54.16,93.14,28.76,-13.05,48.46,-39.97,-23.6,-58.32,-3.79,17.3,18.490909090909096
2.5,97.35,51.84,74.53,32.06,-10.54,50.18,-44.28,-34.31,-62.58,-15.66,10.91,13.590909090909092
2.515625,92.4,48.29,47.5,34.99,-5.54,51.95,-49.44,-42.69,-66.59,-29.81,4.68,7.794545454545456
2.53125,85.91,44.02,14.29,37.21,1.09,53.59,-55.76,-47.34,-69.29,-46.19,-1.04,1.4990909090909106
2.546875,78.65,39.44,-21.08,38.52,8.25,55.07,-63.13,-47.51,-69.65,-64.02,-6.09,-4.6863636363636365
2.5625,71.37,34.79,-54.2,38.87,14.92,56.46,-70.85,-43.22,-67.05,-81.67,-10.32,-10.081818181818182
2.578125,64.7,30.04,-81.59,38.34,20.41,57.77,-77.71,-35.08,-61.54,-96.63,-13.57,-14.078181818181815
2.59375,58.91,25.03,-101.35,37.11,24.43,58.86,-82.24,-23.9,-53.88,-105.88,-15.69,-16.236363636363635
2.609375,53.88,19.71,-112.95,35.35,27.02,59.37,-83.04,-10.5,-45.26,-106.58,-16.71,-16.33727272727273
2.625,49.26,14.35,-116.66,33.21,28.56,58.91,-79.3,4.1,-36.86,-97.04,-16.87,-14.394545454545455
2.640625,44.61,9.54,-113.1,30.82,29.52,57.23,-70.91,18.41,-29.55,-77.45,-16.51,-10.671818181818184
2.65625,39.63,6.07,-103.3,28.31,30.37,54.5,-58.67,30.48,-23.63,-50.15,-16.01,-5.672727272727272
2.671875,34.28,4.54,-89.22,25.81,31.3,51.28,-43.94,38.33,-19.04,-18.91,-15.55,-0.10181818181818159
2.6875,28.8,5.15,-73.84,23.44,32.12,48.31,-28.38,40.54,-15.44,12.11,-15.09,5.247272727272727
2.703125,23.64,7.54,-60.79,21.28,32.27,46.15,-13.56,36.91,-12.5,39.63,-14.46,9.646363636363635
2.71875,19.28,10.89,-53.32,19.36,31.17,44.87,-0.68,28.6,-9.92,61.97,-13.5,12.610909090909088
2.734375,16.05,14.26,-53.15,17.69,28.59,43.99,9.65,17.58,-7.56,79.06,-12.22,13.994545454545458
2.75,13.95,16.86,-59.96,16.26,25.04,42.72,17.37,5.9,-5.31,91.77,-10.83,13.979090909090907
2.765625,12.6,18.29,-71.62,15.1,21.97,40.38,22.82,-5.1,-3.13,101.06,-9.73,12.967272727272729
2.78125,11.29,18.57,-85.22,14.19,21.45,36.82,26.54,-15.06,-1.0,107.44,-9.26,11.43272727272727
2.796875,9.23,18.0,-98.3,13.54,25.63,32.38,29.02,-24.41,1.13,110.92,-9.6,9.776363636363639
2.8125,5.84,16.79,-109.48,13.04,35.91,27.72,30.63,-33.89,3.32,111.44,-10.66,8.241818181818182
2.828125,0.98,14.97,-118.38,12.58,52.28,23.39,31.53,-44.01,5.6,109.39,-12.11,6.9290909090909105
2.84375,-4.94,12.26,-125.02,12.03,73.06,19.49,31.87,-54.61,7.92,105.84,-13.49,5.855454545454546
2.859375,-11.2,8.27,-129.15,11.34,95.25,15.69,31.83,-64.79,10.13,102.35,-14.4,5.029090909090907
2.875,-17.01,2.74,-130.13,10.53,115.27,11.51,31.73,-72.98,11.93,100.38,-14.58,4.489999999999999
2.890625,-21.96,-4.21,-127.35,9.71,130.02,6.61,31.91,-77.42,13.14,100.68,-14.04,4.280909090909093
2.90625,-26.21,-12.07,-120.89,8.93,137.75,1.01,32.55,-76.73,13.7,102.98,-12.99,4.3663636363636344
2.921875,-30.43,-19.99,-111.79,8.21,138.2,-4.93,33.62,-70.62,13.79,106.2,-11.84,4.583636363636362
2.9375,-35.49,-27.18,-101.95,7.47,132.32,-10.75,34.79,-60.19,13.75,108.83,-10.96,4.603636363636362
2.953125,-42.04,-33.16,-93.46,6.61,121.33,-16.17,35.66,-47.82,13.81,109.67,-10.66,3.9790909090909112
2.96875,-50.16,-37.84,-87.9,5.5,105.91,-21.12,35.88,-36.48,13.94,108.12,-11.04,2.255454545454545
2.984375,-59.31,-41.57,-86.15,4.07,85.85,-25.82,35.27,-28.59,13.83,104.38,-11.99,-0.9118181818181837
3.0,-68.5,-44.88,-88.37,2.31,60.35,-30.49,33.86,-25.21,12.95,99.14,-13.24,-5.643636363636365
3.015625,-76.74,-48.34,-94.26,0.23,28.83,-35.46,31.77,-25.68,10.91,93.1,-14.47,-11.82818181818182
3.03125,-83.42,-52.4,-103.06,-2.06,-8.41,-41.06,29.13,-28.12,7.71,86.65,-15.38,-19.12909090909091
3.046875,-88.61,-57.31,-113.41,-4.44,-49.84,-47.55,26.01,-30.39,3.85,79.67,-15.85,-27.079090909090905
3.0625,-93.12,-63.18,-123.28,-6.76,-92.9,-55.08,22.48,-30.97,0.12,71.63,-15.84,-35.17272727272728
3.078125,-98.22,-69.73,-130.27,-8.9,-134.5,-63.33,18.55,-29.39,-2.62,61.91,-15.42,-42.901818181818186
3.09375,-105.32,-76.22,-132.39,-10.82,-171.43,-71.34,14.3,-26.03,-3.91,50.15,-14.62,-49.78454545454545
3.109375,-115.46,-81.34,-128.84,-12.6,-200.81,-77.54,9.79,-21.52,-3.77,36.52,-13.43,-55.36363636363637
3.125,-128.79,-83.46,-120.58,-14.4,-220.2,-80.08,5.05,-16.31,-2.72,21.77,-11.8,-59.22909090909091
3.140625,-144.16,-81.15,-109.93,-16.41,-227.92,-77.59,0.04,-10.6,-1.42,6.99,-9.67,-61.07454545454545
3.15625,-158.98,-73.74,-99.64,-18.76,-223.38,-69.61,-5.28,-4.58,-0.37,-6.74,-7.08,-60.74181818181819
3.171875,-169.44,-61.67,-91.71,-21.45,-207.38,-56.93,-10.95,1.2,0.36,-18.76,-4.2,-58.26636363636363
3.1875,-171.48,-46.35,-86.74,-24.33,-182.25,-41.21,-16.91,5.8,1.01,-29.02,-1.3,-53.8890909090909
3.203125,-162.01,-29.71,-83.74,-27.18,-151.39,-24.47,-22.99,8.32,1.98,-38.09,1.29,-47.99909090909091
3.21875,-140.12,-13.41,-80.78,-29.79,-118.6,-8.4,-28.96,8.46,3.42,-46.92,3.35,-41.06818181818182
3.234375,-107.71,1.49,-75.77,-32.12,-87.13,5.97,-34.63,6.96,5.13,-56.62,4.77,-33.60545454545455
3.25,-69.1,14.73,-67.17,-34.3,-58.9,18.23,-39.92,5.45,6.6,-68.21,5.57,-26.09272727272727
3.265625,-29.77,26.41,-54.36,-36.7,-34.48,28.35,-45.03,5.98,7.27,-82.37,5.85,-18.986363636363635
3.28125,5.25,36.67,-37.72,-39.74,-13.49,36.46,-50.42,10.2,6.83,-99.16,5.74,-12.67090909090909
3.296875,32.75,45.25,-18.6,-43.77,4.55,42.67,-56.78,18.83,5.31,-117.67,5.42,-7.458181818181819
3.3125,51.75,51.66,0.92,-48.85,19.55,47.22,-64.71,31.43,3.06,-135.8,5.09,-3.516363636363637
3.328125,63.16,55.34,18.43,-54.58,30.82,50.41,-74.45,46.71,0.52,-150.35,4.98,-0.8190909090909099
3.34375,68.87,55.96,31.75,-60.06,37.7,52.69,-85.52,62.96,-2.0,-157.71,5.28,0.9018181818181833
3.359375,70.86,53.61,39.58,-64.06,40.45,54.48,-96.56,78.6,-4.36,-154.92,6.02,2.1545454545454525
3.375,70.71,48.84,41.88,-65.3,40.7,56.0,-105.55,92.4,-6.69,-140.79,7.13,3.5754545454545474
3.390625,69.53,42.4,39.82,-62.87,41.03,57.38,-110.24,103.65,-9.15,-116.46,8.35,5.767272727272729
3.40625,68.11,35.15,35.28,-56.46,43.72,58.63,-108.92,111.99,-11.95,-85.26,9.37,9.059999999999999
3.421875,67.03,27.85,30.22,-46.55,49.42,59.75,-100.93,117.31,-15.27,-51.59,9.96,13.381818181818181
3.4375,66.62,21.15,26.13,-34.22,56.56,60.79,-86.89,119.65,-19.26,-19.58,10.01,18.269090909090913
3.453125,66.95,15.63,23.81,-20.89,62.15,61.79,-68.5,119.22,-23.96,8.09,9.56,23.077272727272724
3.46875,67.76,11.74,23.59,-7.94,63.39,62.78,-48.02,116.47,-29.23,30.52,8.78,27.25818181818181
3.484375,68.57,9.79,25.67,3.55,59.31,63.75,-27.57,112.13,-34.63,48.23,7.85,30.60454545454546
3.5,68.95,9.85,30.31,12.9,51.37,64.71,-8.78,107.1,-39.33,62.32,6.95,33.304545454545455
3.515625,68.77,11.61,37.84,19.86,42.72,65.68,7.45,102.39,-42.35,73.68,6.2,35.804545454545455
3.53125,68.32,14.32,48.44,24.46,36.5,66.67,20.82,98.78,-42.78,82.6,5.66,38.52636363636364
3.546875,68.25,16.98,61.82,26.96,34.31,67.55,31.47,96.69,-40.11,88.91,5.3,41.64818181818181
3.5625,69.33,18.53,77.17,27.71,35.61,68.08,39.73,95.99,-34.49,92.43,5.07,45.01454545454545
3.578125,72.03,18.21,93.12,27.12,38.35,67.92,45.98,96.08,-26.69,93.33,4.91,48.21454545454546
3.59375,76.31,15.81,107.93,25.62,40.28,66.86,50.65,96.1,-17.88,92.35,4.73,50.79636363636364
3.609375,81.45,11.66,119.54,23.56,40.09,64.92,54.13,95.27,-9.35,90.61,4.48,52.39636363636364
3.625,86.24,6.46,125.85,21.27,37.82,62.47,56.76,93.09,-2.12,89.25,4.13,52.83818181818181
3.640625,89.35,1.04,124.85,19.03,34.45,60.03,58.78,89.51,3.3,89.04,3.61,52.09
3.65625,89.8,-3.96,115.11,17.08,31.04,58.03,60.38,84.84,6.9,90.18,2.88,50.20727272727272
3.671875,87.29,-8.18,96.24,15.68,28.16,56.65,61.69,79.6,9.17,92.28,1.94,47.32000000000001
3.6875,82.28,-11.59,68.95,15.04,25.7,55.73,62.79,74.3,10.8,94.59,0.85,43.58545454545455
3.703125,75.82,-14.35,34.9,15.32,23.2,54.9,63.75,69.34,12.44,96.22,-0.24,39.209090909090904
3.71875,69.12,-16.68,-3.93,16.57,20.36,53.76,64.6,64.84,14.43,96.51,-1.19,34.39909090909091
3.734375,63.17,-18.71,-45.8,18.73,17.35,52.14,65.29,60.68,16.79,95.12,-1.87,29.35363636363636
3.75,58.4,-20.5,-89.22,21.59,14.74,50.06,65.65,56.41,19.24,92.06,-2.29,24.19454545454546
3.765625,54.72,-22.12,-132.36,24.92,13.18,47.76,65.45,51.43,21.47,87.58,-2.58,19.040909090909086
3.78125,51.62,-23.7,-172.18,28.42,12.86,45.53,64.43,44.99,23.31,81.95,-2.85,14.034545454545457
3.796875,48.5,-25.53,-204.14,31.84,13.4,43.54,62.41,36.58,24.84,75.32,-3.18,9.416363636363638
3.8125,44.94,-28.05,-223.13,34.88,13.82,41.79,59.34,26.11,26.34,67.69,-3.5,5.475454545454545
3.828125,40.78,-31.76,-225.37,37.28,13.0,40.02,55.34,14.18,28.06,58.93,-3.64,2.4381818181818207
3.84375,36.2,-37.06,-210.41,38.83,10.09,37.89,50.63,2.03,30.08,48.91,-3.44,0.340909090909092
3.859375,31.56,-44.03,-181.95,39.41,4.96,34.99,45.5,-8.65,32.3,37.64,-2.78,-1.0045454545454529
3.875,27.29,-52.26,-146.77,39.05,-1.87,31.11,40.18,-16.24,34.43,25.32,-1.68,-1.9490909090909083
3.890625,23.66,-60.73,-112.18,37.92,-9.34,26.31,34.78,-19.61,36.19,12.41,-0.25,-2.8036363636363637
3.90625,20.77,-67.82,-83.34,36.28,-16.38,20.98,29.32,-18.42,37.44,-0.54,1.31,-3.6727272727272724
3.921875,18.41,-71.57,-61.8,34.32,-22.3,15.7,23.65,-13.09,38.26,-12.98,2.81,-4.417272727272726
3.9375,16.15,-70.2,-45.91,32.19,-27.05,11.0,17.61,-4.52,38.88,-24.53,4.09,-4.753636363636366
3.953125,13.42,-62.69,-32.84,29.91,-31.3,7.12,11.08,6.23,39.57,-35.06,5.05,-4.500909090909091
3.96875,9.79,-49.29,-20.58,27.48,-36.1,3.87,4.07,18.14,40.49,-44.77,5.69,-3.7463636363636366
3.984375,5.09,-31.52,-9.0,24.92,-42.63,0.76,-3.24,30.32,41.54,-54.14,6.07,-2.893636363636364
4.0,-0.39,-11.95,0.64,22.36,-51.69,-2.82,-10.55,41.9,42.47,-63.87,6.28,-2.5109090909090908
4.015625,-6.05,6.75,6.85,19.91,-63.34,-7.23,-17.52,52.0,42.93,-74.86,6.43,-3.102727272727273
4.03125,-11.25,22.42,9.03,17.67,-76.58,-12.43,-23.97,59.71,42.71,-87.91,6.59,-4.9099999999999975
4.046875,-15.61,34.03,7.73,15.66,-89.39,-18.02,-29.97,64.36,41.92,-103.47,6.79,-7.815454545454544
4.0625,-19.31,41.65,4.12,13.84,-99.0,-23.38,-35.94,65.65,40.91,-121.13,7.03,-11.414545454545452
4.078125,-23.05,46.07,-0.75,12.16,-102.58,-28.06,-42.56,63.88,40.19,-139.28,7.32,-15.15090909090909
4.09375,-27.73,48.28,-6.24,10.6,-98.04,-31.95,-50.61,59.9,40.25,-155.04,7.67,-18.44636363636364
4.109375,-34.06,48.98,-11.96,9.19,-84.68,-35.3,-60.63,54.88,41.3,-164.74,8.05,-20.815454545454546
4.125,-42.16,48.5,-17.34,7.91,-63.5,-38.63,-72.54,50.08,43.24,-164.96,8.39,-21.91
4.140625,-51.44,46.87,-21.49,6.74,-36.85,-42.56,-85.45,46.42,45.73,-153.69,8.53,-21.562727272727273
4.15625,-60.83,44.1,-23.38,5.59,-7.87,-47.6,-97.58,44.34,48.28,-131.25,8.29,-19.81
4.171875,-69.26,40.29,-22.33,4.35,20.39,-53.98,-106.58,43.7,50.37,-100.36,7.62,-16.89
4.1875,-76.09,35.64,-18.43,3.0,45.6,-61.53,-110.09,43.91,51.58,-65.39,6.6,-13.200000000000001
4.203125,-81.41,30.43,-12.62,1.55,66.46,-69.5,-106.48,44.24,51.58,-31.0,5.47,-9.207272727272727
4.21875,-85.99,24.89,-6.27,0.06,82.61,-76.51,-95.32,44.06,50.14,-0.76,4.52,-5.3245454545454525
4.234375,-91.06,19.22,-0.7,-1.49,94.34,-80.73,-77.55,43.1,47.14,23.62,3.95,-1.832727272727273
4.25,-97.88,13.66,3.34,-3.19,102.26,-80.39,-55.25,41.46,42.61,42.27,3.78,1.1518181818181839
4.265625,-107.37,8.59,5.83,-5.22,106.94,-74.34,-31.01,39.47,36.73,56.45,3.84,3.6281818181818166
4.28125,-119.71,4.47,7.24,-7.74,108.87,-62.61,-7.24,37.36,29.82,67.57,3.86,5.626363636363636
4.296875,-133.84,1.84,8.24,-10.8,108.39,-46.61,14.3,35.13,22.2,76.5,3.62,7.1790909090909105
4.3125,-147.45,1.07,9.17,-14.25,105.91,-28.68,32.7,32.45,14.09,83.44,3.07,8.319999999999999
4.328125,-157.02,2.2,9.92,-17.86,101.98,-11.4,47.74,28.79,5.47,88.1,2.27,9.108181818181817
4.34375,-158.75,4.91,9.96,-21.31,97.37,3.28,59.61,23.66,-3.83,90.34,1.41,9.695454545454547
4.359375,-149.62,8.46,8.88,-24.44,92.91,14.51,68.6,16.79,-14.04,90.42,0.61,10.28
4.375,-128.6,11.97,6.87,-27.26,89.26,22.5,75.02,8.3,-25.07,89.15,-0.1,11.094545454545456
4.390625,-97.29,14.6,5.02,-30.0,86.74,28.2,79.19,-1.28,-36.45,87.56,-0.81,12.316363636363633
4.40625,-59.66,15.75,5.03,-33.07,85.28,32.64,81.51,-10.9,-47.19,86.56,-1.59,14.032727272727273
4.421875,-20.95,15.08,8.45,-36.88,84.64,36.55,82.55,-19.16,-56.06,86.63,-2.44,16.219090909090905
4.4375,13.86,12.58,15.8,-41.64,84.65,40.24,82.96,-24.49,-61.98,87.73,-3.24,18.770000000000003
4.453125,41.38,8.44,26.06,-47.15,85.27,43.72,83.29,-25.52,-64.37,89.44,-3.8,21.523636363636363
4.46875,60.36,3.02,36.9,-52.69,86.54,46.91,83.87,-21.52,-63.33,91.16,-4.03,24.290000000000006
4.484375,71.49,-3.06,45.57,-57.11,88.25,49.73,84.71,-12.73,-59.61,92.33,-3.95,26.87454545454545
4.5,76.51,-9.17,50.01,-59.16,89.79,52.18,85.57,-0.25,-54.28,92.48,-3.73,29.086363636363636
4.515625,77.36,-14.64,49.56,-57.83,90.17,54.28,86.13,14.2,-48.41,91.25,-3.59,30.770909090909086
4.53125,75.6,-18.91,45.06,-52.7,88.47,56.0,86.21,28.85,-42.82,88.33,-3.65,31.85818181818182
4.546875,72.24,-21.75,38.24,-44.05,84.22,57.29,85.79,42.37,-37.96,83.57,-3.85,32.37363636363636
4.5625,67.85,-23.3,30.88,-32.8,77.67,58.13,84.96,54.02,-33.91,76.96,-4.06,32.4
4.578125,62.94,-24.01,24.26,-20.18,69.73,58.52,83.83,63.55,-30.48,68.72,-4.09,32.07181818181818
4.59375,58.06,-24.55,19.01,-7.45,61.51,58.5,82.34,70.97,-27.36,59.21,-3.88,31.487272727272725
4.609375,53.89,-25.63,15.28,4.28,53.91,58.15,80.24,76.23,-24.26,48.85,-3.45,30.680909090909093
4.625,51.09,-27.76,13.01,14.2,47.26,57.53,77.16,79.26,-21.01,37.97,-2.89,29.620000000000005
4.640625,50.1,-31.17,12.09,21.81,41.48,56.75,72.82,80.09,-17.64,26.74,-2.23,28.258181818181814
4.65625,51.01,-35.51,12.35,26.92,36.19,55.87,67.2,78.98,-14.28,15.26,-1.44,26.595454545454547
4.671875,53.58,-39.81,13.47,29.68,31.06,54.97,60.56,76.47,-11.04,3.62,-0.43,24.73909090909091
4.6875,57.36,-42.59,15.02,30.48,25.89,53.95,53.46,73.23,-7.97,-7.99,0.86,22.88181818181818
4.703125,61.85,-42.14,16.52,29.89,20.54,52.58,46.45,69.89,-4.95,-19.28,2.4,21.250000000000004
4.71875,66.68,-37.1,17.5,28.5,14.86,50.54,39.94,66.77,-1.82,-29.93,4.06,20.000000000000004
4.734375,71.53,-26.96,17.55,26.8,8.68,47.63,33.99,63.9,1.51,-39.8,5.62,19.13181818181818
4.75,76.04,-12.29,16.32,25.09,1.88,43.94,28.31,61.09,5.08,-48.97,6.89,18.48909090909091
4.765625,79.75,5.38,13.59,23.51,-5.45,39.92,22.45,58.06,8.75,-57.84,7.71,17.80272727272727
4.78125,82.0,23.98,9.31,22.11,-12.94,36.28,15.98,54.63,12.39,-67.1,8.07,16.791818181818183
4.796875,82.2,41.45,3.57,20.91,-20.11,33.69,8.76,50.71,15.81,-77.61,8.09,15.224545454545455
4.8125,80.02,56.16,-3.43,19.96,-26.57,32.47,0.95,46.33,18.92,-90.19,7.98,12.963636363636363
4.828125,75.62,67.11,-11.44,19.35,-32.28,32.42,-7.04,41.5,21.61,-105.34,7.99,9.954545454545455
4.84375,69.67,73.85,-20.12,19.22,-37.59,32.92,-14.7,36.23,23.82,-122.76,8.25,6.253636363636359
4.859375,63.12,76.42,-28.85,19.69,-43.23,33.24,-21.74,30.54,25.42,-140.95,8.73,2.035454545454548
4.875,56.83,75.3,-36.6,20.86,-50.02,32.85,-28.14,24.41,26.28,-157.06,9.22,-2.370000000000002
4.890625,51.29,71.28,-42.01,22.67,-58.65,31.66,-34.29,17.76,26.29,-167.32,9.44,-6.534545454545454
4.90625,46.47,65.48,-43.77,24.92,-69.39,29.88,-40.84,10.48,25.44,-168.05,9.22,-10.014545454545457
4.921875,41.95,59.15,-41.13,27.32,-81.79,27.9,-48.55,2.35,23.86,-156.95,8.58,-12.48272727272727
4.9375,37.22,53.43,-34.33,29.5,-94.54,25.96,-58.0,-6.86,21.81,-134.17,7.73,-13.840909090909092
4.953125,31.97,49.18,-24.56,31.2,-105.48,24.05,-69.28,-17.34,19.64,-102.47,6.97,-14.192727272727273
4.96875,26.21,46.84,-13.57,32.25,-111.96,22.0,-81.71,-28.98,17.64,-66.44,6.5,-13.747272727272724
4.984375,20.31,46.55,-3.02,32.63,-111.54,19.61,-93.79,-41.25,15.88,-31.05,6.39,-12.661818181818187
5.0,14.73,48.28,5.98,32.39,-102.75,16.81,-103.41,-53.06,14.2,-0.13,6.55,-10.946363636363634
5.015625,9.82,52.08,13.0,31.6,-85.67,13.7,-108.3,-62.86,12.3,24.55,6.79,-8.453636363636363
5.03125,5.58,58.16,18.17,30.34,-62.02,10.46,-106.66,-68.98,9.92,43.13,6.96,-4.994545454545453
5.046875,1.74,66.82,21.8,28.7,-34.7,7.26,-97.69,-70.01,7.08,56.91,6.96,-0.4663636363636367
5.0625,-2.11,78.17,24.19,26.78,-6.95,4.16,-81.91,-65.28,4.05,67.29,6.73,5.0109090909090925
5.078125,-6.23,91.71,25.61,24.7,18.5,1.22,-61.03,-55.02,1.25,75.13,6.28,11.10181818181818
5.09375,-10.61,106.09,26.24,22.58,39.99,-1.5,-37.43,-40.35,-1.07,80.63,5.64,17.291818181818183
5.109375,-14.97,119.26,26.21,20.46,56.98,-3.89,-13.58,-22.92,-2.95,83.78,4.88,23.023636363636367
5.125,-19.05,129.09,25.54,18.36,69.71,-5.92,8.54,-4.47,-4.7,84.82,4.12,27.821818181818177
5.140625,-22.83,134.0,24.07,16.24,78.75,-7.71,27.72,13.55,-6.72,84.46,3.41,31.35818181818182
5.15625,-26.71,133.59,21.5,14.08,84.64,-9.57,43.52,30.17,-9.19,83.74,2.78,33.50454545454545
5.171875,-31.36,128.71,17.57,11.92,87.79,-11.84,55.98,44.9,-11.96,83.64,2.17,34.32
5.1875,-37.36,120.99,12.21,9.85,88.55,-14.78,65.37,57.55,-14.64,84.66,1.45,33.986363636363635
5.203125,-44.93,112.12,5.73,8.02,87.3,-18.37,72.0,68.1,-16.89,86.7,0.53,32.75545454545454
5.21875,-53.68,103.25,-1.24,6.51,84.55,-22.26,76.16,76.51,-18.65,89.18,-0.61,30.883636363636366
5.234375,-62.79,94.84,-7.73,5.34,80.86,-26.05,78.22,82.77,-20.18,91.37,-1.88,28.615454545454543
5.25,-71.36,86.92,-12.6,4.39,76.72,-29.42,78.73,86.86,-22.0,92.77,-3.12,26.171818181818182
5.265625,-78.79,79.45,-14.84,3.45,72.55,-32.27,78.38,88.9,-24.63,93.21,-4.15,23.75090909090909
5.28125,-85.01,72.56,-13.84,2.29,68.63,-34.8,77.91,89.08,-28.38,92.79,-4.86,21.48818181818182
5.296875,-90.53,66.41,-9.75,0.78,65.18,-37.32,77.85,87.8,-33.19,91.5,-5.2,19.41181818181818
5.3125,-96.29,61.05,-3.6,-1.07,62.4,-40.24,78.38,85.51,-38.68,89.12,-5.18,17.4
5.328125,-103.54,56.48,2.89,-3.08,60.47,-43.96,79.3,82.71,-44.17,85.11,-4.86,15.213636363636361
5.34375,-113.42,52.83,7.91,-5.02,59.55,-48.77,80.23,79.79,-48.8,78.93,-4.29,12.630909090909093
5.359375,-126.63,50.6,10.29,-6.7,59.59,-54.68,80.78,76.94,-51.67,70.39,-3.53,9.58
5.375,-142.75,50.44,9.97,-8.1,60.36,-61.17,80.76,74.16,-51.97,59.89,-2.62,6.270000000000001
5.390625,-159.73,52.39,7.95,-9.36,61.37,-67.09,80.21,71.27,-49.31,48.36,-1.61,3.1318181818181823
5.40625,-173.91,55.23,5.68,-10.78,62.03,-70.83,79.24,68.01,-43.77,36.88,-0.52,0.6599999999999988
5.421875,-180.69,56.24,4.26,-12.63,61.76,-70.83,77.91,64.14,-36.05,26.19,0.62,-0.8254545454545429
5.4375,-176.01,52.0,3.76,-15.04,60.15,-66.15,76.02,59.43,-27.32,16.37,1.74,-1.3681818181818184
5.453125,-157.86,39.66,3.26,-17.92,57.01,-56.98,73.23,53.75,-18.86,6.91,2.81,-1.3627272727272735
5.46875,-127.32,18.3,1.38,-21.01,52.43,-44.55,69.16,47.07,-11.75,-2.92,3.79,-1.4018181818181839
5.484375,-88.37,-10.61,-2.95,-24.02,46.59,-30.77,63.66,39.5,-6.51,-13.6,4.68,-2.036363636363636
5.5,-46.71,-43.77,-10.01,-26.74,39.86,-17.48,56.96,31.36,-3.08,-24.98,5.5,-3.553636363636365
5.515625,-7.86,-77.36,-19.18,-29.13,32.64,-6.0,49.63,23.1,-0.86,-36.36,6.25,-5.920909090909091
5.53125,24.31,-108.33,-29.33,-31.33,25.36,3.07,42.43,15.22,0.96,-46.81,6.9,-8.868181818181819
5.546875,48.27,-134.95,-39.23,-33.58,18.47,9.75,35.97,7.97,3.13,-55.77,7.38,-12.053636363636365
5.5625,64.41,-156.63,-47.85,-36.18,12.3,14.37,30.51,1.31,6.09,-63.29,7.64,-15.210909090909091
5.578125,74.17,-173.41,-54.45,-39.41,6.97,17.36,25.82,-5.22,9.86,-70.14,7.66,-18.253636363636364
5.59375,79.17,-185.45,-58.41,-43.45,2.38,19.19,21.31,-12.34,14.1,-77.59,7.49,-21.236363636363635
5.609375,80.72,-193.05,-59.24,-48.27,-1.83,20.27,16.28,-20.7,18.28,-86.98,7.25,-24.29727272727273
5.625,79.89,-196.8,-56.61,-53.49,-6.07,21.08,10.23,-30.56,21.91,-99.3,7.01,-27.519090909090906
5.640625,77.69,-197.76,-50.52,-58.33,-10.74,21.96,3.01,-41.53,24.7,-114.74,6.84,-30.85636363636364
5.65625,75.13,-197.21,-41.42,-61.65,-15.99,23.03,-5.06,-52.45,26.63,-132.26,6.75,-34.04545454545455
5.671875,73.01,-196.27,-30.23,-62.26,-21.74,24.2,-13.34,-61.66,27.91,-149.46,6.68,-36.65090909090908
5.6875,71.7,-195.39,-18.17,-59.29,-27.71,25.26,-21.12,-67.39,28.87,-162.76,6.59,-38.12818181818182
5.703125,71.06,-194.12,-6.42,-52.53,-33.57,25.97,-27.89,-68.25,29.79,-168.19,6.48,-37.97
5.71875,70.66,-191.22,4.12,-42.62,-39.05,26.28,-33.54,-63.65,30.81,-162.63,6.37,-35.86090909090909
5.734375,70.13,-185.17,13.03,-30.84,-44.1,26.35,-38.46,-54.02,31.95,-144.96,6.29,-31.8
5.75,69.46,-174.85,20.42,-18.74,-48.94,26.42,-43.41,-40.61,33.11,-116.73,6.23,-26.14909090909091
5.765625,69.08,-160.18,26.72,-7.62,-54.07,26.68,-49.39,-25.14,34.13,-81.93,6.17,-19.595454545454547
5.78125,69.63,-142.51,32.44,1.72,-60.2,27.17,-57.33,-9.26,34.85,-45.65,6.05,-13.008181818181818
5.796875,71.64,-124.33,37.85,9.06,-67.99,27.72,-67.66,5.83,35.11,-12.6,5.82,-7.231818181818181
5.8125,75.21,-108.59,42.85,14.58,-77.68,28.03,-79.98,19.59,34.88,14.3,5.49,-2.847272727272727
5.828125,79.85,-97.56,46.95,18.53,-88.76,27.79,-92.88,31.96,34.19,34.29,5.05,-0.05363636363636435
5.84375,84.69,-92.1,49.6,21.13,-99.77,26.87,-103.97,43.06,33.17,48.32,4.57,1.4154545454545462
5.859375,88.65,-91.33,50.44,22.47,-108.44,25.31,-110.46,52.87,31.96,57.96,4.07,2.136363636363637
5.875,90.79,-93.1,49.56,22.68,-112.22,23.4,-110.0,61.07,30.6,64.51,3.58,2.806363636363639
5.890625,90.51,-94.87,47.53,22.02,-109.07,21.46,-101.38,67.27,29.02,68.59,3.05,4.011818181818183
5.90625,87.69,-94.69,45.16,20.85,-98.12,19.78,-85.06,71.12,27.11,70.31,2.48,6.057272727272727
5.921875,82.71,-91.72,43.28,19.56,-80.02,18.45,-63.05,72.66,24.75,69.84,1.84,8.936363636363637
5.9375,76.29,-86.17,42.43,18.43,-56.83,17.4,-38.21,72.31,22.0,67.82,1.13,12.418181818181818
5.953125,69.35,-79.02,42.71,17.54,-31.35,16.44,-13.49,70.71,19.04,65.37,0.41,16.155454545454543
5.96875,62.74,-71.46,43.8,16.84,-6.44,15.45,8.88,68.55,16.12,63.79,-0.27,19.818181818181817
5.984375,57.01,-64.55,45.04,16.27,15.67,14.37,27.67,66.24,13.38,63.99,-0.85,23.112727272727273
6.0,52.28,-59.01,45.73,15.91,33.71,13.23,42.57,63.91,10.88,66.18,-1.38,25.819090909090907
6.015625,48.22,-55.06,45.36,15.97,47.35,12.12,53.79,61.51,8.47,69.8,-1.89,27.785454545454545
6.03125,44.22,-52.41,43.75,16.71,56.97,11.08,61.76,58.93,6.04,73.81,-2.49,28.94272727272727
6.046875,39.71,-50.18,41.07,18.3,63.34,10.13,66.92,56.18,3.49,77.13,-3.21,29.35272727272728
6.0625,34.4,-47.15,37.73,20.66,67.33,9.23,69.71,53.35,0.81,78.96,-4.04,29.180909090909086
6.078125,28.43,-41.97,34.14,23.48,69.73,8.4,70.71,50.53,-1.95,78.98,-4.85,28.69363636363636
6.09375,22.4,-33.58,30.52,26.33,71.13,7.64,70.58,47.69,-4.72,77.23,-5.46,28.16
6.109375,17.01,-21.57,26.85,28.76,71.87,6.87,69.99,44.66,-7.51,73.91,-5.68,27.741818181818186
6.125,12.85,-6.36,22.89,30.45,72.11,5.95,69.47,41.12,-10.36,69.27,-5.4,27.453636363636363
6.140625,9.94,10.83,18.4,31.23,71.88,4.67,69.28,36.8,-13.39,63.42,-4.62,27.13090909090909
6.15625,7.77,28.21,13.25,31.09,71.2,2.82,69.38,31.53,-16.66,56.43,-3.46,26.505454545454544
6.171875,5.42,43.86,7.53,30.17,70.09,0.31,69.59,25.36,-20.21,48.32,-2.14,25.300000000000008
6.1875,2.07,56.16,1.44,28.67,68.67,-2.68,69.66,18.54,-24.0,39.19,-0.87,23.35
6.203125,-2.66,64.1,-4.76,26.87,67.05,-5.91,69.41,11.41,-28.0,29.15,0.22,20.625454545454545
6.21875,-8.51,67.52,-10.87,25.01,65.37,-9.1,68.79,4.34,-32.23,18.42,1.15,17.262727272727275
6.234375,-14.73,66.97,-16.83,23.24,63.74,-12.07,67.81,-2.4,-36.7,7.27,1.99,13.48090909090909
6.25,-20.58,63.5,-22.67,21.62,62.28,-14.88,66.52,-8.65,-41.36,-3.97,2.89,9.518181818181818
6.265625,-25.71,58.26,-28.53,20.04,61.04,-17.65,64.82,-14.39,-45.86,-14.9,3.85,5.542727272727273
6.28125,-30.38,52.17,-34.66,18.36,59.97,-20.48,62.52,-19.73,-49.53,-25.17,4.82,1.6263636363636371
6.296875,-35.35,45.77,-41.43,16.42,58.85,-23.34,59.36,-24.91,-51.37,-34.5,5.65,-2.259090909090908
6.3125,-41.45,39.15,-49.14,14.19,57.41,-26.07,55.13,-30.26,-50.43,-42.84,6.19,-6.192727272727274
6.328125,-49.14,32.24,-57.85,11.75,55.31,-28.44,49.81,-36.17,-46.18,-50.36,6.4,-10.239090909090907
6.34375,-58.23,24.96,-67.05,9.3,52.32,-30.37,43.61,-43.05,-38.83,-57.53,6.34,-14.411818181818182
6.359375,-67.96,17.41,-75.47,7.06,48.34,-31.93,36.99,-51.14,-29.33,-65.08,6.12,-18.63545454545454
6.375,-77.32,9.93,-81.31,5.17,43.43,-33.4,30.46,-60.24,-19.16,-73.92,5.86,-22.772727272727266
6.390625,-85.46,2.84,-82.69,3.68,37.73,-35.17,24.4,-69.58,-9.72,-84.91,5.59,-26.662727272727274
6.40625,-92.07,-3.58,-78.35,2.53,31.49,-37.67,18.94,-77.82,-1.93,-98.53,5.29,-30.154545454545453
6.421875,-97.48,-9.26,-68.24,1.57,24.98,-41.2,13.85,-83.31,3.98,-114.37,4.95,-33.13909090909091
6.4375,-102.61,-14.37,-53.62,0.64,18.53,-45.8,8.72,-84.58,8.38,-130.79,4.61,-35.53545454545454
6.453125,-108.73,-19.15,-36.68,-0.37,12.41,-51.05,3.1,-80.79,11.86,-144.84,4.4,-37.25818181818182
6.46875,-117.12,-23.86,-19.79,-1.54,6.83,-56.06,-3.18,-72.0,14.96,-152.83,4.47,-38.192727272727275
6.484375,-128.65,-28.61,-4.73,-2.84,1.78,-59.54,-10.0,-59.12,17.88,-151.39,4.89,-38.21181818181818
6.5,-143.33,-33.41,7.68,-4.2,-2.97,-60.27,-16.88,-43.63,20.56,-138.8,5.55,-37.24545454545454
6.515625,-159.79,-38.23,17.57,-5.53,-7.76,-57.42,-23.29,-27.15,22.86,-115.74,6.2,-35.298181818181824
6.53125,-175.15,-43.13,25.62,-6.79,-12.94,-51.0,-28.86,-11.05,24.72,-85.3,6.58,-32.48181818181818
6.546875,-185.28,-48.28,32.56,-7.99,-18.69,-41.86,-33.67,3.72,26.22,-52.03,6.51,-28.980909090909087
6.5625,-185.89,-53.98,38.87,-9.26,-24.92,-31.48,-38.26,16.61,27.56,-20.45,6.04,-25.014545454545452
6.578125,-173.88,-60.56,44.68,-10.81,-31.31,-21.37,-43.51,27.38,28.9,6.23,5.36,-20.80818181818182
6.59375,-148.65,-68.32,49.87,-12.83,-37.46,-12.71,-50.35,35.96,30.3,26.71,4.67,-16.61909090909091
6.609375,-112.64,-77.39,54.17,-15.42,-43.03,-6.02,-59.33,42.34,31.72,41.39,4.08,-12.739090909090907
6.625,-70.76,-87.63,57.3,-18.48,-47.92,-1.25,-70.17,46.65,33.15,51.46,3.53,-9.465454545454543
6.640625,-28.9,-98.5,59.01,-21.73,-52.23,2.07,-81.6,49.1,34.61,58.07,2.89,-7.019090909090911
6.65625,7.83,-108.91,59.18,-24.79,-56.29,4.53,-91.52,50.08,36.18,61.86,2.08,-5.433636363636362
6.671875,36.4,-117.28,57.89,-27.36,-60.53,6.6,-97.4,50.04,37.91,62.99,1.17,-4.506363636363635
6.6875,56.23,-121.71,55.52,-29.37,-65.45,8.64,-97.06,49.48,39.67,61.65,0.36,-3.821818181818182
6.703125,68.57,-120.45,52.69,-31.0,-71.55,10.79,-89.41,48.8,41.19,58.4,-0.16,-2.9209090909090913
6.71875,75.45,-112.46,50.11,-32.63,-79.11,13.09,-74.82,48.24,42.1,54.35,-0.32,-1.4545454545454546
6.734375,78.83,-97.76,48.33,-34.74,-87.94,15.41,-55.12,47.77,42.13,50.92,-0.26,0.6881818181818187
6.75,80.18,-77.53,47.61,-37.72,-97.09,17.59,-33.0,47.15,41.21,49.27,-0.18,3.4081818181818195
6.765625,80.42,-53.88,47.77,-41.71,-104.81,19.47,-11.26,46.09,39.48,49.96,-0.29,6.476363636363636
6.78125,80.2,-29.25,48.4,-46.47,-108.83,21.0,7.93,44.36,37.2,52.62,-0.62,9.685454545454546
6.796875,80.0,-5.81,48.98,-51.35,-106.98,22.19,23.41,41.95,34.64,56.2,-1.06,12.924545454545454
6.8125,80.12,14.94,49.08,-55.27,-98.01,23.09,35.07,39.01,32.0,59.3,-1.42,16.173636363636362
6.828125,80.56,32.23,48.42,-57.04,-82.12,23.84,43.38,35.81,29.43,60.73,-1.56,19.425454545454542
6.84375,81.1,45.91,46.84,-55.61,-61.05,24.46,49.02,32.53,27.03,59.87,-1.5,22.6
6.859375,81.48,56.09,44.25,-50.48,-37.52,24.97,52.54,29.19,24.87,56.76,-1.33,25.529090909090915
6.875,81.6,62.95,40.52,-41.92,-14.44,25.34,54.28,25.63,22.87,51.91,-1.22,27.956363636363633
6.890625,81.63,66.6,35.64,-30.87,5.94,25.52,54.48,21.56,20.85,45.89,-1.21,29.63909090909091
6.90625,82.02,67.08,29.76,-18.65,22.36,25.49,53.44,16.8,18.57,39.07,-1.27,30.424545454545456
6.921875,83.21,64.64,23.26,-6.48,34.62,25.17,51.62,11.33,15.88,31.48,-1.26,30.315454545454546
6.9375,85.46,59.76,16.7,4.77,43.17,24.43,49.55,5.35,12.89,22.92,-1.08,29.44727272727273
6.953125,88.59,53.17,10.7,14.66,48.69,23.22,47.74,-0.77,9.89,13.21,-0.7,28.036363636363635
6.96875,92.09,45.71,5.72,23.06,51.89,21.45,46.45,-6.62,7.29,2.47,-0.16,26.30454545454546
6.984375,95.21,38.02,1.82,29.93,53.35,19.22,45.73,-11.88,5.32,-8.81,0.41,24.39272727272727
7.0,97.17,30.43,-1.34,35.22,53.58,16.71,45.38,-16.46,3.9,-19.82,0.96,22.33909090909091
7.015625,97.34,22.9,-4.43,38.89,53.0,14.23,45.1,-20.46,2.65,-29.65,1.45,20.092727272727274
7.03125,95.4,15.24,-8.18,41.03,51.97,12.09,44.59,-24.2,1.07,-37.59,1.9,17.574545454545454
7.046875,91.39,7.25,-13.17,41.87,50.72,10.53,43.61,-28.16,-1.17,-43.27,2.35,14.722727272727274
7.0625,85.67,-0.97,-19.61,41.78,49.4,9.63,42.03,-32.81,-4.12,-46.85,2.8,11.540909090909091
7.078125,78.9,-9.07,-27.33,41.23,48.13,9.32,39.83,-38.55,-7.56,-48.92,3.18,8.105454545454549
7.09375,71.85,-16.54,-35.76,40.69,47.03,9.4,37.07,-45.43,-11.1,-50.44,3.43,4.563636363636364
7.109375,65.2,-22.97,-43.99,40.61,46.21,9.67,33.79,-53.07,-14.49,-52.58,3.55,1.084545454545455
7.125,59.39,-28.16,-50.86,41.39,45.78,9.88,30.05,-60.54,-17.64,-56.57,3.55,-2.157272727272727
7.140625,54.46,-32.25,-55.04,43.17,45.75,9.89,25.76,-66.5,-20.72,-63.4,3.53,-5.03181818181818
7.15625,50.11,-35.6,-55.37,45.61,46.06,9.56,20.81,-69.52,-24.03,-73.41,3.59,-7.47181818181818
7.171875,45.83,-38.74,-51.1,47.67,46.56,8.91,15.13,-68.49,-27.87,-85.91,3.78,-9.475454545454545
7.1875,41.16,-42.27,-42.28,47.77,47.07,7.99,8.74,-63.0,-32.47,-98.78,4.07,-11.090909090909092
7.203125,35.86,-46.81,-29.86,44.37,47.38,6.99,1.93,-53.47,-37.89,-108.76,4.36,-12.354545454545452
7.21875,30.08,-52.95,-15.52,36.73,47.29,6.1,-4.88,-41.11,-43.85,-111.98,4.55,-13.230909090909092
7.234375,24.25,-61.09,-1.19,25.39,46.55,5.42,-11.23,-27.43,-49.74,-105.24,4.59,-13.610909090909091
7.25,18.99,-71.15,11.58,12.18,44.84,4.81,-16.81,-13.89,-54.61,-87.07,4.52,-13.328181818181816
7.265625,14.77,-82.32,22.0,-0.47,41.94,4.02,-21.54,-1.53,-57.44,-58.37,4.43,-12.228181818181817
7.28125,11.74,-92.99,30.13,-10.41,37.7,2.7,-25.66,9.13,-57.35,-22.27,4.41,-10.26090909090909
7.296875,9.6,-100.93,36.58,-16.49,32.26,0.63,-29.59,17.93,-53.95,16.82,4.45,-7.517272727272728
7.3125,7.67,-103.8,42.09,-18.65,25.99,-2.22,-33.85,24.91,-47.48,54.57,4.45,-4.210909090909091
7.328125,5.19,-99.9,47.07,-17.61,19.43,-5.71,-38.97,30.1,-38.75,87.92,4.28,-0.6318181818181822
7.34375,1.56,-88.6,51.51,-14.3,13.1,-9.55,-45.42,33.54,-28.95,115.52,3.87,2.934545454545454
7.359375,-3.33,-70.67,55.14,-9.49,7.37,-13.52,-53.49,35.35,-19.26,137.56,3.24,6.263636363636363
7.375,-9.08,-47.94,57.58,-3.7,2.36,-17.41,-63.05,35.8,-10.61,154.92,2.53,9.218181818181817
7.390625,-14.97,-22.79,58.72,2.55,-2.04,-21.09,-73.33,35.4,-3.48,168.43,1.88,11.752727272727272
7.40625,-20.29,2.43,58.75,8.63,-6.08,-24.48,-82.82,34.76,2.14,178.33,1.35,13.883636363636363
7.421875,-24.74,25.83,58.06,13.77,-10.03,-27.54,-89.51,34.43,6.61,184.34,0.91,15.648181818181818
7.4375,-28.53,46.2,57.08,17.35,-14.13,-30.29,-91.38,34.73,10.49,186.0,0.46,17.08909090909091
7.453125,-32.37,62.9,56.11,19.04,-18.5,-32.74,-87.04,35.54,14.29,183.17,-0.06,18.21272727272727
7.46875,-37.12,75.71,55.26,18.99,-23.12,-34.96,-76.33,36.44,18.3,176.38,-0.61,18.994545454545456
7.484375,-43.35,84.7,54.47,17.71,-27.85,-36.91,-60.42,36.84,22.55,166.87,-1.08,19.41181818181818
7.5,-51.07,90.14,53.69,15.81,-32.46,-38.55,-41.45,36.25,26.86,156.42,-1.34,19.48181818181818
7.515625,-59.7,92.4,52.95,13.76,-36.7,-39.81,-21.9,34.48,30.99,146.91,-1.41,19.27
7.53125,-68.27,91.94,52.37,11.72,-40.46,-40.7,-3.87,31.72,34.78,139.84,-1.39,18.88
7.546875,-75.89,89.22,52.03,9.45,-43.76,-41.45,11.38,28.41,38.12,135.98,-1.45,18.367272727272727
7.5625,-82.06,84.57,51.89,6.48,-46.84,-42.47,23.4,25.09,40.99,135.16,-1.72,17.68090909090909
7.578125,-86.92,78.28,51.7,2.3,-50.09,-44.27,32.32,22.1,43.34,136.41,-2.18,16.635454545454543
7.59375,-91.17,70.65,50.99,-3.3,-54.05,-47.24,38.52,19.45,45.05,138.28,-2.69,14.953636363636365
7.609375,-95.87,62.05,49.38,-10.06,-59.18,-51.41,42.31,16.82,45.99,139.3,-3.06,12.388181818181819
7.625,-102.2,53.02,46.62,-17.29,-65.82,-56.3,43.97,13.76,46.11,138.33,-3.15,8.822727272727276
7.640625,-111.17,44.16,42.84,-24.1,-73.86,-60.88,43.79,9.93,45.54,134.72,-2.92,4.3681818181818155
7.65625,-123.2,36.06,38.42,-29.76,-82.6,-63.78,42.22,5.31,44.48,128.37,-2.41,-0.6263636363636355
7.671875,-137.66,29.14,33.92,-33.95,-90.59,-63.64,39.89,0.19,43.18,119.57,-1.73,-5.607272727272728
7.6875,-152.44,23.54,29.79,-36.81,-95.9,-59.58,37.48,-4.96,41.78,108.89,-0.9,-9.919090909090913
7.703125,-164.02,19.06,26.26,-38.81,-96.56,-51.64,35.52,-9.69,40.3,97.07,0.06,-12.95
7.71875,-168.1,15.26,23.26,-40.45,-91.18,-40.73,34.22,-13.8,38.65,84.87,1.15,-14.259090909090906
7.734375,-161.0,11.6,20.5,-42.11,-79.56,-28.46,33.39,-17.3,36.75,72.98,2.34,-13.715454545454543
7.75,-141.11,7.54,17.66,-43.98,-62.82,-16.62,32.59,-20.4,34.62,61.86,3.5,-11.560000000000002
7.765625,-109.77,2.83,14.44,-46.18,-43.17,-6.58,31.4,-23.36,32.31,51.6,4.46,-8.365454545454547
7.78125,-71.17,-2.6,10.72,-48.77,-23.17,0.94,29.59,-26.42,29.92,42.02,5.11,-4.893636363636363
7.796875,-31.02,-8.61,6.55,-51.85,-5.05,5.97,27.27,-29.85,27.49,32.74,5.45,-1.9009090909090915
7.8125,5.24,-14.95,2.14,-55.41,9.82,9.03,24.84,-33.88,25.02,23.41,5.62,0.07999999999999984
7.828125,34.02,-21.54,-2.21,-59.28,21.0,10.8,22.69,-38.65,22.4,13.82,5.78,0.8027272727272732
7.84375,54.09,-28.49,-6.19,-63.08,28.71,12.01,20.97,-43.96,19.54,3.87,6.03,0.318181818181819
7.859375,66.29,-36.23,-9.63,-66.3,33.5,13.18,19.43,-49.15,16.34,-6.6,6.34,-1.1663636363636345
7.875,72.47,-45.4,-12.6,-68.49,35.84,14.69,17.46,-53.12,12.74,-17.9,6.58,-3.4299999999999984
7.890625,74.53,-56.52,-15.36,-69.48,36.08,16.74,14.33,-54.57,8.74,-30.51,6.61,-6.310000000000002
7.90625,73.95,-69.62,-18.42,-69.44,34.51,19.39,9.57,-52.52,4.34,-44.82,6.38,-9.69818181818182
7.921875,71.72,-83.74,-22.3,-68.9,31.55,22.48,3.19,-46.66,-0.32,-60.83,5.96,-13.44090909090909
7.9375,68.6,-96.95,-27.39,-68.45,27.8,25.73,-4.28,-37.53,-5.07,-77.81,5.51,-17.25818181818182
7.953125,65.3,-106.49,-33.69,-68.53,24.03,28.81,-11.92,-26.38,-9.73,-94.21,5.2,-20.69181818181818
7.96875,62.45,-109.57,-40.62,-69.09,20.95,31.35,-18.85,-14.71,-14.16,-107.9,5.07,-23.189090909090908
7.984375,60.52,-104.2,-46.99,-69.63,18.97,33.1,-24.51,-3.82,-18.34,-116.6,5.05,-24.222727272727273
8.0,59.69,-89.85,-51.25,-69.25,18.09,33.94,-28.9,5.49,-22.39,-118.46,5.03,-23.44181818181818
8.015625,59.85,-67.64,-51.89,-67.04,17.96,33.9,-32.59,12.93,-26.54,-112.64,4.92,-20.798181818181817
8.03125,60.75,-40.05,-47.98,-62.41,18.05,33.2,-36.46,18.58,-30.97,-99.56,4.72,-16.55727272727273
8.046875,62.13,-10.11,-39.58,-55.27,17.96,32.17,-41.44,22.64,-35.77,-80.84,4.5,-11.237272727272726
8.0625,63.91,19.32,-27.74,-46.1,17.57,31.17,-48.21,25.23,-40.78,-58.94,4.36,-5.4736363636363645
8.078125,66.14,46.14,-14.24,-35.64,17.1,30.46,-56.93,26.47,-45.61,-36.57,4.32,0.14909090909090914
8.09375,69.0,69.12,-0.95,-24.7,16.82,30.0,-67.05,26.54,-49.67,-15.99,4.33,5.222727272727273
8.109375,72.54,87.67,10.76,-13.86,16.91,29.58,-77.28,25.75,-52.29,1.3,4.28,9.578181818181818
8.125,76.55,101.67,20.27,-3.43,17.17,28.81,-85.74,24.62,-52.88,14.77,4.09,13.263636363636367
8.140625,80.45,111.19,27.69,6.43,17.15,27.38,-90.32,23.71,-51.04,24.58,3.71,16.448181818181823
8.15625,83.4,116.42,33.49,15.61,16.33,25.19,-89.27,23.44,-46.77,31.21,3.18,19.293636363636363
8.171875,84.59,117.79,38.11,23.87,14.36,22.41,-81.82,23.89,-40.44,35.19,2.59,21.86727272727273
8.1875,83.49,115.83,41.71,30.99,11.26,19.33,-68.5,24.76,-32.8,36.82,2.06,24.086363636363636
8.203125,80.11,111.2,44.27,36.83,7.44,16.21,-51.02,25.53,-24.78,36.37,1.67,25.80272727272727
8.21875,74.96,104.62,45.75,41.44,3.55,13.18,-31.77,25.68,-17.32,34.19,1.47,26.886363636363637
8.234375,68.91,96.83,46.25,45.01,0.2,10.32,-13.09,24.9,-11.06,30.8,1.42,27.317272727272726
8.25,62.76,88.52,46.04,47.79,-2.2,7.61,3.33,23.26,-6.22,26.96,1.41,27.205454545454543
8.265625,57.14,80.33,45.44,49.89,-3.67,5.12,16.67,21.13,-2.67,23.35,1.33,26.732727272727274
8.28125,52.23,72.8,44.75,51.27,-4.52,2.93,26.94,18.91,0.0,20.43,1.04,26.070909090909094
8.296875,47.88,66.24,44.1,51.84,-5.29,1.08,34.52,16.88,2.21,18.26,0.49,25.29181818181818
8.3125,43.72,60.79,43.52,51.6,-6.45,-0.44,39.89,14.98,4.22,16.58,-0.26,24.37727272727273
8.328125,39.34,56.38,43.03,50.78,-8.26,-1.78,43.35,12.92,6.1,14.99,-1.1,23.249999999999996
8.34375,34.48,52.86,42.68,49.76,-10.67,-3.09,45.12,10.34,7.7,13.14,-1.83,21.86272727272727
8.359375,29.19,50.06,42.62,48.93,-13.33,-4.47,45.39,7.06,8.8,10.85,-2.27,20.257272727272728
8.375,23.81,47.85,42.95,48.58,-15.75,-5.96,44.47,3.22,9.28,8.06,-2.31,18.563636363636363
8.390625,18.94,46.11,43.7,48.78,-17.51,-7.49,42.79,-0.85,9.18,4.77,-2.0,16.94727272727273
8.40625,15.05,44.66,44.67,49.45,-18.37,-8.93,40.88,-4.73,8.71,0.99,-1.45,15.539090909090909
8.421875,12.34,43.14,45.55,50.47,-18.41,-10.1,39.15,-8.14,8.21,-3.3,-0.81,14.372727272727273
8.4375,10.44,41.02,45.88,51.73,-17.98,-10.9,37.85,-11.08,7.97,-8.14,-0.23,13.32363636363636
8.453125,8.59,37.73,45.3,53.12,-17.69,-11.2,36.89,-13.71,8.21,-13.49,0.26,12.18272727272727
8.46875,5.89,32.84,43.63,54.5,-18.33,-11.05,35.96,-16.29,8.94,-19.36,0.7,10.67545454545455
8.484375,1.78,26.27,40.95,55.68,-20.93,-10.6,34.69,-18.99,10.07,-25.75,1.16,8.575454545454544
8.5,-3.68,18.27,37.52,56.4,-26.54,-10.15,32.84,-21.92,11.46,-32.73,1.67,5.740000000000002
8.515625,-9.82,9.39,33.77,56.45,-35.95,-10.02,30.41,-25.18,12.96,-40.29,2.22,2.1763636363636363
8.53125,-15.74,0.22,30.08,55.68,-49.37,-10.39,27.65,-28.9,14.48,-48.36,2.7,-1.9954545454545458
8.546875,-20.71,-8.7,26.65,54.1,-66.06,-11.25,24.88,-33.15,15.91,-56.75,3.03,-6.55
8.5625,-24.62,-17.15,23.47,51.77,-84.33,-12.43,22.24,-37.74,17.1,-65.14,3.21,-11.238181818181816
8.578125,-28.01,-25.16,20.36,48.88,-101.8,-13.74,19.61,-42.13,17.82,-73.23,3.3,-15.827272727272724
8.59375,-31.8,-32.98,17.1,45.62,-115.98,-15.12,16.57,-45.36,17.85,-80.87,3.42,-20.14090909090909
8.609375,-36.85,-41.04,13.55,42.19,-124.9,-16.64,12.63,-46.36,17.07,-88.05,3.66,-24.067272727272726
8.625,-43.52,-49.86,9.79,38.76,-127.51,-18.5,7.43,-44.3,15.57,-94.88,3.98,-27.549090909090907
8.640625,-51.5,-59.89,6.0,35.45,-123.65,-20.77,0.98,-39.0,13.64,-101.63,4.26,-30.55545454545455
8.65625,-59.99,-71.35,2.37,32.29,-113.76,-23.42,-6.33,-30.98,11.67,-108.64,4.36,-33.07090909090909
8.671875,-68.01,-83.94,-0.98,29.27,-98.58,-26.2,-13.85,-21.39,9.98,-116.36,4.24,-35.07454545454545
8.6875,-74.87,-96.41,-4.14,26.38,-78.88,-28.77,-20.88,-11.54,8.74,-125.25,3.94,-36.516363636363636
8.703125,-80.44,-106.67,-7.32,23.64,-55.61,-30.85,-26.93,-2.55,7.87,-135.45,3.62,-37.335454545454546
8.71875,-85.16,-112.07,-10.81,21.09,-30.0,-32.33,-31.9,4.88,7.13,-146.52,3.44,-37.47727272727272
8.734375,-89.86,-110.07,-14.86,18.79,-3.56,-33.31,-36.04,10.48,6.17,-157.07,3.5,-36.89363636363637
8.75,-95.6,-99.15,-19.66,16.81,22.27,-34.07,-39.97,14.25,4.78,-164.92,3.8,-35.587272727272726
8.765625,-103.36,-79.35,-25.24,15.12,46.75,-35.04,-44.43,16.31,2.91,-167.49,4.21,-33.60090909090909
8.78125,-113.79,-52.38,-31.43,13.66,70.22,-36.62,-50.11,16.82,0.7,-162.7,4.59,-31.003636363636364
8.796875,-126.7,-21.18,-37.69,12.36,94.16,-39.12,-57.49,16.01,-1.58,-149.74,4.8,-27.833636363636366
8.8125,-140.59,10.91,-43.07,11.13,120.48,-42.71,-66.53,14.31,-3.64,-129.56,4.79,-24.04363636363636
8.828125,-152.51,40.88,-46.39,9.89,150.59,-47.19,-76.56,12.3,-5.37,-104.58,4.59,-19.486363636363635
8.84375,-158.49,66.54,-46.59,8.56,184.49,-51.92,-86.14,10.59,-6.86,-77.99,4.27,-13.958181818181817
8.859375,-154.69,86.73,-43.12,7.03,220.28,-55.85,-93.3,9.59,-8.45,-52.73,3.91,-7.3272727272727245
8.875,-138.89,101.13,-36.28,5.23,254.62,-57.72,-96.01,9.41,-10.59,-30.76,3.57,0.33727272727272795
8.890625,-111.54,110.07,-27.17,3.19,283.65,-56.39,-92.81,9.77,-13.66,-12.79,3.27,8.689999999999996
8.90625,-76.02,114.32,-17.3,0.96,304.26,-51.32,-83.29,10.24,-17.86,1.49,3.0,17.134545454545457
8.921875,-37.55,114.88,-8.07,-1.33,314.92,-42.74,-68.3,10.39,-23.02,12.74,2.73,24.968181818181822
8.9375,-1.58,112.75,-0.33,-3.57,315.77,-31.72,-49.75,9.98,-28.59,21.58,2.42,31.54181818181818
8.953125,27.85,108.78,5.72,-5.7,308.08,-19.81,-29.94,9.05,-33.71,28.22,2.06,36.418181818181814
8.96875,49.03,103.56,10.44,-7.71,293.36,-8.66,-10.95,7.78,-37.38,32.58,1.6,39.42272727272727
8.984375,62.32,97.43,14.3,-9.63,272.77,0.46,5.77,6.42,-38.66,34.62,1.07,40.62454545454545
9.0,69.4,90.57,17.63,-11.52,246.98,6.95,19.56,5.1,-37.0,34.61,0.49,40.25181818181818
9.015625,72.18,83.18,20.46,-13.42,216.6,10.89,30.37,3.83,-32.37,33.28,-0.11,38.626363636363635
9.03125,72.22,75.59,22.63,-15.39,182.84,12.88,38.45,2.46,-25.36,31.61,-0.7,36.11181818181819
9.046875,70.49,68.27,23.93,-17.48,147.61,13.77,44.17,0.79,-16.96,30.56,-1.26,33.080909090909095
9.0625,67.66,61.75,24.27,-19.78,113.27,14.35,47.93,-1.38,-8.39,30.65,-1.79,29.867272727272724
9.078125,64.27,56.51,23.79,-22.27,81.78,15.19,50.09,-4.11,-0.6,31.81,-2.32,26.74
9.09375,60.88,52.81,22.76,-24.9,54.06,16.46,51.03,-7.3,5.84,33.42,-2.84,23.83818181818182
9.109375,57.97,50.67,21.54,-27.61,29.73,18.09,51.08,-10.75,10.91,34.59,-3.32,21.172727272727272
9.125,55.91,49.8,20.44,-30.38,7.58,19.86,50.52,-14.15,14.97,34.54,-3.65,18.676363636363632
9.140625,54.83,49.68,19.58,-33.36,-13.59,21.6,49.56,-17.29,18.48,32.85,-3.72,16.238181818181815
9.15625,54.7,49.64,18.99,-36.8,-34.3,23.29,48.37,-20.07,21.84,29.63,-3.41,13.807272727272727
9.171875,55.43,48.98,18.55,-40.91,-54.12,25.0,47.14,-22.61,25.17,25.29,-2.72,11.381818181818183
9.1875,56.95,47.25,18.2,-45.62,-72.09,26.83,46.01,-25.22,28.44,20.34,-1.73,9.032727272727273
9.203125,59.26,44.27,17.95,-50.41,-87.33,28.73,45.08,-28.26,31.46,15.11,-0.58,6.843636363636365
9.21875,62.37,40.2,17.83,-54.35,-99.56,30.46,44.32,-32.0,34.01,9.64,0.57,4.8627272727272715
9.234375,66.16,35.37,17.9,-56.31,-109.16,31.73,43.67,-36.55,35.94,3.69,1.61,3.0954545454545457
9.25,70.28,30.11,18.1,-55.38,-116.98,32.33,42.99,-41.65,37.17,-3.07,2.5,1.4909090909090907
9.265625,74.12,24.52,18.27,-51.23,-123.88,32.24,42.12,-46.7,37.71,-10.87,3.25,-0.040909090909090035
9.28125,76.98,18.48,18.18,-44.21,-130.39,31.62,40.87,-50.82,37.64,-19.75,3.91,-1.5899999999999979
9.296875,78.2,11.73,17.59,-35.24,-136.55,30.74,39.08,-53.02,37.17,-29.48,4.49,-3.2081818181818207
9.3125,77.42,4.06,16.41,-25.5,-142.09,29.75,36.52,-52.47,36.6,-39.58,5.02,-4.896363636363635
9.328125,74.64,-4.42,14.66,-16.03,-146.57,28.65,33.03,-48.79,36.23,-49.48,5.54,-6.594545454545453
9.34375,70.19,-13.33,12.49,-7.55,-149.69,27.29,28.58,-42.22,36.26,-58.71,6.09,-8.236363636363638
9.359375,64.62,-22.09,10.12,-0.38,-151.52,25.48,23.3,-33.54,36.69,-67.08,6.69,-9.791818181818183
9.375,58.57,-30.18,7.76,5.43,-152.51,23.16,17.54,-23.91,37.28,-74.69,7.26,-11.299090909090909
9.390625,52.61,-37.36,5.54,9.93,-153.43,20.46,11.68,-14.53,37.64,-81.98,7.69,-12.886363636363637
9.40625,47.18,-43.74,3.52,13.21,-155.25,17.67,6.01,-6.34,37.42,-89.6,7.82,-14.736363636363636
9.421875,42.46,-49.8,1.67,15.32,-158.76,15.07,0.59,0.12,36.45,-98.28,7.61,-17.049999999999997
9.4375,38.38,-56.21,-0.08,16.34,-164.33,12.87,-4.76,4.69,34.78,-108.65,7.12,-19.986363636363635
9.453125,34.58,-63.72,-1.83,16.39,-171.53,11.03,-10.32,7.47,32.63,-121.02,6.58,-23.612727272727273
9.46875,30.65,-72.8,-3.71,15.66,-179.1,9.44,-16.29,8.74,30.25,-135.11,6.18,-27.826363636363634
9.484375,26.25,-83.32,-5.82,14.34,-185.03,8.0,-22.61,8.87,27.83,-149.81,6.02,-32.298181818181824
9.5,21.36,-94.27,-8.28,12.67,-187.07,6.71,-29.04,8.24,25.43,-163.03,6.05,-36.47545454545454
9.515625,16.29,-103.64,-11.09,10.84,-183.3,5.67,-35.18,7.28,23.03,-171.98,6.06,-39.63818181818182
9.53125,11.67,-108.82,-14.16,9.07,-172.75,5.08,-40.76,6.4,20.7,-173.73,5.87,-41.0390909090909
9.546875,8.05,-107.28,-17.28,7.58,-155.73,4.94,-45.77,5.87,18.53,-166.17,5.42,-40.167272727272724
9.5625,5.69,-97.47,-20.16,6.61,-133.7,5.11,-50.57,5.75,16.7,-148.78,4.82,-36.90909090909091
9.578125,4.37,-79.36,-22.62,6.35,-108.85,5.34,-55.84,5.91,15.26,-123.09,4.26,-31.66090909090909
9.59375,3.44,-54.66,-24.62,6.89,-83.51,5.28,-62.4,6.05,14.13,-92.28,3.87,-25.25545454545455
9.609375,2.08,-26.23,-26.43,8.19,-59.63,4.73,-70.78,5.86,13.07,-60.33,3.65,-18.710909090909094
9.625,-0.39,2.78,-28.46,10.08,-38.45,3.71,-80.87,5.11,11.81,-30.78,3.47,-12.908181818181818
9.640625,-4.23,29.65,-31.22,12.23,-20.55,2.41,-91.59,3.78,10.18,-5.87,3.18,-8.366363636363637
9.65625,-9.2,52.67,-34.96,14.32,-5.97,1.12,-100.96,2.06,8.16,13.79,2.67,-5.118181818181817
9.671875,-14.75,71.01,-39.61,16.07,5.6,-0.01,-106.56,0.26,5.87,28.75,2.02,-2.8499999999999983
9.6875,-20.2,84.6,-44.62,17.28,14.67,-1.03,-106.29,-1.35,3.45,39.97,1.34,-1.1072727272727276
9.703125,-25.05,93.71,-49.06,17.87,21.85,-2.2,-99.04,-2.71,1.0,48.19,0.78,0.4854545454545457
9.71875,-29.12,98.79,-51.82,17.8,27.68,-3.83,-85.22,-3.99,-1.51,53.66,0.38,2.074545454545456
9.734375,-32.64,100.42,-51.94,17.09,32.6,-6.19,-66.49,-5.53,-4.1,56.43,0.11,3.614545454545455
9.75,-36.18,99.21,-48.85,15.75,36.83,-9.35,-45.27,-7.65,-6.75,56.78,-0.15,4.9427272727272715
9.765625,-40.42,95.84,-42.59,13.81,40.43,-13.09,-23.96,-10.47,-9.33,55.57,-0.5,5.935454545454546
9.78125,-45.94,90.99,-33.84,11.34,43.41,-17.05,-4.37,-13.79,-11.71,54.16,-0.94,6.569090909090908
9.796875,-52.97,85.26,-23.71,8.51,45.77,-20.79,12.49,-17.19,-13.83,53.92,-1.4,6.914545454545455
9.8125,-61.28,79.13,-13.47,5.51,47.56,-23.99,26.31,-20.26,-15.81,55.7,-1.74,7.06
9.828125,-70.23,72.99,-4.21,2.53,48.85,-26.57,37.2,-22.78,-18.0,59.4,-1.87,7.028181818181817
9.84375,-78.94,67.08,3.41,-0.34,49.73,-28.72,45.41,-24.84,-20.84,64.07,-1.75,6.751818181818181
9.859375,-86.53,61.58,9.23,-3.15,50.28,-30.92,51.25,-26.77,-24.62,68.25,-1.42,6.1072727272727265
9.875,-92.51,56.56,13.51,-6.05,50.62,-33.75,55.07,-28.98,-29.35,70.69,-0.98,4.9845454545454535
9.890625,-96.96,52.17,16.72,-9.18,50.86,-37.7,57.26,-31.76,-34.59,70.81,-0.49,3.3763636363636365
9.90625,-100.66,48.54,19.37,-12.54,51.06,-42.95,58.23,-35.26,-39.51,68.89,0.06,1.3845454545454554
9.921875,-105.01,45.84,21.8,-15.95,51.15,-49.16,58.36,-39.46,-43.11,65.71,0.7,-0.83
9.9375,-111.59,44.22,24.2,-19.09,50.88,-55.41,57.97,-44.16,-44.48,62.09,1.47,-3.081818181818181
9.953125,-121.57,43.53,26.5,-21.6,49.94,-60.33,57.37,-48.93,-43.1,58.36,2.34,-5.226363636363636
9.96875,-134.92,43.42,28.48,-23.24,48.1,-62.51,56.76,-53.03,-38.99,54.17,3.21,-7.1409090909090915
9.984375,-149.83,43.2,29.86,-23.92,45.33,-60.87,56.29,-55.49,-32.73,48.69,3.97,-8.681818181818182
10.0,-162.74,42.12,30.45,-23.68,41.84,-55.11,56.0,-55.29,-25.28,41.07,4.58,-9.64
10.015625,-169.1,39.61,30.26,-22.59,37.98,-45.83,55.79,-51.78,-17.69,31.0,5.04,-9.755454545454548
10.03125,-164.83,35.56,29.6,-20.68,34.04,-34.28,55.5,-44.98,-10.83,19.0,5.43,-8.77
10.046875,-147.78,30.37,28.98,-17.98,30.08,-22.13,54.94,-35.64,-5.15,6.2,5.78,-6.575454545454545
10.0625,-118.79,24.73,28.89,-14.57,25.98,-10.9,54.01,-25.07,-0.63,-6.01,6.09,-3.2972727272727282
10.078125,-81.54,19.41,29.63,-10.62,21.49,-1.6,52.72,-14.65,3.09,-16.63,6.27,0.6881818181818166
10.09375,-41.53,14.75,31.12,-6.4,16.49,5.35,51.13,-5.41,6.46,-25.39,6.27,4.803636363636363
10.109375,-4.26,10.61,32.98,-2.19,11.07,10.08,49.3,2.19,9.9,-32.78,6.11,8.455454545454543
10.125,26.25,6.42,34.67,1.8,5.51,13.01,47.16,8.14,13.51,-39.78,5.93,11.147272727272725
10.140625,48.25,1.52,35.71,5.42,0.14,14.73,44.57,12.66,17.16,-47.58,5.87,12.586363636363636
10.15625,62.11,-4.46,35.87,8.53,-4.84,15.72,41.3,15.94,20.48,-57.15,6.02,12.683636363636362
10.171875,69.47,-11.46,35.12,10.9,-9.47,16.36,37.22,18.09,23.15,-69.11,6.36,11.511818181818184
10.1875,72.31,-18.94,33.59,12.23,-13.98,16.88,32.31,19.22,24.96,-83.49,6.74,9.257272727272728
10.203125,72.32,-26.31,31.42,12.23,-18.71,17.4,26.77,19.54,25.98,-99.54,6.97,6.188181818181817
10.21875,70.74,-33.06,28.73,10.77,-23.9,18.0,20.97,19.41,26.55,-115.53,6.91,2.690000000000001
10.234375,68.48,-39.07,25.65,8.0,-29.58,18.75,15.3,19.17,27.02,-128.78,6.54,-0.7745454545454549
10.25,66.27,-44.58,22.41,4.42,-35.57,19.65,10.08,19.07,27.68,-136.12,5.96,-3.7027272727272735
10.265625,64.69,-50.05,19.26,0.82,-41.6,20.66,5.39,19.1,28.53,-134.7,5.3,-5.6909090909090905
10.28125,64.02,-55.99,16.46,-1.95,-47.41,21.62,1.08,19.09,29.4,-123.09,4.67,-6.554545454545456
10.296875,64.14,-62.86,14.13,-3.09,-52.88,22.43,-3.19,18.79,29.99,-101.94,4.14,-6.3945454545454545
10.3125,64.67,-70.92,12.14,-2.13,-58.04,23.05,-7.78,18.05,30.17,-73.93,3.68,-5.549090909090909
10.328125,65.13,-79.98,10.2,0.98,-63.15,23.66,-12.96,16.92,29.98,-43.03,3.24,-4.455454545454545
10.34375,65.23,-89.21,8.04,5.86,-68.61,24.51,-18.74,15.58,29.67,-13.18,2.78,-3.460909090909089
10.359375,65.05,-96.99,5.54,11.81,-74.97,25.85,-24.94,14.24,29.45,12.77,2.3,-2.717272727272727
10.375,64.99,-101.19,2.85,18.0,-82.77,27.67,-31.23,13.03,29.35,33.6,1.84,-2.1690909090909094
10.390625,65.58,-99.7,0.27,23.69,-92.32,29.69,-37.24,11.9,29.18,49.5,1.39,-1.6418181818181807
10.40625,67.2,-91.19,-1.93,28.37,-103.41,31.41,-42.75,10.68,28.62,61.34,0.9,-0.9781818181818166
10.421875,69.86,-75.6,-3.65,31.79,-114.98,32.27,-47.69,9.15,27.41,69.96,0.31,-0.10636363636363672
10.4375,73.21,-54.34,-5.07,33.94,-125.13,31.99,-52.25,7.11,25.58,75.74,-0.41,0.9427272727272702
10.453125,76.53,-29.83,-6.53,34.88,-131.43,30.56,-56.84,4.47,23.4,78.76,-1.24,2.066363636363637
10.46875,78.98,-4.83,-8.34,34.76,-131.64,28.35,-62.09,1.3,21.23,79.12,-2.01,3.1663636363636396
10.484375,79.84,18.32,-10.61,33.67,-124.36,25.84,-68.61,-2.23,19.34,77.36,-2.6,4.178181818181817
10.5,78.64,38.03,-13.24,31.72,-109.63,23.4,-76.86,-5.85,17.77,74.5,-2.9,5.052727272727274
10.515625,75.32,53.6,-15.99,28.98,-88.94,21.22,-86.71,-9.33,16.39,71.81,-2.95,5.763636363636365
10.53125,70.21,64.92,-18.64,25.59,-64.79,19.24,-97.24,-12.51,15.01,70.33,-2.86,6.296363636363634
10.546875,63.96,72.26,-21.17,21.73,-40.0,17.35,-106.61,-15.43,13.53,70.55,-2.72,6.677272727272728
10.5625,57.3,76.04,-23.74,17.69,-16.92,15.45,-112.52,-18.32,11.93,72.19,-2.53,6.96090909090909
10.578125,50.83,76.76,-26.67,13.89,2.98,13.65,-112.77,-21.56,10.31,74.41,-2.17,7.241818181818183
10.59375,44.9,74.99,-30.28,10.79,19.21,12.09,-106.11,-25.52,8.73,76.13,-1.51,7.583636363636361
10.609375,39.58,71.4,-34.69,8.77,32.03,10.95,-92.68,-30.35,7.15,76.48,-0.48,8.014545454545456
10.625,34.84,66.63,-39.72,8.0,42.08,10.28,-74.01,-35.82,5.49,75.07,0.86,8.518181818181816
10.640625,30.57,61.26,-44.75,8.4,50.06,9.91,-52.52,-41.23,3.67,72.06,2.32,9.068181818181818
10.65625,26.76,55.69,-48.81,9.69,56.49,9.56,-30.79,-45.57,1.67,67.91,3.68,9.661818181818182
10.671875,23.42,50.19,-50.79,11.49,61.63,8.92,-10.8,-47.82,-0.46,63.1,4.77,10.33181818181818
10.6875,20.47,44.86,-49.82,13.5,65.57,7.81,6.35,-47.2,-2.66,57.8,5.54,11.110909090909091
10.703125,17.75,39.79,-45.58,15.48,68.3,6.13,20.38,-43.52,-4.89,51.76,6.02,11.965454545454547
10.71875,15.05,35.15,-38.54,17.3,69.85,3.96,31.54,-37.15,-7.18,44.47,6.3,12.795454545454545
10.734375,12.23,31.24,-29.8,18.8,70.43,1.41,40.23,-28.89,-9.55,35.38,6.45,13.44818181818182
10.75,9.33,28.4,-20.76,19.8,70.28,-1.49,46.78,-19.73,-11.98,24.32,6.5,13.76818181818182
10.765625,6.54,26.81,-12.59,20.17,69.72,-4.77,51.46,-10.54,-14.39,11.6,6.46,13.679090909090911
10.78125,4.09,26.49,-5.97,19.91,68.93,-8.46,54.49,-1.95,-16.69,-1.92,6.28,13.200000000000001
10.796875,1.95,27.06,-0.95,19.16,68.0,-12.61,56.17,5.67,-18.82,-15.19,5.94,12.398181818181818
10.8125,-0.19,27.92,2.85,18.13,66.99,-17.1,56.85,12.08,-20.88,-27.26,5.42,11.346363636363636
10.828125,-2.84,28.42,5.9,16.99,65.97,-21.74,56.92,17.13,-23.11,-37.64,4.79,10.07181818181818
10.84375,-6.44,28.08,8.53,15.76,65.09,-26.21,56.79,20.71,-25.81,-46.49,4.15,8.56
10.859375,-11.09,26.68,10.86,14.28,64.5,-30.24,56.75,22.82,-29.22,-54.54,3.65,6.768181818181819
10.875,-16.41,24.28,12.87,12.39,64.19,-33.67,56.91,23.6,-33.36,-62.84,3.38,4.667272727272724
10.890625,-21.72,21.1,14.5,10.02,63.9,-36.5,57.24,23.4,-38.0,-72.47,3.36,2.2572727272727273
10.90625,-26.33,17.37,15.74,7.33,63.13,-38.85,57.54,22.69,-42.63,-84.27,3.49,-0.43545454545454426
10.921875,-29.92,13.2,16.61,4.6,61.32,-40.97,57.6,21.93,-46.55,-98.54,3.66,-3.3690909090909105
10.9375,-32.78,8.53,17.12,2.17,58.09,-43.15,57.26,21.46,-49.04,-114.83,3.75,-6.492727272727274
10.953125,-35.69,3.32,17.27,0.25,53.45,-45.74,56.49,21.37,-49.49,-131.75,3.71,-9.71
10.96875,-39.57,-2.48,17.03,-1.13,47.79,-49.17,55.31,21.51,-47.54,-146.88,3.55,-12.87090909090909
10.984375,-45.0,-8.75,16.46,-2.12,41.78,-53.82,53.79,21.61,-43.25,-157.12,3.31,-15.737272727272726
11.0,-51.93,-15.19,15.76,-2.95,36.07,-59.71,51.91,21.33,-37.14,-159.33,3.01,-18.015454545454546
11.015625,-59.68,-21.43,15.12,-3.82,31.03,-66.28,49.56,20.48,-30.14,-151.28,2.64,-19.436363636363637
11.03125,-67.24,-27.11,14.74,-4.87,26.62,-72.28,46.58,19.09,-23.32,-132.54,2.17,-19.832727272727272
11.046875,-73.78,-32.09,14.69,-6.15,22.5,-75.96,42.87,17.35,-17.56,-104.93,1.53,-19.23
11.0625,-78.94,-36.48,14.8,-7.66,18.2,-75.61,38.42,15.56,-13.25,-72.05,0.71,-17.845454545454544
11.078125,-83.02,-40.76,14.81,-9.39,13.43,-70.27,33.42,13.91,-10.25,-38.28,-0.28,-16.061818181818182
11.09375,-86.75,-45.54,14.4,-11.26,8.24,-60.08,28.16,12.41,-7.98,-7.46,-1.37,-14.29363636363636
11.109375,-91.07,-51.37,13.43,-13.24,2.98,-46.36,23.03,10.84,-5.81,18.15,-2.45,-12.897272727272725
11.125,-96.87,-58.46,11.89,-15.27,-1.92,-31.1,18.35,8.93,-3.35,38.06,-3.42,-12.105454545454545
11.140625,-104.86,-66.35,9.99,-17.27,-6.2,-16.37,14.27,6.43,-0.62,53.13,-4.22,-12.006363636363636
11.15625,-115.36,-73.86,8.0,-19.25,-9.94,-3.68,10.73,3.33,2.04,64.66,-4.87,-12.563636363636364
11.171875,-127.91,-79.22,6.16,-21.29,-13.52,6.25,7.47,-0.2,4.2,73.64,-5.5,-13.62909090909091
11.1875,-140.92,-80.51,4.58,-23.61,-17.47,13.36,4.16,-3.81,5.63,80.4,-6.2,-14.944545454545453
11.203125,-151.43,-76.19,3.28,-26.49,-22.15,18.07,0.46,-7.18,6.39,84.83,-6.99,-16.12727272727273
11.21875,-155.63,-65.66,2.16,-30.12,-27.61,20.88,-3.8,-10.11,6.81,86.85,-7.74,-16.724545454545453
11.234375,-149.89,-49.46,1.11,-34.4,-33.62,22.36,-8.64,-12.64,7.31,86.73,-8.19,-16.30272727272727
11.25,-132.24,-29.29,0.03,-38.83,-39.77,23.0,-13.92,-14.98,8.18,85.25,-8.09,-14.605454545454545
11.265625,-103.38,-7.44,-1.09,-42.54,-45.73,23.26,-19.43,-17.5,9.46,83.45,-7.35,-11.662727272727269
11.28125,-66.82,13.71,-2.16,-44.56,-51.36,23.52,-24.93,-20.61,10.98,82.28,-6.07,-7.8199999999999985
11.296875,-27.84,32.28,-3.05,-44.11,-56.77,24.06,-30.27,-24.6,12.52,82.27,-4.49,-3.6363636363636385
11.3125,8.14,47.14,-3.73,-40.89,-62.28,24.96,-35.36,-29.5,13.9,83.36,-2.9,0.25818181818181773
11.328125,37.15,57.89,-4.25,-35.19,-68.35,26.2,-40.23,-35.01,15.08,85.01,-1.45,3.350000000000001
11.34375,57.47,64.73,-4.82,-27.76,-75.53,27.62,-44.99,-40.35,16.11,86.45,-0.17,5.341818181818183
11.359375,69.47,68.11,-5.68,-19.52,-84.22,29.0,-49.9,-44.48,17.03,86.97,1.01,6.162727272727272
11.375,74.82,68.6,-6.96,-11.36,-94.47,30.11,-55.36,-46.33,17.78,86.08,2.14,5.913636363636362
11.390625,75.5,66.72,-8.63,-3.89,-105.61,30.81,-61.89,-45.15,18.16,83.61,3.22,4.804545454545456
11.40625,73.15,62.93,-10.51,2.51,-116.13,31.05,-69.92,-40.82,17.95,79.6,4.17,3.0890909090909107
11.421875,68.91,57.73,-12.38,7.66,-123.79,31.0,-79.42,-33.9,17.03,74.2,4.88,1.0836363636363615
11.4375,63.62,51.66,-14.14,11.54,-126.16,30.97,-89.65,-25.42,15.51,67.57,5.32,-0.8345454545454533
11.453125,57.97,45.28,-15.8,14.21,-121.34,31.28,-98.97,-16.53,13.74,59.81,5.55,-2.2545454545454553
11.46875,52.66,39.1,-17.49,15.87,-108.69,32.16,-105.25,-8.13,12.11,51.0,5.67,-2.8172727272727283
11.484375,48.3,33.5,-19.29,16.78,-89.08,33.46,-106.3,-0.68,10.91,41.23,5.77,-2.30909090909091
11.5,45.31,28.64,-21.2,17.22,-64.77,34.85,-100.79,5.75,10.18,30.61,5.9,-0.7545454545454554
11.515625,43.81,24.54,-23.2,17.38,-38.68,35.88,-88.61,11.21,9.72,19.3,6.02,1.5790909090909082
11.53125,43.69,21.13,-25.31,17.37,-13.67,36.18,-71.01,15.7,9.23,7.57,6.06,4.267272727272727
11.546875,44.66,18.41,-27.65,17.21,8.19,35.64,-50.24,19.09,8.5,-4.25,5.95,6.864545454545453
11.5625,46.48,16.45,-30.37,16.91,25.81,34.41,-28.79,21.24,7.48,-15.77,5.62,9.042727272727273
11.578125,49.07,15.33,-33.32,16.47,39.01,32.72,-8.81,22.19,6.29,-26.59,5.11,10.679090909090908
11.59375,52.44,15.01,-35.95,15.99,48.22,30.72,8.32,22.26,5.15,-36.47,4.53,11.838181818181818
11.609375,56.67,15.18,-37.31,15.61,54.14,28.41,22.1,21.97,4.19,-45.45,4.02,12.684545454545455
11.625,61.64,15.31,-36.36,15.5,57.54,25.74,32.65,21.82,3.45,-53.88,3.7,13.373636363636363
11.640625,66.87,14.79,-32.41,15.74,59.13,22.75,40.42,22.07,2.85,-62.43,3.59,13.942727272727273
11.65625,71.54,13.17,-25.56,16.41,59.52,19.57,45.93,22.64,2.21,-71.86,3.6,14.288181818181817
11.671875,74.69,10.43,-16.7,17.48,59.26,16.47,49.63,23.18,1.37,-82.89,3.56,14.225454545454546
11.6875,75.49,6.83,-7.19,18.88,58.73,13.64,51.88,23.3,0.2,-95.93,3.3,13.557272727272727
11.703125,73.59,2.86,1.58,20.46,58.21,11.05,53.02,22.7,-1.44,-110.81,2.74,12.178181818181821
11.71875,69.25,-1.11,8.72,22.03,57.87,8.44,53.39,21.39,-3.62,-126.53,1.92,10.15909090909091
11.734375,63.24,-5.04,14.0,23.35,57.8,5.46,53.39,19.57,-6.33,-141.13,0.97,7.752727272727273
11.75,56.61,-9.16,17.77,24.2,58.08,1.95,53.32,17.57,-9.44,-151.78,0.04,5.3781818181818215
11.765625,50.34,-13.88,20.59,24.44,58.77,-2.02,53.4,15.7,-12.77,-155.43,-0.77,3.4881818181818165
11.78125,45.06,-19.46,22.96,24.07,59.85,-6.05,53.61,14.12,-16.08,-149.61,-1.41,2.4599999999999973
11.796875,40.84,-25.82,25.09,23.21,61.17,-9.73,53.79,12.8,-19.27,-133.49,-1.9,2.426363636363634
11.8125,37.33,-32.54,26.91,22.07,62.48,-12.82,53.72,11.5,-22.38,-108.33,-2.3,3.2400000000000015
11.828125,33.87,-39.0,28.24,20.84,63.46,-15.37,53.26,9.85,-25.63,-77.36,-2.67,4.49909090909091
11.84375,29.85,-44.67,28.93,19.62,63.82,-17.72,52.44,7.54,-29.18,-44.79,-3.12,5.701818181818182
11.859375,25.02,-49.36,28.96,18.36,63.37,-20.28,51.43,4.44,-32.95,-14.54,-3.74,6.428181818181818
11.875,19.58,-53.17,28.44,16.95,61.98,-23.32,50.44,0.72,-36.51,10.92,-4.59,6.494545454545453
11.890625,14.15,-56.55,27.59,15.3,59.61,-26.82,49.5,-3.22,-39.1,30.88,-5.62,5.974545454545455
11.90625,9.49,-60.13,26.65,13.41,56.29,-30.54,48.42,-6.87,-39.94,46.06,-6.66,5.107272727272729
11.921875,6.11,-64.51,25.78,11.42,52.04,-34.09,46.82,-9.89,-38.47,57.7,-7.46,4.131818181818182
11.9375,4.04,-70.14,25.11,9.48,47.02,-37.11,44.24,-12.2,-34.69,66.77,-7.77,3.1590909090909105
11.953125,2.75,-76.96,24.64,7.7,41.48,-39.4,40.41,-14.08,-29.17,73.62,-7.4,2.1445454545454554
11.96875,1.35,-84.3,24.36,6.07,35.73,-40.94,35.4,-16.01,-22.79,78.1,-6.35,0.9654545454545448
11.984375,-0.96,-90.73,24.19,4.51,30.06,-41.96,29.58,-18.55,-16.54,80.07,-4.78,-0.4645454545454557
12.0,-4.59,-94.31,24.04,2.92,24.67,-42.88,23.59,-22.06,-11.1,79.86,-2.93,-2.071818181818182
12.015625,-9.34,-93.0,23.78,1.28,19.66,-44.3,18.08,-26.63,-6.83,78.31,-1.06,-3.6409090909090907
12.03125,-14.57,-85.42,23.24,-0.36,15.0,-46.85,13.46,-31.95,-3.69,76.59,0.64,-4.900909090909092
12.046875,-19.48,-71.32,22.28,-1.88,10.66,-50.95,9.76,-37.34,-1.37,75.73,2.08,-5.620909090909089
12.0625,-23.61,-51.8,20.81,-3.2,6.53,-56.63,6.65,-41.84,0.53,76.29,3.25,-5.729090909090909
12.078125,-27.03,-29.11,18.92,-4.34,2.52,-63.24,3.56,-44.36,2.33,78.22,4.23,-5.299999999999997
12.09375,-30.31,-5.89,16.82,-5.4,-1.55,-69.43,-0.08,-44.05,4.25,80.94,5.07,-4.511818181818181
12.109375,-34.27,15.46,14.79,-6.54,-5.88,-73.46,-4.61,-40.53,6.32,83.62,5.79,-3.5736363636363633
12.125,-39.49,33.33,13.02,-7.91,-10.62,-73.63,-10.08,-34.03,8.4,85.43,6.36,-2.6563636363636376
12.140625,-46.04,47.01,11.48,-9.58,-15.8,-68.92,-16.2,-25.41,10.34,85.76,6.72,-1.8763636363636351
12.15625,-53.45,56.57,9.92,-11.57,-21.29,-59.35,-22.46,-15.87,11.99,84.25,6.82,-1.3127272727272732
12.171875,-60.91,62.47,7.98,-13.78,-26.74,-46.08,-28.37,-6.59,13.33,80.87,6.71,-1.0099999999999993
12.1875,-67.67,65.34,5.42,-16.11,-31.8,-31.01,-33.56,1.58,14.42,75.77,6.49,-1.0118181818181822
12.203125,-73.35,65.78,2.23,-18.42,-36.23,-16.24,-37.95,8.21,15.44,69.24,6.3,-1.3627272727272732
12.21875,-78.09,64.34,-1.32,-20.61,-40.03,-3.47,-41.78,13.21,16.52,61.63,6.24,-2.1236363636363635
12.234375,-82.46,61.57,-4.84,-22.67,-43.5,6.4,-45.56,16.74,17.73,53.21,6.28,-3.3727272727272717
12.25,-87.26,57.98,-7.96,-24.65,-47.22,13.29,-49.93,18.99,19.0,44.1,6.29,-5.215454545454548
12.265625,-93.45,54.01,-10.56,-26.75,-51.9,17.72,-55.58,20.15,20.2,34.29,6.1,-7.797272727272728
12.28125,-101.9,49.94,-12.74,-29.23,-58.25,20.52,-62.95,20.42,21.23,23.64,5.58,-11.249090909090908
12.296875,-113.14,45.85,-14.8,-32.33,-66.69,22.46,-72.06,20.13,22.04,12.15,4.76,-15.602727272727272
12.3125,-126.89,41.7,-17.01,-36.12,-77.09,24.12,-82.24,19.66,22.67,0.06,3.81,-20.666363636363634
12.328125,-141.56,37.41,-19.51,-40.35,-88.46,25.79,-92.0,19.37,23.23,-12.09,2.99,-25.925454545454535
12.34375,-154.06,33.03,-22.25,-44.41,-98.96,27.53,-99.27,19.53,23.77,-23.62,2.54,-30.560909090909092
12.359375,-160.27,28.78,-25.05,-47.42,-106.11,29.26,-101.89,20.14,24.27,-33.99,2.58,-33.60909090909092
12.375,-156.26,25.1,-27.73,-48.5,-107.48,30.89,-98.3,20.96,24.6,-43.03,3.02,-34.24818181818182
12.390625,-139.81,22.4,-30.18,-47.04,-101.4,32.41,-88.1,21.63,24.63,-51.11,3.59,-32.08909090909091
12.40625,-111.49,20.9,-32.41,-42.93,-87.6,33.94,-72.24,21.83,24.23,-59.0,4.0,-27.34272727272727
12.421875,-74.85,20.5,-34.52,-36.58,-67.4,35.65,-52.79,21.46,23.48,-67.68,4.0,-20.793636363636367
12.4375,-35.27,20.66,-36.65,-28.75,-43.32,37.6,-32.2,20.64,22.53,-78.03,3.53,-13.56909090909091
12.453125,1.65,20.69,-38.97,-20.36,-18.37,39.74,-12.71,19.6,21.63,-90.59,2.73,-6.814545454545454
12.46875,31.88,19.91,-41.67,-12.17,4.79,41.82,4.23,18.54,20.92,-105.34,1.8,-1.3900000000000015
12.484375,53.64,17.93,-44.86,-4.75,24.33,43.58,18.0,17.48,20.41,-121.43,0.91,2.294545454545453
12.5,67.29,14.78,-48.38,1.54,39.43,44.88,28.64,16.26,19.9,-136.96,0.1,4.316363636363636
12.515625,74.4,10.83,-51.82,6.51,50.08,45.73,36.47,14.65,19.13,-149.06,-0.73,5.10818181818182
12.53125,76.79,6.61,-54.39,10.09,56.74,46.22,41.91,12.47,17.88,-154.42,-1.71,5.29
12.546875,75.92,2.57,-55.22,12.35,60.07,46.44,45.27,9.65,16.06,-150.2,-2.95,5.450909090909093
12.5625,72.84,-1.14,-53.65,13.52,60.77,46.3,46.93,6.29,13.82,-135.23,-4.35,6.0090909090909115
12.578125,68.41,-4.7,-49.57,13.97,59.6,45.58,47.29,2.59,11.41,-110.59,-5.7,7.117272727272725
12.59375,63.47,-8.52,-43.53,14.09,57.35,44.1,46.82,-1.22,9.08,-79.61,-6.78,8.65909090909091
12.609375,58.92,-13.01,-36.59,14.18,54.79,41.81,46.01,-4.88,7.0,-46.77,-7.45,10.364545454545452
12.625,55.35,-18.34,-29.86,14.31,52.56,38.95,45.3,-8.16,5.16,-16.31,-7.71,11.931818181818182
12.640625,53.06,-24.36,-24.17,14.4,51.09,36.02,44.98,-10.92,3.38,9.04,-7.66,13.16909090909091
12.65625,51.91,-30.61,-19.8,14.31,50.51,33.49,45.21,-13.16,1.4,28.5,-7.4,14.032727272727271
12.671875,51.61,-36.47,-16.64,13.98,50.67,31.7,45.93,-15.16,-1.02,42.79,-6.94,14.586363636363638
12.6875,51.92,-41.47,-14.38,13.48,51.28,30.63,46.9,-17.39,-3.96,53.19,-6.16,14.912727272727272
12.703125,52.78,-45.48,-12.79,12.99,52.09,29.96,47.78,-20.37,-7.33,60.71,-4.96,15.034545454545453
12.71875,54.39,-48.8,-11.82,12.75,53.0,29.28,48.2,-24.4,-10.91,65.64,-3.33,14.909090909090912
12.734375,56.99,-52.04,-11.47,12.91,54.03,28.17,47.96,-29.35,-14.45,67.97,-1.42,14.481818181818182
12.75,60.61,-55.96,-11.73,13.52,55.23,26.43,47.05,-34.58,-17.72,67.76,0.48,13.735454545454546
12.765625,64.96,-61.2,-12.42,14.54,56.47,24.04,45.67,-39.07,-20.63,65.69,2.11,12.741818181818182
12.78125,69.42,-67.97,-13.29,15.85,57.38,21.14,44.04,-41.71,-23.24,63.02,3.34,11.634545454545457
12.796875,73.14,-75.87,-14.08,17.34,57.42,17.96,42.26,-41.66,-25.67,61.19,4.19,10.565454545454545
12.8125,75.32,-83.71,-14.62,18.89,56.09,14.76,40.13,-38.54,-28.2,61.31,4.83,9.66
12.828125,75.44,-89.69,-14.81,20.39,53.13,11.74,37.28,-32.59,-31.08,63.66,5.41,8.989090909090908
12.84375,73.34,-91.77,-14.62,21.69,48.7,8.96,33.33,-24.52,-34.54,67.67,5.98,8.565454545454546
12.859375,69.34,-88.22,-14.05,22.65,43.28,6.31,28.17,-15.32,-38.65,72.13,6.48,8.374545454545457
12.875,64.04,-78.2,-13.1,23.04,37.49,3.53,22.14,-6.0,-43.21,75.7,6.78,8.382727272727273
12.890625,58.17,-62.1,-11.78,22.76,31.88,0.31,15.86,2.6,-47.7,77.39,6.83,8.565454545454545
12.90625,52.45,-41.51,-10.18,21.78,26.65,-3.58,10.09,9.92,-51.37,76.88,6.64,8.888181818181819
12.921875,47.35,-18.75,-8.37,20.27,21.77,-8.09,5.31,15.69,-53.37,74.44,6.36,9.328181818181818
12.9375,43.02,3.61,-6.44,18.47,17.01,-12.96,1.54,19.83,-53.05,70.71,6.12,9.805454545454545
12.953125,39.34,23.51,-4.39,16.66,12.16,-17.82,-1.69,22.4,-50.21,66.31,5.98,10.204545454545455
12.96875,35.95,39.68,-2.24,15.03,7.13,-22.28,-5.08,23.56,-45.21,61.45,5.9,10.353636363636362
12.984375,32.42,51.67,-0.01,13.64,2.02,-26.19,-9.24,23.6,-38.85,55.88,5.79,10.066363636363636
13.0,28.43,59.66,2.17,12.43,-2.98,-29.66,-14.4,22.92,-32.16,48.99,5.58,9.18
13.015625,23.87,64.18,4.17,11.31,-7.72,-32.98,-20.35,21.98,-25.98,40.23,5.29,7.636363636363638
13.03125,18.92,65.81,5.79,10.25,-12.14,-36.56,-26.49,21.25,-20.84,29.45,5.02,5.496363636363637
13.046875,13.94,65.15,6.98,9.27,-16.34,-40.9,-32.24,21.02,-16.8,17.11,4.88,2.915454545454546
13.0625,9.43,62.78,7.74,8.39,-20.57,-46.41,-37.22,21.35,-13.58,4.25,4.92,0.098181818181819
13.078125,5.75,59.23,8.27,7.56,-25.1,-53.36,-41.45,22.0,-10.78,-7.97,5.08,-2.7972727272727296
13.09375,3.03,55.05,8.81,6.69,-30.13,-61.55,-45.31,22.62,-8.07,-18.66,5.23,-5.662727272727272
13.109375,0.99,50.7,9.6,5.68,-35.71,-70.14,-49.37,22.85,-5.31,-27.55,5.24,-8.456363636363637
13.125,-0.94,46.38,10.72,4.52,-41.68,-77.62,-54.24,22.49,-2.53,-35.11,5.0,-11.182727272727272
13.140625,-3.42,42.16,12.13,3.3,-47.7,-82.06,-60.4,21.61,0.11,-42.32,4.54,-13.822727272727274
13.15625,-6.96,37.87,13.56,2.19,-53.44,-81.73,-68.15,20.46,2.43,-50.28,3.94,-16.373636363636365
13.171875,-11.65,33.39,14.64,1.34,-58.67,-75.73,-77.37,19.3,4.3,-59.96,3.29,-18.82909090909091
13.1875,-17.13,28.73,15.01,0.74,-63.43,-64.4,-87.32,18.26,5.72,-71.9,2.66,-21.187272727272727
13.203125,-22.72,24.2,14.47,0.27,-68.1,-49.26,-96.5,17.28,6.74,-86.05,2.04,-23.420909090909085
13.21875,-27.77,20.29,13.09,-0.29,-73.29,-32.5,-102.85,16.07,7.52,-101.65,1.37,-25.455454545454543
13.234375,-31.95,17.44,11.17,-1.09,-79.73,-16.3,-104.18,14.32,8.24,-117.08,0.57,-27.144545454545458
13.25,-35.39,15.89,9.14,-2.18,-87.99,-2.17,-98.97,11.87,9.03,-129.87,-0.4,-28.276363636363634
13.265625,-38.67,15.43,7.35,-3.49,-98.18,9.18,-86.98,8.79,9.95,-137.08,-1.52,-28.65636363636364
13.28125,-42.54,15.5,5.87,-4.9,-109.65,17.8,-69.49,5.4,10.98,-135.97,-2.68,-28.152727272727272
13.296875,-47.62,15.35,4.52,-6.32,-120.83,24.13,-48.84,2.14,12.0,-124.94,-3.74,-26.74090909090909
13.3125,-54.11,14.33,2.9,-7.74,-129.48,28.7,-27.8,-0.66,12.92,-104.29,-4.56,-24.526363636363637
13.328125,-61.78,12.1,0.62,-9.25,-133.0,31.94,-8.6,-2.9,13.68,-76.3,-5.12,-21.69181818181818
13.34375,-69.99,8.77,-2.6,-10.9,-129.31,34.17,7.45,-4.8,14.29,-44.69,-5.52,-18.466363636363635
13.359375,-77.98,4.78,-6.8,-12.71,-117.51,35.64,20.03,-6.72,14.81,-13.49,-5.93,-15.080000000000002
13.375,-85.12,0.7,-11.77,-14.64,-98.3,36.66,29.44,-9.1,15.22,14.13,-6.5,-11.752727272727272
13.390625,-91.11,-2.98,-17.07,-16.63,-73.88,37.5,36.17,-12.22,15.42,36.5,-7.3,-8.69090909090909
13.40625,-96.12,-6.05,-22.03,-18.64,-47.35,38.52,40.68,-16.22,15.34,53.41,-8.26,-6.065454545454546
13.421875,-100.83,-8.61,-25.88,-20.66,-21.81,39.97,43.29,-20.93,14.89,65.59,-9.18,-4.014545454545454
13.4375,-106.36,-11.05,-27.79,-22.72,0.45,41.92,44.35,-25.94,14.15,73.91,-9.82,-2.6272727272727256
13.453125,-114.04,-13.87,-27.2,-24.86,18.33,44.22,44.32,-30.55,13.3,78.91,-9.98,-1.947272727272731
13.46875,-124.97,-17.46,-23.95,-27.09,31.78,46.51,43.73,-33.9,12.56,80.85,-9.49,-1.9481818181818193
13.484375,-139.2,-21.94,-18.48,-29.44,41.5,48.39,43.12,-35.1,12.06,79.97,-8.34,-2.4963636363636366
13.5,-155.22,-27.15,-11.7,-32.0,48.42,49.53,42.83,-33.52,11.75,76.92,-6.62,-3.341818181818182
13.515625,-169.66,-32.73,-4.74,-34.91,53.37,49.82,42.93,-29.04,11.44,72.85,-4.52,-4.108181818181818
13.53125,-177.92,-38.19,1.4,-38.28,56.98,49.39,43.32,-22.15,10.9,69.19,-2.26,-4.329090909090906
13.546875,-175.54,-43.25,6.14,-42.03,59.71,48.47,43.75,-13.81,9.92,67.17,-0.08,-3.5954545454545452
13.5625,-159.89,-47.86,9.36,-45.73,61.84,47.23,43.99,-5.23,8.48,67.31,1.87,-1.693636363636365
13.578125,-131.3,-52.28,11.34,-48.67,63.53,45.65,44.01,2.55,6.69,69.22,3.5,1.294545454545453
13.59375,-93.27,-57.13,12.49,-49.97,64.86,43.61,43.84,8.86,4.8,71.81,4.81,4.973636363636365
13.609375,-51.36,-63.01,13.18,-48.91,65.83,40.98,43.6,13.46,2.99,73.69,5.8,8.750000000000002
13.625,-11.37,-70.22,13.62,-45.21,66.4,37.78,43.31,16.43,1.39,73.75,6.45,12.030000000000001
13.640625,22.34,-78.38,13.89,-39.12,66.57,34.22,42.8,17.99,-0.01,71.61,6.74,14.422727272727274
13.65625,47.68,-86.24,13.99,-31.4,66.4,30.67,41.71,18.36,-1.38,67.56,6.66,15.81909090909091
13.671875,64.69,-91.75,13.93,-23.0,66.04,27.45,39.67,17.79,-2.92,62.33,6.29,16.41090909090909
13.6875,74.65,-92.7,13.75,-14.78,65.71,24.75,36.39,16.58,-4.81,56.66,5.8,16.545454545454547
13.703125,79.22,-87.34,13.53,-7.38,65.6,22.53,31.87,15.11,-7.12,50.81,5.39,16.565454545454546
13.71875,79.9,-75.07,13.4,-1.13,65.8,20.52,26.45,13.77,-9.75,44.48,5.2,16.688181818181818
13.734375,77.93,-56.77,13.43,3.86,66.19,18.4,20.66,12.89,-12.52,36.97,5.26,16.936363636363634
13.75,74.47,-34.48,13.66,7.56,66.44,15.98,15.12,12.54,-15.19,27.51,5.49,17.19090909090909
13.765625,70.63,-10.81,14.07,10.05,66.06,13.28,10.24,12.65,-17.6,15.78,5.71,17.27818181818182
13.78125,67.36,11.79,14.54,11.44,64.56,10.53,6.14,12.95,-19.73,2.09,5.79,17.041818181818183
13.796875,65.21,31.48,14.88,12.0,61.64,8.05,2.55,13.18,-21.65,-12.6,5.66,16.400000000000002
13.8125,64.21,47.29,14.96,12.03,57.34,5.98,-1.05,13.16,-23.51,-27.07,5.37,15.337272727272731
13.828125,63.97,58.88,14.74,11.86,51.99,4.24,-5.21,12.79,-25.51,-40.2,5.02,13.870000000000003
13.84375,63.96,66.34,14.3,11.68,46.16,2.41,-10.28,12.03,-27.84,-51.47,4.71,12.0
13.859375,63.86,70.0,13.78,11.55,40.41,-0.04,-16.23,10.85,-30.65,-61.02,4.5,9.728181818181817
13.875,63.75,70.27,13.24,11.39,35.08,-3.54,-22.67,9.21,-34.01,-69.64,4.36,7.039999999999997
13.890625,64.03,67.7,12.6,11.11,30.21,-8.19,-28.97,7.11,-37.75,-78.48,4.23,3.9636363636363656
13.90625,65.25,62.96,11.63,10.7,25.58,-13.69,-34.59,4.59,-41.49,-88.74,4.04,0.5672727272727275
13.921875,67.72,56.76,10.05,10.32,20.86,-19.42,-39.3,1.74,-44.57,-101.35,3.74,-3.0409090909090906
13.9375,71.41,49.83,7.78,10.17,15.82,-24.8,-43.35,-1.29,-46.24,-116.77,3.34,-6.736363636363635
13.953125,75.82,42.84,5.0,10.48,10.49,-29.5,-47.39,-4.43,-45.87,-134.68,2.84,-10.4
13.96875,80.16,36.27,2.13,11.33,5.1,-33.62,-52.3,-7.61,-43.21,-153.7,2.26,-13.926363636363634
13.984375,83.54,30.49,-0.31,12.67,0.02,-37.63,-58.87,-10.8,-38.42,-171.33,1.63,-17.182727272727274
14.0,85.19,25.63,-2.02,14.38,-4.52,-42.17,-67.51,-14.0,-32.1,-184.19,0.98,-20.03
14.015625,84.71,21.65,-3.03,16.27,-8.56,-47.84,-77.91,-17.22,-25.11,-188.8,0.35,-22.31727272727273
14.03125,82.07,18.38,-3.71,18.19,-12.4,-54.94,-88.9,-20.58,-18.27,-182.54,-0.29,-23.90818181818182
14.046875,77.67,15.63,-4.56,19.98,-16.53,-63.24,-98.52,-24.25,-12.22,-164.72,-0.98,-24.703636363636363
14.0625,72.18,13.27,-5.92,21.46,-21.39,-71.88,-104.45,-28.43,-7.25,-136.93,-1.79,-24.64818181818182
14.078125,66.32,11.28,-7.84,22.46,-27.18,-79.37,-104.58,-33.13,-3.35,-102.8,-2.77,-23.723636363636363
14.09375,60.74,9.7,-10.02,22.84,-33.78,-83.98,-97.74,-38.03,-0.27,-66.83,-3.84,-21.92818181818182
14.109375,55.79,8.52,-12.02,22.55,-40.79,-84.18,-84.13,-42.35,2.35,-33.14,-4.87,-19.297272727272727
14.125,51.45,7.6,-13.53,21.68,-47.68,-79.18,-65.38,-45.02,4.78,-4.31,-5.67,-15.932727272727272
14.140625,47.42,6.68,-14.46,20.43,-53.99,-69.26,-43.99,-45.05,7.14,18.87,-6.12,-12.030000000000001
14.15625,43.22,5.37,-15.05,19.02,-59.51,-55.77,-22.62,-41.91,9.41,37.06,-6.27,-7.913636363636363
14.171875,38.48,3.35,-15.66,17.64,-64.45,-40.67,-3.31,-35.77,11.5,51.51,-6.28,-3.9690909090909106
14.1875,33.07,0.45,-16.61,16.35,-69.41,-26.0,12.81,-27.51,13.33,63.18,-6.38,-0.6109090909090905
14.203125,27.21,-3.28,-18.1,15.1,-75.29,-13.15,25.51,-18.38,14.93,72.37,-6.76,1.832727272727273
14.21875,21.37,-7.69,-20.08,13.86,-82.91,-2.7,35.08,-9.53,16.39,78.87,-7.38,3.2072727272727275
14.234375,16.13,-12.59,-22.43,12.58,-92.65,5.54,41.94,-1.8,17.86,82.39,-8.05,3.5381818181818185
14.25,11.89,-17.87,-24.94,11.27,-104.05,12.25,46.45,4.49,19.41,83.16,-8.51,3.0500000000000003
14.265625,8.75,-23.47,-27.37,9.99,-115.56,18.13,48.92,9.31,21.02,82.12,-8.52,2.119999999999999
14.28125,6.41,-29.3,-29.41,8.8,-124.83,23.7,49.77,12.79,22.57,80.73,-8.0,1.2027272727272738
14.296875,4.3,-35.27,-30.61,7.7,-129.18,29.15,49.55,15.0,23.93,80.44,-7.01,0.7272727272727265
14.3125,1.77,-41.15,-30.44,6.69,-126.46,34.41,48.9,16.04,25.03,82.07,-5.66,1.018181818181818
14.328125,-1.68,-46.77,-28.47,5.76,-115.7,39.31,48.4,16.06,25.9,85.5,-4.05,2.205454545454545
14.34375,-6.19,-52.14,-24.52,4.89,-97.57,43.61,48.36,15.35,26.64,89.76,-2.28,4.173636363636366
14.359375,-11.45,-57.55,-18.85,4.09,-74.13,47.19,48.78,14.3,27.3,93.5,-0.42,6.614545454545453
14.375,-16.84,-63.51,-12.13,3.36,-48.32,50.02,49.43,13.34,27.84,95.57,1.39,9.104545454545455
14.390625,-21.66,-70.49,-5.21,2.69,-23.1,52.24,50.0,12.72,28.13,95.47,2.97,11.250909090909092
14.40625,-25.47,-78.46,1.08,2.04,-0.76,54.04,50.29,12.51,27.96,93.36,4.18,12.797272727272729
14.421875,-28.28,-86.6,6.21,1.34,17.51,55.64,50.29,12.55,27.23,89.8,4.92,13.69181818181818
14.4375,-30.63,-93.33,10.0,0.52,31.54,57.12,50.15,12.59,25.95,85.3,5.23,14.039999999999997
14.453125,-33.39,-96.54,12.59,-0.43,41.89,58.43,49.93,12.42,24.29,80.0,5.23,14.038181818181814
14.46875,-37.42,-94.27,14.3,-1.48,49.41,59.47,49.58,11.9,22.49,73.6,5.09,13.879090909090907
14.484375,-43.21,-85.35,15.47,-2.53,54.83,60.1,48.8,11.0,20.76,65.55,4.91,13.666363636363638
14.5,-50.65,-69.88,16.33,-3.51,58.7,60.27,47.16,9.72,19.16,55.44,4.76,13.409090909090907
14.515625,-59.09,-49.19,17.03,-4.43,61.34,60.01,44.3,8.08,17.62,43.24,4.61,13.047272727272729
14.53125,-67.6,-25.55,17.58,-5.43,63.02,59.32,40.06,6.08,15.98,29.44,4.44,12.485454545454548
14.546875,-75.32,-1.58,18.0,-6.68,64.07,58.13,34.65,3.71,14.11,14.98,4.23,11.663636363636364
14.5625,-81.79,20.38,18.34,-8.32,64.84,56.31,28.6,0.98,11.98,0.87,4.04,10.566363636363638
14.578125,-87.15,38.69,18.67,-10.35,65.63,53.72,22.56,-2.05,9.69,-12.06,3.9,9.204545454545451
14.59375,-92.08,52.53,19.1,-12.64,66.54,50.38,17.13,-5.31,7.38,-23.52,3.85,7.578181818181818
14.609375,-97.73,61.84,19.68,-14.97,67.48,46.5,12.53,-8.67,5.2,-33.78,3.91,5.635454545454545
14.625,-105.43,67.07,20.39,-17.14,68.22,42.5,8.57,-12.0,3.25,-43.55,4.05,3.2663636363636344
14.640625,-116.2,68.93,21.09,-19.08,68.59,38.79,4.69,-15.21,1.45,-53.77,4.24,0.3200000000000008
14.65625,-130.21,68.23,21.61,-20.9,68.59,35.64,0.25,-18.37,-0.33,-65.4,4.4,-3.3172727272727283
14.671875,-146.19,65.66,21.85,-22.84,68.38,33.03,-5.17,-21.69,-2.25,-79.18,4.48,-7.629090909090909
14.6875,-161.17,61.81,21.84,-25.15,68.18,30.69,-11.53,-25.55,-4.43,-95.41,4.42,-12.390909090909089
14.703125,-170.89,57.11,21.7,-28.03,68.02,28.16,-18.38,-30.28,-6.83,-113.71,4.22,-17.173636363636362
14.71875,-170.95,51.91,21.63,-31.54,67.74,25.11,-25.03,-35.89,-9.36,-132.71,3.9,-21.38090909090909
14.734375,-158.29,46.5,21.74,-35.51,66.94,21.47,-30.88,-41.89,-11.89,-149.97,3.5,-24.389090909090907
14.75,-132.49,41.1,21.92,-39.51,65.19,17.45,-35.75,-47.24,-14.36,-162.16,3.05,-25.70909090909091
14.765625,-96.2,35.93,21.86,-42.87,62.2,13.46,-39.93,-50.69,-16.84,-165.88,2.54,-25.12909090909091
14.78125,-54.47,31.17,21.07,-44.79,57.95,9.82,-44.11,-51.1,-19.51,-158.6,1.92,-22.786363636363635
14.796875,-13.18,26.99,19.07,-44.53,52.69,6.68,-49.17,-47.98,-22.6,-139.78,1.15,-19.150909090909092
14.8125,22.65,23.45,15.64,-41.69,46.86,3.89,-55.87,-41.58,-26.31,-111.23,0.25,-14.903636363636364
14.828125,50.09,20.56,10.94,-36.35,40.95,1.11,-64.58,-32.81,-30.73,-76.76,-0.74,-10.756363636363636
14.84375,68.47,18.25,5.55,-29.14,35.45,-2.03,-75.11,-22.89,-35.68,-41.09,-1.69,-7.264545454545455
14.859375,78.91,16.34,0.29,-21.02,30.64,-5.8,-86.48,-12.96,-40.75,-8.31,-2.5,-4.694545454545454
14.875,83.26,14.65,-4.07,-13.06,26.58,-10.27,-96.96,-3.82,-45.24,19.1,-3.17,-2.9999999999999987
14.890625,83.33,12.99,-7.14,-6.08,23.05,-15.25,-104.28,4.08,-48.29,40.62,-3.7,-1.8790909090909103
14.90625,80.51,11.2,-9.02,-0.55,19.59,-20.35,-106.14,10.61,-49.07,57.12,-4.22,-0.9381818181818176
14.921875,75.8,9.19,-10.21,3.43,15.7,-25.11,-100.96,15.8,-47.07,69.96,-4.78,0.15909090909090853
14.9375,70.03,6.85,-11.28,6.0,11.04,-29.21,-88.42,19.75,-42.35,80.14,-5.39,1.559999999999999
14.953125,64.01,4.03,-12.61,7.41,5.68,-32.58,-69.81,22.59,-35.51,87.94,-5.96,3.1990909090909088
14.96875,58.54,0.58,-14.16,7.88,0.05,-35.52,-47.58,24.5,-27.59,93.11,-6.42,4.853636363636363
14.984375,54.27,-3.6,-15.58,7.6,-5.21,-38.64,-24.72,25.66,-19.74,95.44,-6.73,6.25
15.0,51.6,-8.55,-16.49,6.71,-9.64,-42.71,-3.81,26.21,-12.82,95.2,-6.98,7.156363636363636
15.015625,50.57,-14.21,-16.75,5.34,-13.24,-48.35,13.55,26.27,-7.24,93.33,-7.31,7.45090909090909
15.03125,51.04,-20.36,-16.56,3.6,-16.47,-55.82,26.96,25.94,-2.9,91.22,-7.86,7.162727272727273
15.046875,52.78,-26.77,-16.33,1.65,-20.06,-64.72,36.85,25.33,0.64,90.21,-8.6,6.452727272727273
15.0625,55.65,-33.22,-16.48,-0.35,-24.63,-74.03,43.98,24.6,3.85,91.0,-9.35,5.547272727272728
15.078125,59.65,-39.48,-17.21,-2.29,-30.32,-82.23,49.01,23.91,7.09,93.47,-9.79,4.71
15.09375,64.73,-45.44,-18.54,-4.09,-36.76,-87.61,52.28,23.32,10.45,96.65,-9.62,4.124545454545456
15.109375,70.69,-51.04,-20.31,-5.71,-43.3,-88.76,53.99,22.79,13.85,99.3,-8.68,3.892727272727272
15.125,76.96,-56.42,-22.35,-7.09,-49.29,-84.81,54.33,22.12,17.09,100.33,-7.03,3.985454545454546
15.140625,82.6,-61.95,-24.46,-8.18,-54.48,-75.83,53.75,21.09,19.96,99.25,-4.94,4.255454545454545
15.15625,86.55,-68.18,-26.35,-8.87,-59.0,-62.74,52.81,19.5,22.3,96.22,-2.72,4.50181818181818
15.171875,87.91,-75.62,-27.57,-9.08,-63.37,-47.16,52.06,17.31,24.03,91.82,-0.64,4.517272727272726
15.1875,86.31,-84.48,-27.53,-8.78,-68.24,-30.96,51.8,14.54,25.16,86.57,1.14,4.13909090909091
15.203125,82.02,-94.31,-25.72,-8.06,-74.29,-15.85,52.01,11.38,25.81,80.62,2.62,3.2936363636363635
15.21875,75.88,-103.74,-21.97,-7.09,-81.99,-3.09,52.43,7.95,26.18,73.7,3.85,2.01
15.234375,68.99,-110.64,-16.61,-6.05,-91.36,6.78,52.78,4.36,26.57,65.31,4.84,0.4518181818181814
15.25,62.27,-112.65,-10.35,-5.06,-101.72,13.86,52.9,0.64,27.23,55.07,5.58,-1.1118181818181827
15.265625,56.24,-107.88,-4.08,-4.08,-111.49,18.76,52.79,-3.2,28.34,43.0,6.01,-2.326363636363636
15.28125,50.86,-95.54,1.53,-2.94,-118.36,22.37,52.5,-7.14,29.88,29.58,6.1,-2.832727272727273
15.296875,45.76,-76.34,6.14,-1.41,-119.83,25.47,51.91,-11.19,31.67,15.63,5.9,-2.3900000000000006
15.3125,40.46,-52.22,9.74,0.66,-113.99,28.6,50.71,-15.46,33.36,1.98,5.53,-0.966363636363635
15.328125,34.72,-25.96,12.5,3.32,-100.32,31.82,48.5,-20.1,34.61,-10.75,5.16,1.2272727272727268
15.34375,28.65,-0.33,14.54,6.48,-79.91,34.86,44.99,-25.26,35.12,-22.3,4.9,3.794545454545455
15.359375,22.63,22.42,15.9,10.0,-55.26,37.29,40.22,-30.93,34.73,-32.87,4.83,6.269090909090909
15.375,17.19,40.93,16.56,13.73,-29.44,38.76,34.58,-36.69,33.45,-42.94,4.88,8.273636363636363
15.390625,12.64,54.78,16.57,17.55,-5.23,39.23,28.59,-41.75,31.42,-53.25,4.95,9.590909090909092
15.40625,9.01,64.21,16.08,21.31,15.49,38.97,22.72,-45.02,28.94,-64.59,4.94,10.187272727272726
15.421875,5.96,69.81,15.31,24.83,31.93,38.38,17.13,-45.52,26.35,-77.68,4.83,10.120909090909088
15.4375,2.9,72.29,14.48,27.87,44.12,37.87,11.72,-42.71,23.98,-92.94,4.66,9.476363636363637
15.453125,-0.73,72.29,13.68,30.24,52.56,37.68,6.19,-36.7,22.01,-110.22,4.51,8.31909090909091
15.46875,-5.28,70.29,12.96,31.79,57.89,37.82,0.31,-28.25,20.46,-128.52,4.44,6.7190909090909114
15.484375,-10.69,66.69,12.31,32.51,60.77,38.08,-6.0,-18.47,19.12,-145.73,4.42,4.819090909090909
15.5,-16.55,61.91,11.77,32.47,61.86,38.17,-12.61,-8.51,17.75,-158.88,4.39,2.8881818181818177
15.515625,-22.18,56.34,11.35,31.77,61.8,37.73,-19.29,0.78,16.08,-164.64,4.22,1.2690909090909097
15.53125,-27.06,50.49,11.06,30.51,61.24,36.52,-25.76,8.88,13.98,-160.3,3.84,0.3090909090909067
15.546875,-30.99,44.78,10.89,28.76,60.62,34.47,-31.84,15.57,11.44,-144.76,3.24,0.19818181818182057
15.5625,-34.35,39.49,10.77,26.57,60.2,31.76,-37.5,20.81,8.6,-119.12,2.49,0.883636363636364
15.578125,-37.94,34.74,10.67,24.04,60.0,28.75,-42.94,24.63,5.68,-86.57,1.71,2.0700000000000003
15.59375,-42.67,30.5,10.57,21.33,59.97,25.81,-48.58,27.15,2.99,-51.49,0.98,3.323636363636361
15.609375,-49.1,26.67,10.45,18.55,60.09,23.07,-55.02,28.53,0.73,-18.18,0.31,4.1909090909090905
15.625,-57.19,23.19,10.26,15.77,60.41,20.32,-62.88,29.04,-1.0,10.38,-0.35,4.3590909090909085
15.640625,-66.23,20.07,9.88,13.01,61.03,17.05,-72.42,28.95,-2.33,33.01,-1.04,3.725454545454545
15.65625,-75.19,17.28,9.15,10.2,62.0,12.8,-83.18,28.56,-3.61,50.15,-1.79,2.397272727272727
15.671875,-83.15,14.8,7.93,7.31,63.17,7.43,-93.81,28.06,-5.24,63.03,-2.55,0.6345454545454527
15.6875,-89.71,12.52,6.24,4.32,64.21,1.43,-102.15,27.55,-7.49,72.74,-3.26,-1.2363636363636366
15.703125,-95.23,10.28,4.24,1.25,64.68,-4.25,-105.81,27.03,-10.35,79.77,-3.88,-2.933636363636364
15.71875,-100.72,7.92,2.19,-1.86,64.14,-8.45,-102.91,26.44,-13.56,84.0,-4.44,-4.295454545454546
15.734375,-107.61,5.29,0.33,-5.0,62.4,-10.21,-92.75,25.68,-16.65,85.34,-5.07,-5.295454545454543
15.75,-117.29,2.2,-1.23,-8.18,59.46,-8.97,-76.14,24.68,-19.33,84.18,-5.85,-6.042727272727273
15.765625,-130.56,-1.5,-2.58,-11.44,55.53,-4.74,-55.13,23.36,-21.56,81.71,-6.81,-6.701818181818183
15.78125,-146.87,-5.94,-3.87,-14.75,50.95,1.95,-32.35,21.68,-23.62,79.56,-7.83,-7.371818181818181
15.796875,-163.93,-11.15,-5.31,-18.07,46.04,9.98,-10.31,19.64,-26.02,79.1,-8.74,-8.070000000000002
15.8125,-177.78,-17.04,-6.99,-21.37,41.1,17.72,9.24,17.25,-29.23,80.86,-9.34,-8.68909090909091
15.828125,-183.65,-23.36,-8.89,-24.69,36.35,23.11,25.41,14.55,-33.41,84.27,-9.51,-9.07454545454545
15.84375,-177.44,-29.88,-10.9,-28.21,31.88,24.22,38.04,11.6,-38.29,88.0,-9.26,-9.112727272727271
15.859375,-157.32,-36.37,-12.88,-32.18,27.68,20.01,47.33,8.48,-43.14,90.59,-8.66,-8.769090909090908
15.875,-124.62,-42.78,-14.72,-36.73,23.64,10.97,53.63,5.27,-46.94,91.13,-7.76,-8.08272727272727
15.890625,-83.61,-49.16,-16.36,-41.69,19.58,-0.73,57.31,2.05,-48.67,89.52,-6.59,-7.122727272727274
15.90625,-40.16,-55.72,-17.75,-46.47,15.44,-11.82,58.83,-1.12,-47.69,86.3,-5.15,-5.937272727272727
15.921875,0.03,-62.81,-18.9,-50.13,11.25,-19.29,58.78,-4.25,-43.9,82.15,-3.46,-4.593636363636363
15.9375,32.98,-70.88,-19.87,-51.69,7.15,-21.46,57.85,-7.46,-37.84,77.45,-1.64,-3.21909090909091
15.953125,57.03,-80.31,-20.79,-50.44,3.33,-18.61,56.67,-11.01,-30.44,72.08,0.14,-2.0318181818181813
15.96875,72.55,-91.04,-21.89,-46.27,-0.14,-12.58,55.67,-15.18,-22.72,65.53,1.7,-1.3063636363636357
15.984375,81.05,-102.32,-23.41,-39.7,-3.37,-5.7,55.04,-20.14,-15.54,57.26,2.9,-1.2663636363636368
16.0,84.33,-112.43,-25.52,-31.64,-6.66,0.2,54.72,-25.83,-9.36,47.04,3.72,-1.9481818181818182
16.015625,83.99,-118.93,-28.17,-23.11,-10.37,4.35,54.59,-31.77,-4.31,35.1,4.2,-3.1300000000000012
16.03125,81.35,-119.23,-31.03,-14.92,-14.72,6.8,54.55,-37.08,-0.24,22.08,4.37,-4.370000000000001
16.046875,77.47,-111.51,-33.47,-7.54,-19.71,7.83,54.57,-40.74,3.11,8.91,4.26,-5.165454545454547
16.0625,73.28,-95.4,-34.73,-1.16,-25.09,7.42,54.62,-41.85,6.07,-3.5,3.88,-5.132727272727273
16.078125,69.53,-72.25,-34.11,4.18,-30.55,5.11,54.57,-39.9,8.89,-14.56,3.27,-4.165454545454545
16.09375,66.68,-44.79,-31.24,8.44,-35.82,0.38,54.19,-34.96,11.77,-24.12,2.55,-2.4472727272727264
16.109375,64.89,-16.27,-26.26,11.61,-40.84,-6.9,53.14,-27.64,14.65,-32.59,1.89,-0.3927272727272735
16.125,64.06,10.36,-19.79,13.73,-45.78,-16.12,51.08,-18.82,17.36,-40.84,1.45,1.517272727272726
16.140625,64.06,33.1,-12.78,14.92,-51.02,-25.87,47.85,-9.46,19.63,-49.92,1.32,2.8936363636363627
16.15625,64.79,51.07,-6.15,15.39,-57.07,-34.35,43.52,-0.39,21.22,-60.81,1.47,3.517272727272727
16.171875,66.32,64.28,-0.57,15.33,-64.41,-39.82,38.31,7.8,22.13,-74.05,1.78,3.372727272727272
16.1875,68.81,73.2,3.74,14.91,-73.25,-41.12,32.62,14.71,22.53,-89.56,2.1,2.6081818181818175
16.203125,72.37,78.43,6.9,14.22,-83.27,-37.95,26.79,20.15,22.71,-106.46,2.36,1.47727272727273
16.21875,76.86,80.52,9.22,13.36,-93.33,-30.96,21.07,24.04,22.9,-122.96,2.54,0.296363636363635
16.234375,81.85,79.91,10.93,12.46,-101.5,-21.47,15.5,26.48,23.23,-136.52,2.65,-0.5890909090909112
16.25,86.65,77.06,12.13,11.7,-105.44,-11.07,9.94,27.68,23.72,-144.19,2.69,-0.8299999999999969
16.265625,90.45,72.47,12.83,11.27,-103.05,-1.23,4.16,28.01,24.31,-143.35,2.6,-0.13909090909090868
16.28125,92.55,66.69,13.02,11.32,-93.26,7.08,-2.05,27.86,24.99,-132.53,2.3,1.633636363636365
16.296875,92.48,60.29,12.8,11.94,-76.56,13.44,-8.76,27.6,25.7,-112.03,1.75,4.422727272727273
16.3125,90.13,53.74,12.35,13.11,-54.9,17.83,-15.83,27.46,26.32,-84.08,0.96,7.917272727272728
16.328125,85.76,47.38,11.87,14.76,-31.18,20.43,-22.94,27.49,26.67,-52.3,0.01,11.631818181818183
16.34375,79.96,41.39,11.52,16.8,-8.36,21.41,-29.66,27.52,26.5,-20.65,-0.96,15.04272727272727
16.359375,73.51,35.83,11.34,19.11,11.34,21.01,-35.69,27.3,25.64,7.65,-1.85,17.744545454545456
16.375,67.13,30.74,11.3,21.49,26.81,19.48,-40.98,26.59,24.07,30.82,-2.6,19.53181818181818
16.390625,61.31,26.21,11.35,23.71,37.96,17.3,-45.87,25.34,21.95,48.55,-3.21,20.418181818181818
16.40625,56.16,22.36,11.42,25.5,45.33,15.13,-51.09,23.67,19.6,61.44,-3.75,20.524545454545454
16.421875,51.37,19.32,11.5,26.66,49.63,13.63,-57.54,21.89,17.3,70.29,-4.31,19.976363636363637
16.4375,46.46,17.13,11.6,27.11,51.51,13.25,-65.95,20.25,15.25,75.64,-4.96,18.844545454545454
16.453125,41.04,15.67,11.72,26.92,51.53,14.06,-76.41,18.81,13.48,77.74,-5.73,17.166363636363638
16.46875,35.04,14.61,11.81,26.27,50.29,15.75,-88.04,17.39,11.89,76.87,-6.64,15.021818181818183
16.484375,28.8,13.43,11.81,25.39,48.51,17.76,-98.94,15.67,10.3,73.76,-7.66,12.620909090909093
16.5,22.96,11.6,11.65,24.4,46.95,19.58,-106.55,13.35,8.59,69.66,-8.75,10.312727272727273
16.515625,18.11,8.63,11.25,23.29,46.19,20.96,-108.37,10.35,6.67,66.12,-9.8,8.490909090909092
16.53125,14.54,4.28,10.56,21.95,46.5,21.98,-102.81,6.9,4.63,64.41,-10.69,7.4772727272727275
16.546875,12.03,-1.38,9.58,20.27,47.7,22.86,-89.75,3.38,2.58,65.06,-11.23,7.372727272727272
16.5625,9.9,-7.95,8.31,18.27,49.37,23.82,-70.57,0.16,0.65,67.63,-11.26,8.03
16.578125,7.31,-14.81,6.84,16.12,51.02,24.92,-47.75,-2.61,-1.09,70.96,-10.65,9.114545454545453
16.59375,3.57,-21.37,5.23,14.05,52.38,25.97,-24.1,-5.11,-2.68,73.57,-9.4,10.19181818181818
16.609375,-1.58,-27.28,3.64,12.26,53.46,26.75,-2.02,-7.73,-4.27,74.4,-7.63,10.90909090909091
16.625,-7.85,-32.57,2.17,10.81,54.42,27.05,16.95,-10.95,-6.06,72.97,-5.55,11.035454545454545
16.640625,-14.53,-37.56,0.93,9.59,55.44,26.82,32.18,-15.08,-8.19,69.59,-3.42,10.524545454545454
16.65625,-20.85,-42.8,-0.03,8.45,56.44,26.14,43.71,-20.16,-10.71,64.88,-1.5,9.415454545454544
16.671875,-26.28,-48.81,-0.76,7.3,57.17,25.09,51.94,-25.8,-13.51,59.42,0.09,7.8045454545454565
16.6875,-30.81,-55.95,-1.41,6.16,57.17,23.75,57.33,-31.25,-16.43,53.36,1.26,5.743636363636363
16.703125,-34.97,-64.4,-2.15,5.12,56.04,22.14,60.37,-35.5,-19.27,46.38,2.04,3.254545454545455
16.71875,-39.58,-74.03,-3.13,4.25,53.55,20.29,61.55,-37.5,-21.86,37.86,2.48,0.3527272727272732
16.734375,-45.41,-84.26,-4.45,3.49,49.7,18.27,61.42,-36.46,-24.12,27.29,2.7,-2.893636363636366
16.75,-52.84,-93.88,-6.08,2.65,44.75,16.2,60.58,-32.11,-26.08,14.65,2.82,-6.303636363636364
16.765625,-61.72,-101.04,-7.97,1.56,39.15,14.18,59.6,-24.89,-27.93,0.57,2.93,-9.596363636363636
16.78125,-71.41,-103.46,-9.99,0.13,33.46,12.33,58.87,-15.85,-29.94,-13.84,3.02,-12.425454545454546
16.796875,-81.05,-99.13,-12.0,-1.54,28.19,10.75,58.56,-6.37,-32.42,-27.35,2.99,-14.488181818181816
16.8125,-89.82,-86.96,-13.84,-3.22,23.68,9.62,58.61,2.32,-35.53,-39.08,2.69,-15.593636363636362
16.828125,-97.28,-67.35,-15.4,-4.73,20.0,9.11,58.8,9.41,-39.16,-48.89,2.09,-15.763636363636364
16.84375,-103.59,-42.21,-16.63,-6.01,16.89,9.43,58.89,14.69,-42.75,-57.42,1.28,-15.220909090909089
16.859375,-109.5,-14.48,-17.61,-7.18,13.89,10.66,58.75,18.38,-45.44,-65.91,0.5,-14.358181818181817
16.875,-116.34,12.69,-18.61,-8.49,10.58,12.62,58.35,20.84,-46.23,-75.79,0.03,-13.668181818181818
16.890625,-125.61,36.84,-20.05,-10.15,6.74,14.91,57.7,22.34,-44.38,-88.3,0.01,-13.631818181818183
16.90625,-138.32,56.53,-22.25,-12.27,2.46,17.05,56.73,22.97,-39.68,-104.02,0.37,-14.584545454545452
16.921875,-154.3,71.29,-25.3,-14.76,-1.91,18.68,55.25,22.8,-32.61,-122.63,0.89,-16.6
16.9375,-171.55,81.3,-28.83,-17.48,-6.02,19.78,52.93,22.01,-24.14,-142.65,1.26,-19.399090909090912
16.953125,-186.32,87.06,-32.04,-20.26,-9.69,20.6,49.45,20.95,-15.45,-161.51,1.3,-22.355454545454542
16.96875,-193.78,89.0,-33.9,-22.99,-13.09,21.56,44.72,20.08,-7.53,-175.88,1.04,-24.615454545454543
16.984375,-189.64,87.59,-33.53,-25.63,-16.66,22.98,38.97,19.76,-0.97,-182.34,0.6,-25.351818181818178
17.0,-171.6,83.34,-30.53,-28.2,-20.9,24.92,32.71,20.06,4.09,-178.31,0.18,-24.021818181818183
17.015625,-140.47,76.85,-25.19,-30.77,-26.16,27.14,26.56,20.72,7.84,-162.97,-0.14,-20.599090909090908
17.03125,-100.02,68.98,-18.37,-33.47,-32.39,29.27,20.96,21.3,10.59,-137.6,-0.39,-15.558181818181817
17.046875,-55.88,60.59,-11.16,-36.5,-39.24,30.95,16.01,21.4,12.62,-105.47,-0.72,-9.763636363636364
17.0625,-13.77,52.49,-4.55,-40.04,-46.14,31.99,11.4,20.76,14.13,-70.8,-1.24,-4.16090909090909
17.078125,22.03,45.26,0.9,-44.18,-52.58,32.34,6.59,19.43,15.24,-37.61,-1.97,0.495454545454545
17.09375,49.4,39.13,5.07,-48.72,-58.33,32.12,1.07,17.6,16.1,-8.66,-2.86,3.810909090909091
17.109375,68.32,34.02,8.14,-53.12,-63.45,31.46,-5.34,15.51,16.85,15.02,-3.78,5.784545454545455
17.125,80.06,29.65,10.36,-56.55,-68.34,30.56,-12.45,13.3,17.65,33.8,-4.62,6.674545454545455
17.140625,86.36,25.73,11.91,-58.11,-73.61,29.49,-19.71,11.01,18.65,48.74,-5.34,6.829090909090908
17.15625,88.85,22.11,12.83,-57.08,-79.94,28.19,-26.55,8.55,19.95,60.72,-5.98,6.513636363636363
17.171875,88.84,18.87,13.15,-53.18,-87.85,26.22,-32.6,5.84,21.52,70.03,-6.63,5.837272727272728
17.1875,87.4,16.14,12.94,-46.64,-97.43,22.8,-37.88,2.84,23.28,76.5,-7.38,4.7790909090909075
17.203125,85.37,14.02,12.4,-38.08,-107.95,16.86,-42.82,-0.39,25.06,79.94,-8.19,3.2927272727272725
17.21875,83.41,12.37,11.79,-28.34,-117.79,7.53,-48.16,-3.75,26.71,80.66,-8.95,1.4072727272727261
17.234375,81.92,10.77,11.34,-18.31,-124.57,-5.44,-54.75,-7.13,28.08,79.64,-9.5,-0.7227272727272717
17.25,81.04,8.66,11.2,-8.78,-125.81,-21.29,-63.23,-10.56,29.11,78.28,-9.64,-2.8199999999999985
17.265625,80.66,5.47,11.32,-0.35,-119.8,-38.29,-73.7,-14.2,29.74,77.84,-9.25,-4.5963636363636375
17.28125,80.63,0.89,11.58,6.56,-106.2,-54.22,-85.41,-18.25,29.98,78.92,-8.28,-5.800000000000005
17.296875,80.83,-5.07,11.79,11.76,-86.34,-67.07,-96.68,-22.78,29.84,81.24,-6.74,-6.292727272727273
17.3125,81.26,-12.14,11.85,15.28,-62.78,-75.73,-105.1,-27.45,29.37,83.92,-4.74,-6.023636363636357
17.328125,82.16,-19.87,11.74,17.34,-38.5,-80.28,-108.13,-31.53,28.63,85.87,-2.44,-5.00090909090909
17.34375,83.71,-27.78,11.52,18.28,-16.04,-81.85,-103.89,-33.98,27.68,86.37,-0.1,-3.2799999999999994
17.359375,86.05,-35.51,11.25,18.49,3.08,-82.15,-91.88,-33.87,26.6,85.22,1.97,-0.9772727272727271
17.375,89.08,-42.84,10.95,18.29,18.39,-82.87,-73.21,-30.73,25.44,82.7,3.52,1.7018181818181795
17.390625,92.39,-49.74,10.58,17.87,30.18,-85.26,-50.36,-24.81,24.24,79.23,4.39,4.428181818181818
17.40625,95.35,-56.36,10.09,17.34,39.09,-89.71,-26.37,-16.99,22.96,74.99,4.64,6.8209090909090895
17.421875,97.18,-63.07,9.45,16.77,45.77,-95.67,-3.98,-8.5,21.56,69.83,4.45,8.526363636363637
17.4375,97.23,-70.39,8.69,16.23,50.77,-101.64,15.03,-0.46,19.94,63.23,4.1,9.339090909090908
17.453125,95.12,-78.92,7.87,15.81,54.5,-105.59,29.99,6.36,18.02,54.6,3.75,9.228181818181817
17.46875,90.94,-89.05,7.04,15.61,57.28,-105.58,41.12,11.61,15.72,43.59,3.42,8.336363636363636
17.484375,85.2,-100.5,6.17,15.74,59.35,-100.41,49.07,15.28,13.01,30.31,3.04,6.9327272727272735
17.5,78.74,-112.09,5.17,16.28,60.95,-90.22,54.46,17.48,9.94,15.41,2.53,5.331818181818181
17.515625,72.42,-121.67,3.98,17.32,62.24,-76.45,57.79,18.39,6.59,-0.04,1.93,3.863636363636365
17.53125,66.83,-126.51,2.64,18.88,63.37,-61.26,59.42,18.22,3.03,-14.78,1.37,2.8372727272727265
17.546875,62.12,-124.09,1.26,20.93,64.4,-46.78,59.73,17.26,-0.74,-27.85,1.0,2.476363636363636
17.5625,57.97,-112.93,0.03,23.36,65.3,-34.28,59.22,15.89,-4.79,-38.91,0.85,2.8827272727272715
17.578125,53.82,-93.17,-0.97,25.91,65.98,-24.03,58.42,14.5,-9.15,-48.37,0.83,3.9790909090909095
17.59375,49.14,-66.66,-1.81,28.29,66.34,-15.59,57.79,13.39,-13.74,-57.37,0.74,5.501818181818184
17.609375,43.7,-36.42,-2.69,30.2,66.34,-8.29,57.58,12.7,-18.33,-67.38,0.4,7.073636363636367
17.625,37.68,-5.77,-3.86,31.46,66.07,-1.8,57.74,12.36,-22.57,-79.74,-0.2,8.306363636363637
17.640625,31.61,22.45,-5.43,31.99,65.67,3.9,58.02,12.16,-26.13,-95.21,-0.9,8.920909090909092
17.65625,26.13,46.41,-7.33,31.87,65.27,8.68,58.16,11.81,-28.83,-113.62,-1.49,8.82363636363636
17.671875,21.76,65.34,-9.32,31.23,64.81,12.53,58.01,11.1,-30.84,-133.57,-1.82,8.111818181818181
17.6875,18.66,79.24,-11.08,30.17,64.02,15.68,57.57,9.9,-32.52,-152.54,-1.89,7.019090909090906
17.703125,16.54,88.55,-12.41,28.77,62.52,18.4,56.94,8.17,-34.42,-167.13,-1.87,5.823636363636364
17.71875,14.76,93.82,-13.28,27.11,59.91,20.73,56.13,6.0,-37.01,-173.86,-1.99,4.756363636363637
17.734375,12.55,95.6,-13.87,25.24,56.04,22.39,54.93,3.52,-40.53,-169.97,-2.38,3.956363636363634
17.75,9.23,94.44,-14.43,23.22,51.07,22.91,52.97,0.84,-44.83,-154.45,-3.07,3.445454545454548
17.765625,4.54,90.96,-15.28,21.14,45.44,22.02,49.81,-1.94,-49.41,-128.46,-3.96,3.1690909090909085
17.78125,-1.25,85.77,-16.65,19.06,39.76,19.81,45.2,-4.78,-53.46,-95.23,-4.92,3.0281818181818156
17.796875,-7.47,79.53,-18.68,17.02,34.52,16.98,39.24,-7.69,-56.03,-59.12,-5.87,2.9481818181818173
17.8125,-13.25,72.86,-21.35,15.07,29.97,14.47,32.45,-10.68,-56.28,-24.39,-6.79,2.916363636363637
17.828125,-17.99,66.25,-24.34,13.25,26.0,13.1,25.6,-13.8,-53.67,5.91,-7.71,2.963636363636364
17.84375,-21.59,60.05,-27.07,11.6,22.26,13.16,19.36,-17.09,-48.17,30.59,-8.64,3.1327272727272724
17.859375,-24.58,54.41,-28.76,10.15,18.3,14.27,14.07,-20.64,-40.32,50.0,-9.57,3.3936363636363636
17.875,-27.85,49.36,-28.66,8.9,13.81,15.58,9.55,-24.56,-31.1,65.33,-10.43,3.63
17.890625,-32.4,44.8,-26.37,7.81,8.72,16.23,5.25,-28.95,-21.68,77.71,-11.14,3.6345454545454534
17.90625,-38.82,40.68,-21.97,6.82,3.26,15.75,0.47,-33.82,-13.15,87.62,-11.63,3.200909090909091
17.921875,-47.1,37.0,-16.12,5.85,-2.17,14.29,-5.16,-38.97,-6.16,94.95,-11.82,2.235454545454545
17.9375,-56.58,33.84,-9.8,4.88,-7.16,12.39,-11.62,-43.94,-0.85,99.44,-11.65,0.8136363636363644
17.953125,-66.2,31.31,-3.99,3.86,-11.52,10.75,-18.41,-47.96,3.09,101.17,-11.04,-0.8127272727272719
17.96875,-74.88,29.37,0.69,2.76,-15.3,9.73,-24.88,-50.13,6.21,100.88,-9.95,-2.3181818181818192
17.984375,-81.98,27.82,4.02,1.58,-18.86,9.26,-30.55,-49.68,9.04,99.75,-8.39,-3.453636363636363
18.0,-87.53,26.22,6.22,0.27,-22.68,8.88,-35.34,-46.22,11.9,99.02,-6.5,-4.16
18.015625,-92.27,24.03,7.63,-1.19,-27.18,8.01,-39.66,-39.96,14.83,99.45,-4.49,-4.618181818181817
18.03125,-97.52,20.74,8.59,-2.87,-32.54,6.25,-44.26,-31.64,17.66,101.06,-2.61,-5.194545454545454
18.046875,-104.78,16.05,9.27,-4.84,-38.62,3.54,-50.0,-22.35,20.14,103.17,-1.06,-6.316363636363639
18.0625,-115.27,9.93,9.72,-7.15,-44.99,0.14,-57.59,-13.11,22.11,104.76,0.11,-8.303636363636366
18.078125,-129.32,2.6,9.92,-9.79,-51.12,-3.54,-67.24,-4.63,23.55,104.98,0.93,-11.24181818181818
18.09375,-145.8,-5.58,9.86,-12.63,-56.63,-7.13,-78.38,2.8,24.58,103.37,1.53,-14.910000000000002
18.109375,-161.94,-14.17,9.63,-15.44,-61.44,-10.4,-89.56,9.22,25.37,99.98,1.98,-18.797272727272727
18.125,-173.53,-22.84,9.34,-18.0,-65.88,-13.31,-98.52,14.74,26.09,95.19,2.32,-22.218181818181822
18.140625,-176.06,-31.3,9.12,-20.19,-70.61,-15.97,-102.75,19.36,26.81,89.39,2.49,-24.519090909090906
18.15625,-166.11,-39.4,9.09,-22.07,-76.38,-18.57,-100.22,22.93,27.59,82.79,2.45,-25.263636363636365
18.171875,-142.81,-47.14,9.3,-23.87,-83.79,-21.26,-90.14,25.29,28.4,75.26,2.24,-24.41090909090909
18.1875,-108.34,-54.74,9.76,-25.95,-92.94,-24.13,-73.28,26.35,29.26,66.44,1.98,-22.326363636363638
18.203125,-67.49,-62.72,10.37,-28.63,-103.2,-27.04,-51.85,26.28,30.19,55.95,1.85,-19.66272727272727
18.21875,-26.12,-71.74,11.01,-32.11,-113.12,-29.74,-28.75,25.45,31.15,43.66,1.97,-17.12181818181818
18.234375,10.58,-82.33,11.51,-36.34,-120.62,-31.93,-6.75,24.27,32.02,29.75,2.35,-15.226363636363637
18.25,39.44,-94.49,11.73,-41.03,-123.41,-33.43,12.21,23.14,32.55,14.86,2.87,-14.141818181818183
18.265625,59.59,-107.12,11.63,-45.58,-119.67,-34.29,27.28,22.25,32.48,-0.15,3.31,-13.660909090909092
18.28125,71.98,-117.94,11.27,-49.17,-108.67,-34.83,38.51,21.63,31.63,-14.43,3.51,-13.31909090909091
18.296875,78.35,-123.95,10.78,-50.91,-91.08,-35.53,46.38,21.21,30.02,-27.38,3.42,-12.608181818181821
18.3125,80.42,-122.2,10.3,-50.05,-68.89,-36.85,51.46,20.8,27.93,-38.86,3.13,-11.164545454545456
18.328125,79.49,-110.9,9.93,-46.14,-44.83,-39.13,54.16,20.19,25.75,-49.2,2.8,-8.89818181818182
18.34375,76.51,-90.15,9.67,-39.26,-21.62,-42.48,54.81,19.18,23.86,-59.12,2.54,-6.005454545454543
18.359375,72.27,-61.99,9.44,-30.02,-1.28,-46.71,53.78,17.57,22.42,-69.6,2.37,-2.8863636363636367
18.375,67.55,-29.78,9.09,-19.42,15.2,-51.32,51.63,15.28,21.33,-81.58,2.21,0.01727272727272634
18.390625,63.18,2.76,8.56,-8.68,27.83,-55.45,49.08,12.37,20.31,-95.83,1.92,2.368181818181817
18.40625,59.87,32.57,7.8,1.09,37.3,-58.03,46.89,9.05,19.05,-112.61,1.43,4.037272727272728
18.421875,58.11,57.67,6.85,9.12,44.53,-57.97,45.6,5.59,17.37,-131.43,0.77,5.11
18.4375,58.05,77.19,5.76,15.11,50.27,-54.58,45.39,2.17,15.25,-150.7,0.06,5.815454545454548
18.453125,59.53,91.02,4.61,19.15,55.0,-47.82,46.01,-1.17,12.87,-167.76,-0.56,6.443636363636363
18.46875,62.19,99.5,3.43,21.63,58.89,-38.42,46.89,-4.55,10.43,-179.2,-1.0,7.253636363636366
18.484375,65.62,103.19,2.26,22.99,61.98,-27.69,47.37,-8.19,8.1,-181.67,-1.31,8.422727272727274
18.5,69.54,102.92,1.12,23.56,64.28,-17.07,46.99,-12.27,5.95,-172.94,-1.59,10.044545454545458
18.515625,73.87,99.7,0.02,23.5,65.86,-7.71,45.59,-16.89,3.96,-152.77,-1.99,12.10363636363636
18.53125,78.57,94.63,-1.0,22.86,66.87,-0.26,43.31,-22.03,2.05,-123.25,-2.59,14.469090909090909
18.546875,83.41,88.63,-1.97,21.69,67.41,5.23,40.4,-27.5,0.1,-88.29,-3.38,16.88454545454545
18.5625,87.87,82.33,-2.9,20.15,67.52,9.02,37.12,-32.92,-1.97,-52.47,-4.26,19.044545454545446
18.578125,91.08,75.9,-3.86,18.48,67.2,11.52,33.51,-37.63,-4.23,-19.73,-5.13,20.646363636363642
18.59375,92.11,69.33,-4.92,16.96,66.44,13.14,29.55,-40.81,-6.68,7.57,-5.9,21.526363636363634
18.609375,90.41,62.64,-6.18,15.82,65.39,14.21,25.1,-41.59,-9.24,28.9,-6.51,21.722727272727273
18.625,86.07,56.02,-7.71,15.19,64.31,15.07,20.04,-39.33,-11.79,45.05,-6.92,21.454545454545457
18.640625,79.87,49.89,-9.51,15.13,63.47,16.05,14.32,-33.97,-14.16,57.29,-7.02,21.03272727272727
18.65625,72.98,44.69,-11.53,15.65,62.96,17.38,7.99,-26.01,-16.28,66.63,-6.75,20.700909090909093
18.671875,66.48,40.72,-13.68,16.75,62.58,19.15,1.18,-16.52,-18.24,73.53,-6.03,20.538181818181815
18.6875,60.99,37.95,-15.93,18.41,61.81,21.23,-5.85,-6.72,-20.3,78.04,-4.88,20.431818181818183
18.703125,56.44,36.12,-18.31,20.53,60.07,23.35,-12.77,2.34,-22.81,80.28,-3.45,20.162727272727274
18.71875,52.22,34.81,-20.96,22.92,56.93,25.22,-19.18,10.06,-26.03,80.69,-1.93,19.522727272727273
18.734375,47.62,33.68,-23.91,25.33,52.37,26.63,-24.77,16.28,-29.96,80.12,-0.49,18.445454545454545
18.75,42.18,32.41,-26.97,27.48,46.75,27.53,-29.46,21.12,-34.16,79.58,0.77,17.020909090909097
18.765625,35.95,30.79,-29.64,29.1,40.69,28.05,-33.43,24.76,-37.78,79.88,1.88,15.477272727272727
18.78125,29.46,28.61,-31.19,30.0,34.82,28.36,-37.18,27.32,-39.75,81.37,2.92,14.067272727272725
18.796875,23.44,25.64,-30.96,30.06,29.51,28.63,-41.41,28.9,-39.1,83.92,3.94,12.960909090909091
18.8125,18.52,21.61,-28.63,29.32,24.87,28.95,-46.82,29.59,-35.35,87.03,4.88,12.17909090909091
18.828125,14.83,16.33,-24.45,27.96,20.72,29.29,-53.88,29.62,-28.66,90.01,5.6,11.57909090909091
18.84375,12.04,9.74,-19.13,26.28,16.76,29.58,-62.63,29.3,-19.82,92.22,5.95,10.935454545454546
18.859375,9.41,2.01,-13.61,24.59,12.69,29.68,-72.48,28.95,-10.03,93.05,5.9,10.014545454545454
18.875,6.17,-6.5,-8.67,23.08,8.28,29.46,-82.06,28.74,-0.54,92.08,5.56,8.69090909090909
18.890625,1.89,-15.26,-4.65,21.72,3.5,28.87,-89.41,28.64,7.67,89.01,5.14,7.0109090909090925
18.90625,-3.39,-23.76,-1.51,20.34,-1.5,27.85,-92.37,28.46,14.03,83.79,4.82,5.16
18.921875,-9.15,-31.61,1.06,18.72,-6.39,26.48,-89.16,27.92,18.43,76.63,4.68,3.419090909090909
18.9375,-14.68,-38.68,3.37,16.75,-10.78,24.89,-79.11,26.88,21.02,68.0,4.69,2.0318181818181817
18.953125,-19.49,-45.22,5.59,14.55,-14.41,23.24,-62.92,25.28,22.18,58.42,4.75,1.0881818181818188
18.96875,-23.57,-51.79,7.65,12.35,-17.33,21.63,-42.6,23.24,22.3,48.35,4.77,0.4545454545454542
18.984375,-27.44,-59.17,9.41,10.4,-19.97,20.08,-20.9,20.86,21.78,37.99,4.74,-0.2018181818181806
19.0,-31.93,-68.07,10.71,8.81,-22.91,18.41,-0.54,18.25,21.0,27.35,4.73,-1.2899999999999983
19.015625,-37.83,-78.89,11.51,7.54,-26.72,16.41,16.59,15.43,20.24,16.25,4.79,-3.152727272727274
19.03125,-45.43,-91.26,11.89,6.42,-31.59,13.88,29.65,12.42,19.71,4.61,4.88,-5.8927272727272735
19.046875,-54.44,-103.86,12.0,5.27,-37.25,10.79,38.79,9.25,19.47,-7.41,4.88,-9.31909090909091
19.0625,-64.06,-114.49,12.03,3.99,-43.09,7.33,44.73,5.97,19.52,-19.44,4.66,-12.986363636363636
19.078125,-73.34,-120.34,12.11,2.58,-48.42,3.87,48.24,2.67,19.79,-30.95,4.16,-16.33
19.09375,-81.51,-118.84,12.25,1.09,-52.84,0.77,49.91,-0.63,20.25,-41.53,3.46,-18.874545454545455
19.109375,-88.35,-108.44,12.39,-0.41,-56.4,-1.75,50.07,-4.0,20.88,-51.14,2.74,-20.40090909090909
19.125,-94.2,-89.24,12.44,-1.89,-59.61,-3.66,49.02,-7.62,21.67,-60.17,2.18,-21.007272727272724
19.140625,-99.93,-63.08,12.3,-3.35,-63.23,-5.21,47.15,-11.7,22.62,-69.45,1.85,-21.093636363636364
19.15625,-106.77,-33.09,12.02,-4.83,-68.04,-6.67,44.97,-16.45,23.7,-80.01,1.69,-21.225454545454546
19.171875,-116.05,-2.78,11.67,-6.42,-74.57,-8.28,43.01,-21.88,24.97,-92.83,1.56,-21.963636363636365
19.1875,-128.62,24.81,11.38,-8.22,-82.83,-10.12,41.6,-27.77,26.53,-108.45,1.31,-23.670909090909092
19.203125,-144.3,47.75,11.21,-10.28,-92.19,-12.09,40.68,-33.53,28.52,-126.58,0.88,-26.35727272727273
19.21875,-161.25,65.28,11.1,-12.6,-101.23,-14.02,39.9,-38.31,31.03,-145.78,0.3,-29.598181818181818
19.234375,-175.88,77.54,10.91,-15.09,-107.98,-15.73,38.8,-41.1,33.95,-163.29,-0.42,-32.57181818181818
19.25,-183.51,85.07,10.47,-17.67,-110.25,-17.12,37.08,-41.06,36.9,-175.46,-1.25,-34.25454545454546
19.265625,-179.79,88.47,9.73,-20.25,-106.34,-18.25,34.81,-37.75,39.23,-178.54,-2.19,-33.71545454545455
19.28125,-162.29,88.31,8.75,-22.83,-95.56,-19.32,32.3,-31.37,40.14,-169.87,-3.22,-30.450909090909093
19.296875,-131.68,85.14,7.72,-25.48,-78.57,-20.65,29.91,-22.71,38.91,-148.99,-4.25,-24.604545454545452
19.3125,-91.77,79.64,6.8,-28.24,-57.27,-22.56,27.73,-12.97,35.26,-118.02,-5.16,-16.959999999999997
19.328125,-48.34,72.66,6.07,-31.14,-34.29,-25.34,25.42,-3.41,29.38,-81.29,-5.82,-8.736363636363636
19.34375,-7.36,65.12,5.5,-34.23,-12.2,-29.13,22.34,5.02,21.93,-43.94,-6.24,-1.199090909090908
19.359375,26.78,57.85,4.96,-37.59,7.07,-33.86,17.85,11.81,13.82,-10.4,-6.5,4.708181818181818
19.375,52.05,51.34,4.31,-41.31,22.53,-39.18,11.64,16.91,5.94,16.78,-6.78,8.566363636363636
19.390625,68.68,45.72,3.48,-45.45,34.11,-44.33,3.94,20.53,-1.1,37.21,-7.15,10.512727272727274
19.40625,78.26,40.75,2.42,-49.81,42.31,-48.23,-4.54,23.02,-7.0,52.06,-7.56,11.061818181818182
19.421875,82.7,36.13,1.15,-53.84,47.81,-49.68,-12.83,24.67,-11.73,62.95,-7.79,10.867272727272727
19.4375,83.67,31.71,-0.34,-56.68,51.24,-47.74,-20.14,25.68,-15.33,71.04,-7.57,10.503636363636362
19.453125,82.37,27.64,-1.99,-57.34,53.1,-42.08,-26.07,26.25,-17.85,76.72,-6.69,10.36909090909091
19.46875,79.69,24.34,-3.72,-55.08,53.85,-33.22,-30.81,26.55,-19.38,79.91,-5.12,10.637272727272729
19.484375,76.41,22.2,-5.4,-49.73,53.95,-22.36,-35.03,26.71,-20.09,80.68,-3.01,11.302727272727273
19.5,73.23,21.36,-6.89,-41.69,53.91,-11.11,-39.63,26.81,-20.31,79.63,-0.66,12.240909090909092
19.515625,70.69,21.44,-8.11,-31.9,54.14,-0.93,-45.52,26.79,-20.53,77.94,1.62,13.239090909090908
19.53125,69.1,21.55,-9.1,-21.46,54.85,7.23,-53.29,26.55,-21.15,76.96,3.57,14.073636363636364
19.546875,68.56,20.65,-10.01,-11.38,55.93,13.02,-62.95,25.98,-22.42,77.64,5.03,14.55
19.5625,68.98,17.89,-11.07,-2.4,57.1,16.67,-73.73,25.12,-24.24,80.19,5.99,14.590909090909093
19.578125,70.21,12.97,-12.5,5.08,58.02,18.65,-84.01,24.06,-26.31,84.06,6.56,14.253636363636362
19.59375,72.09,6.18,-14.47,10.89,58.53,19.51,-91.58,22.96,-28.28,88.14,6.88,13.713636363636367
19.609375,74.5,-1.74,-17.0,15.07,58.73,19.68,-94.18,21.87,-29.89,91.29,7.09,13.22
19.625,77.37,-9.98,-19.96,17.8,58.84,19.47,-90.16,20.69,-31.19,92.65,7.25,12.980000000000002
19.640625,80.62,-17.9,-23.11,19.44,59.05,19.09,-79.18,19.18,-32.37,91.82,7.28,13.083636363636362
