Timestamp,Participant_11,Participant_12,Participant_13,Participant_14,Participant_15,Participant_16,Participant_17,Participant_18,Participant_22,Participant_23,Participant_24,Average
0.0,2029828.0,2171585.0,1992854.0,1957053.0,1806547.0,2137290.0,1694148.0,1538643.0,1915306.0,1621796.0,1524066.0,1853556.0
0.015625,2029149.0,2172522.0,1991381.0,1957485.0,1802416.0,2137770.0,1694195.0,1538135.0,1914575.0,1621658.0,1523916.0,1853018.3636363635
0.03125,2028945.0,2173607.0,1990560.0,1957744.0,1797009.0,2138045.0,1694322.0,1538444.0,1913515.0,1621299.0,1523892.0,1852489.2727272727
0.046875,2028609.0,2175662.0,1990604.0,1958158.0,1792982.0,2138482.0,1694616.0,1537945.0,1912373.0,1621659.0,1523487.0,1852234.2727272727
0.0625,2028609.0,2177660.0,1991134.0,1958866.0,1790485.0,2138932.0,1694615.0,1537943.0,1911438.0,1623415.0,1523654.0,1852431.9090909092
0.078125,2028559.0,2180025.0,1991797.0,1959263.0,1789135.0,2139364.0,1694082.0,1537991.0,1910549.0,1625587.0,1524300.0,1852786.5454545454
0.09375,2027768.0,2182543.0,1992091.0,1960178.0,1788726.0,2139928.0,1693856.0,1538146.0,1908916.0,1628353.0,1524889.0,1853217.6363636365
0.109375,2027247.0,2185211.0,1993584.0,1961191.0,1788655.0,2140335.0,1693807.0,1538469.0,1910028.0,1631184.0,1525649.0,1854123.6363636365
0.125,2027050.0,2187746.0,1992611.0,1962348.0,1788349.0,2140997.0,1693831.0,1538817.0,1909328.0,1634225.0,1525853.0,1854650.4545454546
0.140625,2027120.0,2190529.0,1993965.0,1963574.0,1788229.0,2141499.0,1694135.0,1539221.0,1908531.0,1637683.0,1525915.0,1855491.0
0.15625,2027637.0,2193595.0,1996415.0,1965055.0,1788202.0,2141780.0,1694767.0,1539599.0,1908468.0,1640538.0,1526377.0,1856584.8181818181
0.171875,2028134.0,2196743.0,1999119.0,1966515.0,1788905.0,2142416.0,1695156.0,1540300.0,1908255.0,1642630.0,1526281.0,1857677.6363636365
0.1875,2028453.0,2200290.0,2001296.0,1969544.0,1790205.0,2142719.0,1695242.0,1540265.0,1908215.0,1638063.0,1525649.0,1858176.4545454546
0.203125,2029258.0,2203496.0,2003350.0,1968017.0,1791307.0,2143304.0,1692608.0,1539979.0,1907915.0,1631105.0,1524579.0,1857719.8181818181
0.21875,2029946.0,2207042.0,2005083.0,1972874.0,1792977.0,2143626.0,1692185.0,1539555.0,1907894.0,1625978.0,1523929.0,1858280.8181818181
0.234375,2030516.0,2210332.0,2004317.0,1974537.0,1794646.0,2144098.0,1695114.0,1539364.0,1907881.0,1622793.0,1523399.0,1858817.9090909092
0.25,2031241.0,2213469.0,2004117.0,1971112.0,1796718.0,2144662.0,1697056.0,1538697.0,1908167.0,1620304.0,1523077.0,1858965.4545454546
0.265625,2031961.0,2216712.0,2005538.0,1967590.0,1798813.0,2144823.0,1698828.0,1538457.0,1908215.0,1619315.0,1522623.0,1859352.2727272727
0.28125,2032730.0,2218257.0,2006370.0,1973441.0,1800543.0,2145420.0,1700495.0,1538082.0,1908373.0,1619385.0,1522225.0,1860483.7272727273
0.296875,2033642.0,2219055.0,2005251.0,1956032.0,1802617.0,2145663.0,1701970.0,1538163.0,1908702.0,1619222.0,1521779.0,1859281.4545454546
0.3125,2034788.0,2220183.0,2003805.0,1960812.0,1805030.0,2145448.0,1703322.0,1538014.0,1908971.0,1618622.0,1521404.0,1860036.2727272727
0.328125,2035677.0,2222029.0,2001273.0,1950963.0,1807259.0,2144854.0,1705025.0,1538314.0,1909499.0,1619514.0,1521088.0,1859590.4545454546
0.34375,2037047.0,2224051.0,1997599.0,1947350.0,1809540.0,2144085.0,1705911.0,1538369.0,1909258.0,1620846.0,1520925.0,1859543.7272727273
0.359375,2037887.0,2226265.0,1994195.0,1948485.0,1812064.0,2144374.0,1707357.0,1538934.0,1907939.0,1623452.0,1520711.0,1860151.1818181819
0.375,2039192.0,2229448.0,1991228.0,1953379.0,1814403.0,2144490.0,1708918.0,1539295.0,1906831.0,1626108.0,1520508.0,1861254.5454545454
0.390625,2040010.0,2232636.0,1988668.0,1949405.0,1814155.0,2144789.0,1709921.0,1539583.0,1906439.0,1628983.0,1520551.0,1861376.3636363635
0.40625,2035226.0,2235268.0,1986959.0,1945527.0,1809823.0,2145155.0,1711592.0,1540250.0,1905763.0,1631897.0,1520348.0,1860709.8181818181
0.421875,2038227.0,2237705.0,1985997.0,1942081.0,1805844.0,2145824.0,1713116.0,1540727.0,1905583.0,1635031.0,1520069.0,1860927.6363636365
0.4375,2032970.0,2239862.0,1985091.0,1943202.0,1803161.0,2145885.0,1714512.0,1540867.0,1905351.0,1638250.0,1519592.0,1860794.8181818181
0.453125,2031484.0,2242459.0,1984172.0,1941486.0,1801592.0,2146329.0,1715539.0,1541296.0,1905447.0,1638778.0,1517591.0,1860561.1818181819
0.46875,2030230.0,2244852.0,1983367.0,1941197.0,1800651.0,2146879.0,1716092.0,1541409.0,1905392.0,1633233.0,1515779.0,1859916.4545454546
0.484375,2028958.0,2247721.0,1983390.0,1942464.0,1800854.0,2147044.0,1716507.0,1541122.0,1905264.0,1626249.0,1514176.0,1859431.7272727273
0.5,2028302.0,2250595.0,1982991.0,1941824.0,1801612.0,2147703.0,1716418.0,1540541.0,1905589.0,1622207.0,1513152.0,1859175.8181818181
0.515625,2027744.0,2254085.0,1982438.0,1943192.0,1802000.0,2147987.0,1716072.0,1540223.0,1905938.0,1619308.0,1513122.0,1859282.6363636365
0.53125,2027114.0,2257303.0,1983059.0,1943930.0,1802311.0,2148417.0,1715482.0,1539821.0,1906409.0,1617214.0,1513929.0,1859544.4545454546
0.546875,2026555.0,2261069.0,1982705.0,1945858.0,1802123.0,2148683.0,1715096.0,1539636.0,1906741.0,1616658.0,1514958.0,1860007.4545454546
0.5625,2025639.0,2264376.0,1983202.0,1945081.0,1800666.0,2149369.0,1714752.0,1539719.0,1907258.0,1616946.0,1516247.0,1860295.9090909092
0.578125,2025717.0,2268055.0,1983585.0,1948235.0,1798261.0,2149806.0,1714796.0,1539895.0,1907991.0,1616600.0,1516896.0,1860894.2727272727
0.59375,2025760.0,2271092.0,1983787.0,1947079.0,1797225.0,2149883.0,1716144.0,1539938.0,1908602.0,1616676.0,1517623.0,1861255.3636363635
0.609375,2026650.0,2273814.0,1984059.0,1951047.0,1797932.0,2150464.0,1718485.0,1540117.0,1909355.0,1617723.0,1518330.0,1862543.2727272727
0.625,2026754.0,2274734.0,1984437.0,1949619.0,1801750.0,2150787.0,1720612.0,1540564.0,1907674.0,1619592.0,1518926.0,1863222.6363636365
0.640625,2027358.0,2276310.0,1985067.0,1953076.0,1804625.0,2151004.0,1722104.0,1540954.0,1909863.0,1622267.0,1519171.0,1864709.0
0.65625,2027545.0,2278380.0,1985534.0,1954964.0,1806683.0,2151427.0,1722833.0,1541386.0,1910631.0,1625284.0,1519396.0,1865823.9090909092
0.671875,2026283.0,2280504.0,1986296.0,1957056.0,1809443.0,2151804.0,1722903.0,1542000.0,1911205.0,1628209.0,1519247.0,1866813.6363636365
0.6875,2025758.0,2282967.0,1985736.0,1959507.0,1815743.0,2151730.0,1722564.0,1542440.0,1911909.0,1630986.0,1519819.0,1868105.3636363635
0.703125,2028279.0,2286051.0,1983658.0,1961873.0,1823765.0,2151326.0,1722117.0,1543649.0,1912557.0,1634036.0,1520104.0,1869765.0
0.71875,2029082.0,2288990.0,1981066.0,1964063.0,1832146.0,2150606.0,1721893.0,1544068.0,1912615.0,1637416.0,1520586.0,1871139.1818181819
0.734375,2029757.0,2291294.0,1978884.0,1966418.0,1838660.0,2149794.0,1721564.0,1543973.0,1911860.0,1639628.0,1519910.0,1871976.5454545454
0.75,2030932.0,2293716.0,1976919.0,1968577.0,1843424.0,2149738.0,1721531.0,1543440.0,1910958.0,1635301.0,1519163.0,1872154.4545454546
0.765625,2031401.0,2295215.0,1975416.0,1970490.0,1849015.0,2149586.0,1721137.0,1542405.0,1911042.0,1628708.0,1518452.0,1872078.8181818181
0.78125,2032111.0,2296399.0,1974741.0,1968199.0,1852215.0,2149814.0,1721005.0,1541314.0,1911020.0,1623705.0,1518096.0,1871692.6363636365
0.796875,2033335.0,2298055.0,1973682.0,1962890.0,1847343.0,2149945.0,1720842.0,1539855.0,1911042.0,1620832.0,1517975.0,1870526.9090909092
0.8125,2034109.0,2300809.0,1972821.0,1958737.0,1844362.0,2150560.0,1720505.0,1538653.0,1911187.0,1618883.0,1517885.0,1869864.6363636365
0.828125,2035412.0,2304265.0,1972073.0,1956667.0,1838527.0,2150572.0,1720455.0,1537330.0,1910887.0,1618408.0,1517953.0,1869322.6363636365
0.84375,2035956.0,2307589.0,1971571.0,1955744.0,1833869.0,2150783.0,1720297.0,1535490.0,1911045.0,1618793.0,1517683.0,1868983.6363636365
0.859375,2034391.0,2310444.0,1971184.0,1955331.0,1836847.0,2150947.0,1720213.0,1532054.0,1911359.0,1618231.0,1517491.0,1868953.8181818181
0.875,2031052.0,2313234.0,1971094.0,1955667.0,1839538.0,2151363.0,1720075.0,1529253.0,1911609.0,1618158.0,1517567.0,1868964.5454545454
0.890625,2028126.0,2315861.0,1971394.0,1955892.0,1839185.0,2151764.0,1719974.0,1527133.0,1912092.0,1618866.0,1517869.0,1868923.2727272727
0.90625,2026544.0,2318619.0,1971534.0,1955357.0,1836438.0,2152330.0,1720156.0,1525986.0,1912663.0,1620489.0,1518087.0,1868927.5454545454
0.921875,2025257.0,2321594.0,1972229.0,1954161.0,1833042.0,2152674.0,1719863.0,1525009.0,1913248.0,1622552.0,1518466.0,1868917.7272727273
0.9375,2023762.0,2324204.0,1972314.0,1953137.0,1833042.0,2153217.0,1719962.0,1524670.0,1914319.0,1625576.0,1519118.0,1869392.8181818181
0.953125,2022541.0,2324834.0,1972800.0,1953030.0,1833604.0,2153703.0,1719982.0,1523932.0,1913774.0,1628593.0,1519725.0,1869683.4545454546
0.96875,2023067.0,2325973.0,1973272.0,1953380.0,1832406.0,2154079.0,1720161.0,1522764.0,1911289.0,1631248.0,1520275.0,1869810.3636363635
0.984375,2021536.0,2326804.0,1973825.0,1954158.0,1831814.0,2154579.0,1720037.0,1522746.0,1914615.0,1634447.0,1520926.0,1870498.8181818181
1.0,2020795.0,2327230.0,1974651.0,1955411.0,1832309.0,2154785.0,1719925.0,1522915.0,1915172.0,1637739.0,1521341.0,1871115.7272727273
1.015625,2020051.0,2327791.0,1975693.0,1956648.0,1831399.0,2155389.0,1719701.0,1522686.0,1915341.0,1641089.0,1521527.0,1871574.0909090908
1.03125,2019458.0,2329110.0,1977004.0,1958249.0,1830264.0,2156737.0,1719758.0,1521902.0,1915412.0,1641702.0,1520513.0,1871828.0909090908
1.046875,2019938.0,2331159.0,1978981.0,1959782.0,1829628.0,2156032.0,1719876.0,1520995.0,1915997.0,1636570.0,1520141.0,1871736.2727272727
1.0625,2019624.0,2333200.0,1979564.0,1961267.0,1829592.0,2155648.0,1719583.0,1520808.0,1916650.0,1631156.0,1519800.0,1871535.6363636365
1.078125,2020336.0,2334787.0,1979814.0,1962881.0,1829372.0,2155474.0,1719900.0,1519897.0,1916156.0,1625334.0,1520037.0,1871271.6363636365
1.09375,2020319.0,2335957.0,1980932.0,1964311.0,1829382.0,2154207.0,1720119.0,1519176.0,1915323.0,1625834.0,1520414.0,1871452.1818181819
1.109375,2020707.0,2337888.0,1980390.0,1966069.0,1829565.0,2156623.0,1720159.0,1518129.0,1916191.0,1626177.0,1520702.0,1872054.5454545454
1.125,2020949.0,2340647.0,1979825.0,1967861.0,1829676.0,2154794.0,1720097.0,1518197.0,1914714.0,1627856.0,1521141.0,1872341.5454545454
1.140625,2021688.0,2343509.0,1980531.0,1969531.0,1830142.0,2154330.0,1720028.0,1518046.0,1914361.0,1626065.0,1521500.0,1872702.8181818181
1.15625,2021907.0,2345972.0,1980578.0,1971508.0,1830556.0,2154546.0,1720220.0,1518410.0,1913999.0,1626068.0,1521667.0,1873221.0
1.171875,2022854.0,2347859.0,1980955.0,1973503.0,1828015.0,2154420.0,1720382.0,1518409.0,1913494.0,1626321.0,1522073.0,1873480.4545454546
1.1875,2023481.0,2349028.0,1981981.0,1975719.0,1821935.0,2154843.0,1720545.0,1518011.0,1912971.0,1627614.0,1522541.0,1873515.3636363635
1.203125,2025092.0,2350424.0,1983658.0,1977789.0,1815608.0,2155098.0,1720639.0,1515329.0,1913265.0,1629795.0,1522786.0,1873589.3636363635
1.21875,2024036.0,2351414.0,1986432.0,1976874.0,1810954.0,2155769.0,1721012.0,1512639.0,1912373.0,1632421.0,1523149.0,1873370.2727272727
1.234375,2019786.0,2352672.0,1986769.0,1972789.0,1808394.0,2155670.0,1721062.0,1510938.0,1912700.0,1635589.0,1523888.0,1872750.6363636365
1.25,2025800.0,2353959.0,1985608.0,1968968.0,1805828.0,2156713.0,1721105.0,1510915.0,1912506.0,1638796.0,1524484.0,1873152.9090909092
1.265625,2026584.0,2354157.0,1984926.0,1966855.0,1804641.0,2156242.0,1721217.0,1511524.0,1912905.0,1641946.0,1525027.0,1873274.9090909092
1.28125,2027535.0,2354236.0,1983941.0,1966087.0,1803575.0,2157157.0,1721607.0,1510619.0,1913054.0,1645189.0,1525656.0,1873514.1818181819
1.296875,2027970.0,2354585.0,1982725.0,1966175.0,1802494.0,2157651.0,1721204.0,1509767.0,1913286.0,1651518.0,1526224.0,1873963.5454545454
1.3125,2025813.0,2355207.0,1984218.0,1966608.0,1801376.0,2158007.0,1721037.0,1508499.0,1913566.0,1649012.0,1525685.0,1873548.0
1.328125,2023057.0,2356520.0,1985299.0,1967352.0,1799848.0,2158970.0,1721295.0,1507270.0,1913956.0,1643024.0,1525110.0,1872881.9090909092
1.34375,2020476.0,2358443.0,1986261.0,1967770.0,1798354.0,2158769.0,1720734.0,1506515.0,1913786.0,1638270.0,1524473.0,1872168.2727272727
1.359375,2018755.0,2361581.0,1986509.0,1967292.0,1797489.0,2159410.0,1720309.0,1505755.0,1914653.0,1635775.0,1524126.0,1871968.5454545454
1.375,2017973.0,2365265.0,1987240.0,1966876.0,1796774.0,2160013.0,1720526.0,1504905.0,1914827.0,1634060.0,1524128.0,1872053.3636363635
1.390625,2017069.0,2367501.0,1987022.0,1967203.0,1797363.0,2160527.0,1720035.0,1503809.0,1915126.0,1634051.0,1524479.0,1872198.6363636365
1.40625,2016656.0,2367872.0,1985275.0,1967894.0,1797902.0,2160926.0,1719750.0,1502982.0,1915476.0,1633908.0,1524636.0,1872116.0909090908
1.421875,2016017.0,2367570.0,1982977.0,1969097.0,1798708.0,2161468.0,1719173.0,1502550.0,1916533.0,1633680.0,1524906.0,1872061.7272727273
1.4375,2015226.0,2368378.0,1981183.0,1970498.0,1799650.0,2161738.0,1719379.0,1502914.0,1917187.0,1633347.0,1525160.0,1872241.8181818181
1.453125,2014372.0,2370111.0,1979109.0,1972290.0,1800250.0,2161986.0,1718781.0,1502953.0,1916211.0,1633675.0,1525404.0,1872285.6363636365
1.46875,2013920.0,2373203.0,1978214.0,1973894.0,1800574.0,2162804.0,1719008.0,1503217.0,1916954.0,1634844.0,1525893.0,1872956.8181818181
1.484375,2013478.0,2376136.0,1977151.0,1975456.0,1801342.0,2163022.0,1718327.0,1502470.0,1916061.0,1637099.0,1526550.0,1873372.0
1.5,2013722.0,2376983.0,1976510.0,1977265.0,1802110.0,2163260.0,1718098.0,1502001.0,1916627.0,1640184.0,1527104.0,1873987.6363636365
1.515625,2014064.0,2377498.0,1975774.0,1978727.0,1802222.0,2163066.0,1717908.0,1500688.0,1916145.0,1643005.0,1527810.0,1874264.2727272727
1.53125,2014103.0,2378272.0,1974860.0,1980327.0,1797699.0,2161638.0,1717610.0,1499464.0,1916054.0,1646021.0,1528450.0,1874045.2727272727
1.546875,2014408.0,2380124.0,1972966.0,1982626.0,1792353.0,2160563.0,1718550.0,1498244.0,1915999.0,1649070.0,1529068.0,1873997.3636363635
1.5625,2014837.0,2380726.0,1971369.0,1984470.0,1787604.0,2160221.0,1718389.0,1497204.0,1916172.0,1652294.0,1529811.0,1873917.9090909092
1.578125,2015167.0,2380575.0,1969660.0,1986444.0,1784795.0,2159733.0,1717437.0,1496472.0,1916160.0,1655881.0,1530306.0,1873875.4545454546
1.59375,2015912.0,2380598.0,1967422.0,1988443.0,1782724.0,2159834.0,1717202.0,1496048.0,1916150.0,1657543.0,1530478.0,1873850.3636363635
1.609375,2016531.0,2381007.0,1965929.0,1990410.0,1781134.0,2159877.0,1716547.0,1495644.0,1916456.0,1653158.0,1529829.0,1873320.1818181819
1.625,2016838.0,2381673.0,1964204.0,1992487.0,1779633.0,2160225.0,1714963.0,1495380.0,1916185.0,1646524.0,1529089.0,1872472.8181818181
1.640625,2017848.0,2382491.0,1962411.0,1994658.0,1780458.0,2160375.0,1713800.0,1495181.0,1916232.0,1641964.0,1528114.0,1872139.2727272727
1.65625,2018585.0,2383342.0,1961813.0,1996689.0,1778733.0,2160942.0,1715808.0,1495301.0,1915903.0,1638863.0,1527816.0,1872163.1818181819
1.671875,2019251.0,2384211.0,1960754.0,1996492.0,1778310.0,2161198.0,1712988.0,1495199.0,1916647.0,1636692.0,1527681.0,1871765.7272727273
1.6875,2020286.0,2388264.0,1959728.0,1992583.0,1778375.0,2161538.0,1712173.0,1494910.0,1917180.0,1636190.0,1528090.0,1871756.0909090908
1.703125,2021161.0,2392868.0,1959040.0,1988418.0,1778776.0,2162395.0,1711298.0,1494910.0,1916853.0,1635969.0,1528264.0,1871813.8181818181
1.71875,2021945.0,2395301.0,1958021.0,1985937.0,1778955.0,2162638.0,1710440.0,1494788.0,1917647.0,1635376.0,1527984.0,1871730.1818181819
1.734375,2020068.0,2394527.0,1956197.0,1985060.0,1779806.0,2162911.0,1709769.0,1494268.0,1917318.0,1635387.0,1528161.0,1871224.7272727273
1.75,2016432.0,2394991.0,1953194.0,1984374.0,1780591.0,2163468.0,1709164.0,1493660.0,1918168.0,1635910.0,1528185.0,1870739.7272727273
1.765625,2013318.0,2395203.0,1947893.0,1984402.0,1780963.0,2163674.0,1708477.0,1492828.0,1918575.0,1637526.0,1528156.0,1870092.2727272727
1.78125,2011167.0,2395164.0,1941831.0,1984824.0,1781769.0,2164025.0,1707996.0,1491459.0,1919353.0,1639813.0,1528603.0,1869636.7272727273
1.796875,2009930.0,2395750.0,1936123.0,1984602.0,1782901.0,2164240.0,1707610.0,1490641.0,1919946.0,1642424.0,1528982.0,1869377.1818181819
1.8125,2008286.0,2395023.0,1931144.0,1983811.0,1783831.0,2164565.0,1707147.0,1490092.0,1920371.0,1645422.0,1529401.0,1869008.4545454546
1.828125,2007665.0,2393783.0,1926936.0,1983004.0,1785405.0,2164920.0,1706609.0,1489412.0,1920063.0,1648469.0,1529532.0,1868708.9090909092
1.84375,2006674.0,2390763.0,1923107.0,1982543.0,1787122.0,2165453.0,1706097.0,1489140.0,1919278.0,1651106.0,1529980.0,1868296.6363636365
1.859375,2005661.0,2379420.0,1919348.0,1982649.0,1788515.0,2165672.0,1705529.0,1488401.0,1918752.0,1654292.0,1530516.0,1867159.5454545454
1.875,2004783.0,2365775.0,1914874.0,1983184.0,1787036.0,2166163.0,1705134.0,1487975.0,1918446.0,1657549.0,1530923.0,1865622.0
1.890625,2003559.0,2351844.0,1909873.0,1984077.0,1782129.0,2166491.0,1704845.0,1487712.0,1918823.0,1660437.0,1531244.0,1863730.3636363635
1.90625,2003431.0,2350401.0,1905912.0,1985128.0,1777089.0,2166879.0,1704381.0,1487502.0,1918129.0,1648520.0,1531162.0,1861684.9090909092
1.921875,2003006.0,2352011.0,1902779.0,1986026.0,1773939.0,2167183.0,1703113.0,1487444.0,1918234.0,1656961.0,1530186.0,1861898.3636363635
1.9375,2003146.0,2353413.0,1900284.0,1987119.0,1771597.0,2167720.0,1701871.0,1487546.0,1918005.0,1650282.0,1529597.0,1860961.8181818181
1.953125,2003063.0,2353653.0,1898243.0,1988134.0,1769709.0,2167996.0,1700226.0,1487742.0,1917788.0,1638248.0,1528996.0,1859436.1818181819
1.96875,2003340.0,2352377.0,1896030.0,1989079.0,1768801.0,2167875.0,1698904.0,1487764.0,1917923.0,1638078.0,1528699.0,1858988.1818181819
1.984375,2003807.0,2361549.0,1894959.0,1990272.0,1768552.0,2166577.0,1697480.0,1487211.0,1918158.0,1645185.0,1528723.0,1860224.8181818181
2.0,2003825.0,2362464.0,1893340.0,1991289.0,1767972.0,2165178.0,1696367.0,1485735.0,1918266.0,1637067.0,1529001.0,1859136.7272727273
2.015625,2004498.0,2363798.0,1892362.0,1992609.0,1767582.0,2164165.0,1695239.0,1484270.0,1918574.0,1642028.0,1529039.0,1859469.4545454546
2.03125,2004530.0,2365056.0,1891565.0,1994188.0,1767520.0,2163759.0,1694350.0,1483067.0,1918913.0,1639413.0,1528795.0,1859196.0
2.046875,2005105.0,2363149.0,1890749.0,1995455.0,1767943.0,2163339.0,1693188.0,1482251.0,1919709.0,1637532.0,1528628.0,1858822.5454545454
2.0625,2005570.0,2360195.0,1887977.0,1997003.0,1769356.0,2163302.0,1692063.0,1481731.0,1919347.0,1637433.0,1528998.0,1858452.2727272727
2.078125,2006313.0,2365743.0,1883416.0,1998672.0,1770535.0,2163763.0,1691291.0,1481666.0,1920214.0,1638825.0,1529105.0,1859049.3636363635
2.09375,2007184.0,2382967.0,1878894.0,2000143.0,1772174.0,2163532.0,1690459.0,1481635.0,1920585.0,1643446.0,1529200.0,1860929.0
2.109375,2008150.0,2389129.0,1875058.0,2001845.0,1773558.0,2163808.0,1689983.0,1481819.0,1921178.0,1649229.0,1529711.0,1862133.4545454546
2.125,2008962.0,2390642.0,1871727.0,2002029.0,1775065.0,2164152.0,1689346.0,1482308.0,1921786.0,1640938.0,1530066.0,1861547.3636363635
2.140625,2010137.0,2393482.0,1869493.0,1998079.0,1776968.0,2164354.0,1688939.0,1482599.0,1922563.0,1646226.0,1530305.0,1862104.0909090908
2.15625,2010913.0,2395939.0,1867536.0,1993267.0,1779166.0,2164828.0,1688090.0,1483182.0,1923137.0,1652343.0,1530776.0,1862652.4545454546
2.171875,2009580.0,2395684.0,1865436.0,1990154.0,1781801.0,2165244.0,1687671.0,1483385.0,1923682.0,1655214.0,1530968.0,1862619.9090909092
2.1875,2005628.0,2397379.0,1863268.0,1988581.0,1784280.0,2165839.0,1687224.0,1483861.0,1924070.0,1658592.0,1531377.0,1862736.2727272727
2.203125,2001899.0,2399319.0,1861179.0,1987648.0,1786728.0,2166283.0,1686986.0,1484262.0,1923597.0,1661944.0,1531144.0,1862817.1818181819
2.21875,1999030.0,2401332.0,1859131.0,1987204.0,1788702.0,2166436.0,1686538.0,1484765.0,1923292.0,1656921.0,1530293.0,1862149.4545454546
2.234375,1996902.0,2403731.0,1857803.0,1987523.0,1786804.0,2167036.0,1685848.0,1484662.0,1923352.0,1647176.0,1529485.0,1860938.3636363635
2.25,1995324.0,2405489.0,1856998.0,1987297.0,1783921.0,2167133.0,1684616.0,1484311.0,1923131.0,1662658.0,1529016.0,1861808.5454545454
2.265625,1993893.0,2406083.0,1856108.0,1986224.0,1782164.0,2167718.0,1682955.0,1483636.0,1923019.0,1644819.0,1528634.0,1859568.4545454546
2.28125,1992966.0,2405812.0,1855081.0,1985643.0,1781438.0,2168157.0,1681107.0,1482870.0,1922985.0,1642959.0,1528665.0,1858880.2727272727
2.296875,1992107.0,2405423.0,1854728.0,1985182.0,1781230.0,2168603.0,1679664.0,1482402.0,1922870.0,1651363.0,1528749.0,1859301.9090909092
2.3125,1990881.0,2404372.0,1854655.0,1985759.0,1781144.0,2169216.0,1678472.0,1482022.0,1923081.0,1642524.0,1528864.0,1858271.8181818181
2.328125,1989586.0,2402718.0,1854298.0,1986710.0,1782394.0,2169711.0,1677349.0,1481799.0,1923047.0,1641638.0,1528914.0,1858014.9090909092
2.34375,1989054.0,2399658.0,1851153.0,1987896.0,1783784.0,2170104.0,1676297.0,1481988.0,1922855.0,1642323.0,1528581.0,1857608.4545454546
2.359375,1988612.0,2395812.0,1846703.0,1989547.0,1784783.0,2170554.0,1675219.0,1482055.0,1923322.0,1641558.0,1528794.0,1856996.2727272727
2.375,1988210.0,2390978.0,1842329.0,1991159.0,1785432.0,2171136.0,1674470.0,1482292.0,1923650.0,1642014.0,1529099.0,1856433.5454545454
2.390625,1988423.0,2385954.0,1838668.0,1992651.0,1786584.0,2171164.0,1673568.0,1482386.0,1923153.0,1643629.0,1529467.0,1855967.9090909092
2.40625,1988634.0,2381641.0,1835280.0,1994126.0,1787854.0,2169942.0,1673038.0,1482571.0,1923796.0,1645797.0,1529829.0,1855682.5454545454
2.421875,1988713.0,2378171.0,1832577.0,1995334.0,1789143.0,2168327.0,1672648.0,1483175.0,1924997.0,1648315.0,1530012.0,1855582.9090909092
2.4375,1989189.0,2375549.0,1830966.0,1995774.0,1791487.0,2167366.0,1672132.0,1483688.0,1925108.0,1650952.0,1530677.0,1855717.0909090908
2.453125,1989414.0,2373005.0,1829009.0,1995175.0,1793626.0,2166670.0,1671755.0,1483777.0,1924151.0,1653907.0,1530930.0,1855583.5454545454
2.46875,1989600.0,2370551.0,1826914.0,1994168.0,1796109.0,2166113.0,1671595.0,1484427.0,1925613.0,1656728.0,1531336.0,1855741.2727272727
2.484375,1990434.0,2367864.0,1824943.0,1992674.0,1798534.0,2165988.0,1671161.0,1484717.0,1925893.0,1659474.0,1531631.0,1855755.7272727273
2.5,1990891.0,2365055.0,1823559.0,1990887.0,1800399.0,2166145.0,1670976.0,1485531.0,1926252.0,1662563.0,1531099.0,1855759.7272727273
2.515625,1991649.0,2361916.0,1822539.0,1989534.0,1802693.0,2166307.0,1671092.0,1485538.0,1926677.0,1666252.0,1530023.0,1855838.1818181819
2.53125,1992454.0,2358918.0,1821837.0,1988423.0,1805373.0,2166449.0,1671009.0,1485566.0,1926430.0,1667238.0,1528978.0,1855697.7272727273
2.546875,1993023.0,2356623.0,1821554.0,1987084.0,1807597.0,2166571.0,1671194.0,1485106.0,1925646.0,1662236.0,1528315.0,1854995.3636363635
2.5625,1994202.0,2354498.0,1821186.0,1985849.0,1810201.0,2166886.0,1671179.0,1484508.0,1925519.0,1656402.0,1527710.0,1854376.3636363635
2.578125,1995184.0,2350883.0,1821009.0,1984438.0,1811669.0,2167103.0,1670550.0,1483870.0,1925005.0,1652331.0,1527553.0,1853599.5454545454
2.59375,1996125.0,2344406.0,1820932.0,1979087.0,1810675.0,2167857.0,1669469.0,1483730.0,1924780.0,1649908.0,1527561.0,1852230.0
2.609375,1996914.0,2336388.0,1821078.0,1971160.0,1809430.0,2168326.0,1668126.0,1483471.0,1924548.0,1648403.0,1527566.0,1850491.8181818181
2.625,1995638.0,2328324.0,1821109.0,1963147.0,1809427.0,2169155.0,1667067.0,1483489.0,1924572.0,1647994.0,1527179.0,1848827.3636363635
2.640625,1992255.0,2321165.0,1818205.0,1956362.0,1810139.0,2169316.0,1666222.0,1483600.0,1924402.0,1648184.0,1527031.0,1846989.1818181819
2.65625,1988468.0,2315223.0,1813401.0,1950811.0,1810739.0,2169946.0,1665784.0,1484058.0,1924318.0,1647358.0,1526980.0,1845189.6363636365
2.671875,1986010.0,2310912.0,1808417.0,1945354.0,1812167.0,2170364.0,1665659.0,1484029.0,1924589.0,1646568.0,1526945.0,1843728.5454545454
2.6875,1984447.0,2306826.0,1804105.0,1940697.0,1814379.0,2170722.0,1665167.0,1484687.0,1924299.0,1647404.0,1526860.0,1842690.2727272727
2.703125,1983369.0,2303131.0,1799840.0,1936395.0,1815795.0,2171551.0,1665040.0,1484921.0,1924188.0,1648701.0,1527266.0,1841836.0909090908
2.71875,1982585.0,2299011.0,1796089.0,1931484.0,1816618.0,2171924.0,1665001.0,1485492.0,1924154.0,1650504.0,1527405.0,1840933.3636363635
2.734375,1982202.0,2294567.0,1793358.0,1925849.0,1817742.0,2172392.0,1665113.0,1485681.0,1924557.0,1653163.0,1527682.0,1840209.6363636365
2.75,1981106.0,2289760.0,1791489.0,1919974.0,1819266.0,2172999.0,1665390.0,1486007.0,1924661.0,1655759.0,1527793.0,1839473.0909090908
2.765625,1980132.0,2285458.0,1789792.0,1914957.0,1821923.0,2173658.0,1665709.0,1486507.0,1924299.0,1658245.0,1527975.0,1838968.6363636365
2.78125,1979382.0,2281472.0,1788230.0,1910863.0,1827979.0,2173938.0,1666172.0,1486963.0,1924069.0,1660997.0,1528344.0,1838946.2727272727
2.796875,1978580.0,2278015.0,1786908.0,1907566.0,1836298.0,2174390.0,1666521.0,1487486.0,1924652.0,1663711.0,1527418.0,1839231.3636363635
2.8125,1978715.0,2274694.0,1786275.0,1904813.0,1844113.0,2174995.0,1667051.0,1487647.0,1925006.0,1666754.0,1526112.0,1839652.2727272727
2.828125,1978446.0,2270573.0,1786049.0,1902324.0,1851451.0,2175415.0,1667274.0,1487280.0,1925055.0,1668890.0,1525275.0,1839821.0909090908
2.84375,1978832.0,2264130.0,1785851.0,1899816.0,1879735.0,2175997.0,1667740.0,1487095.0,1925413.0,1665789.0,1524559.0,1841359.7272727273
2.859375,1979224.0,2255668.0,1785983.0,1897384.0,1868525.0,2174859.0,1668019.0,1487003.0,1926025.0,1659751.0,1524082.0,1838774.8181818181
2.875,1979564.0,2246304.0,1786333.0,1895002.0,1893070.0,2173545.0,1668811.0,1486956.0,1925751.0,1655653.0,1524157.0,1839558.7272727273
2.890625,1979972.0,2237941.0,1786846.0,1890597.0,1908359.0,2172006.0,1668826.0,1486749.0,1926927.0,1653415.0,1523749.0,1839580.6363636365
2.90625,1980403.0,2230928.0,1787230.0,1892748.0,1859199.0,2171232.0,1668316.0,1487177.0,1926527.0,1652246.0,1523599.0,1834509.5454545454
2.921875,1980939.0,2225322.0,1787863.0,1888911.0,1923200.0,2170686.0,1667549.0,1487214.0,1927314.0,1652669.0,1523276.0,1839540.2727272727
2.9375,1981718.0,2220735.0,1785906.0,1887422.0,1942323.0,2170469.0,1667316.0,1487466.0,1926116.0,1652558.0,1523071.0,1840463.6363636365
2.953125,1982278.0,2216614.0,1781704.0,1885063.0,1966042.0,2170035.0,1667137.0,1487828.0,1925241.0,1652516.0,1522934.0,1841581.0909090908
2.96875,1983266.0,2212529.0,1777405.0,1886225.0,1995644.0,2170224.0,1667057.0,1488320.0,1924740.0,1652132.0,1522735.0,1843661.5454545454
2.984375,1984294.0,2208547.0,1773847.0,1884251.0,1813310.0,2170420.0,1667308.0,1488865.0,1927368.0,1652739.0,1522962.0,1826719.1818181819
3.0,1985429.0,2204160.0,1770373.0,1883425.0,2026395.0,2170547.0,1667478.0,1489233.0,1924318.0,1654268.0,1523020.0,1845331.4545454546
3.015625,1986446.0,2200658.0,1767394.0,1882836.0,2048845.0,2170670.0,1667899.0,1489653.0,1924007.0,1656121.0,1523053.0,1847052.9090909092
3.03125,1987619.0,2196952.0,1765722.0,1882085.0,2064018.0,2171550.0,1668207.0,1489910.0,1923629.0,1659030.0,1523041.0,1848342.0909090908
3.046875,1988966.0,2194166.0,1764586.0,1881713.0,2061092.0,2171842.0,1668523.0,1488068.0,1923319.0,1662081.0,1523373.0,1847975.3636363635
3.0625,1988878.0,2191199.0,1763371.0,1871490.0,2038435.0,2172647.0,1669084.0,1490654.0,1922834.0,1665773.0,1523461.0,1845256.9090909092
3.078125,1985711.0,2189208.0,1762410.0,1849180.0,2015578.0,2173124.0,1669746.0,1490814.0,1922418.0,1669374.0,1523476.0,1841003.5454545454
3.09375,1982136.0,2186857.0,1761718.0,1844578.0,2003481.0,2173463.0,1670506.0,1491350.0,1922085.0,1672321.0,1522709.0,1839200.3636363635
3.109375,1980242.0,2184389.0,1761570.0,1862893.0,1997373.0,2174045.0,1671127.0,1491275.0,1922115.0,1674703.0,1521461.0,1840108.4545454546
3.125,1978404.0,2181489.0,1761836.0,1878821.0,1993733.0,2174452.0,1671758.0,1491596.0,1921822.0,1675211.0,1520590.0,1840882.9090909092
3.140625,1977690.0,2174899.0,1762111.0,1840737.0,1993287.0,2175181.0,1672562.0,1491404.0,1921965.0,1669605.0,1519721.0,1836287.4545454546
3.15625,1977081.0,2165993.0,1762661.0,1855177.0,1994729.0,2175940.0,1673154.0,1491710.0,1921895.0,1662191.0,1519290.0,1836347.3636363635
3.171875,1976891.0,2156854.0,1763423.0,1837758.0,1995832.0,2176254.0,1673890.0,1491740.0,1921612.0,1656768.0,1519185.0,1833655.1818181819
3.1875,1976381.0,2149698.0,1764247.0,1834367.0,1996388.0,2176702.0,1674367.0,1491703.0,1921827.0,1652809.0,1519028.0,1832501.5454545454
3.203125,1976033.0,2143879.0,1765129.0,1830590.0,1996910.0,2177492.0,1674288.0,1491994.0,1921756.0,1649156.0,1518581.0,1831437.0909090908
3.21875,1975287.0,2139480.0,1766426.0,1826270.0,1997060.0,2177912.0,1674151.0,1492480.0,1921777.0,1645836.0,1518295.0,1830452.1818181819
3.234375,1974891.0,2136180.0,1767603.0,1822901.0,1997086.0,2178163.0,1673900.0,1492564.0,1921729.0,1634161.0,1518009.0,1828835.1818181819
3.25,1975244.0,2132947.0,1769336.0,1820652.0,1997039.0,2178761.0,1674021.0,1493344.0,1921954.0,1635295.0,1518057.0,1828786.3636363635
3.265625,1975615.0,2129867.0,1769868.0,1818291.0,1992583.0,2179242.0,1674344.0,1493536.0,1921582.0,1638935.0,1518139.0,1828363.8181818181
3.28125,1976160.0,2126644.0,1767929.0,1819124.0,1987223.0,2179828.0,1674570.0,1494052.0,1920944.0,1643480.0,1518352.0,1828027.8181818181
3.296875,1976963.0,2123370.0,1765086.0,1817721.0,1982081.0,2180287.0,1675061.0,1494245.0,1919665.0,1652707.0,1518327.0,1827773.9090909092
3.3125,1977567.0,2120427.0,1763246.0,1817707.0,1978165.0,2180700.0,1675535.0,1494471.0,1919151.0,1660964.0,1518474.0,1827855.1818181819
3.328125,1978254.0,2117728.0,1761982.0,1818059.0,1996916.0,2179835.0,1676138.0,1495094.0,1917891.0,1644174.0,1518816.0,1827717.0
3.34375,1979347.0,2115518.0,1761321.0,1817704.0,1997655.0,2178519.0,1676707.0,1495553.0,1918593.0,1669391.0,1519205.0,1829955.7272727273
3.359375,1980287.0,2113416.0,1761432.0,1817919.0,1965636.0,2176887.0,1677386.0,1495423.0,1917502.0,1674444.0,1519147.0,1827225.3636363635
3.375,1980942.0,2111849.0,1761929.0,1818225.0,1968552.0,2176121.0,1678076.0,1495868.0,1917365.0,1677764.0,1518709.0,1827763.6363636365
3.390625,1982102.0,2110299.0,1762354.0,1818779.0,1963053.0,2176044.0,1678989.0,1495745.0,1917031.0,1680007.0,1517299.0,1827427.4545454546
3.40625,1983421.0,2108958.0,1762698.0,1819407.0,1960351.0,2175827.0,1679581.0,1496177.0,1916681.0,1681875.0,1516382.0,1827396.1818181819
3.421875,1984541.0,2107635.0,1763519.0,1820358.0,1958451.0,2176052.0,1680217.0,1496070.0,1916559.0,1681907.0,1515881.0,1827380.9090909092
3.4375,1985853.0,2106294.0,1764625.0,1821823.0,1971108.0,2176163.0,1680799.0,1496402.0,1916544.0,1666474.0,1515505.0,1827417.2727272727
3.453125,1987106.0,2102319.0,1765883.0,1823379.0,1956566.0,2176170.0,1681385.0,1496619.0,1917346.0,1659364.0,1515535.0,1825606.5454545454
3.46875,1988202.0,2095132.0,1767259.0,1824097.0,1954871.0,2176342.0,1681567.0,1496738.0,1916872.0,1654146.0,1515307.0,1824593.9090909092
3.484375,1989501.0,2087698.0,1768757.0,1821599.0,1974774.0,2176394.0,1681677.0,1496932.0,1918053.0,1649318.0,1515255.0,1825450.7272727273
3.5,1990885.0,2081412.0,1770543.0,1817408.0,1953152.0,2176496.0,1681627.0,1497578.0,1918493.0,1646112.0,1515157.0,1822623.9090909092
3.515625,1991537.0,2076338.0,1772734.0,1813972.0,1951677.0,2177272.0,1681490.0,1497643.0,1918682.0,1644103.0,1514886.0,1821848.5454545454
3.53125,1989058.0,2073032.0,1774496.0,1812036.0,1949966.0,2177641.0,1681788.0,1497972.0,1919237.0,1642164.0,1515190.0,1821143.6363636365
3.546875,1985424.0,2070574.0,1776437.0,1811107.0,1948849.0,2178075.0,1681870.0,1498287.0,1919633.0,1639831.0,1515230.0,1820483.3636363635
3.5625,1982205.0,2069160.0,1778611.0,1811313.0,1947900.0,2178707.0,1682183.0,1498857.0,1919936.0,1638511.0,1515207.0,1820235.4545454546
3.578125,1980524.0,2067712.0,1780673.0,1812170.0,1946886.0,2179240.0,1682612.0,1499170.0,1919264.0,1674962.0,1515804.0,1823547.0
3.59375,1979146.0,2066051.0,1781230.0,1812847.0,1944826.0,2179538.0,1682950.0,1499661.0,1918456.0,1638553.0,1516041.0,1819936.2727272727
3.609375,1978240.0,2064548.0,1779405.0,1812872.0,1945902.0,2180142.0,1683386.0,1500073.0,1917195.0,1640835.0,1516213.0,1819891.9090909092
3.625,1977621.0,2062940.0,1778017.0,1813031.0,1944084.0,2180945.0,1683913.0,1500690.0,1917606.0,1639345.0,1516452.0,1819513.0909090908
3.640625,1977273.0,2061624.0,1776534.0,1813889.0,1942326.0,2181086.0,1684398.0,1501030.0,1917845.0,1642197.0,1515990.0,1819472.0
3.65625,1976501.0,2060850.0,1775372.0,1815180.0,1927945.0,2181752.0,1685049.0,1500517.0,1917341.0,1643856.0,1514680.0,1818094.8181818181
3.671875,1975581.0,2060585.0,1774314.0,1816837.0,1936195.0,2182320.0,1685716.0,1500891.0,1916988.0,1645987.0,1513878.0,1819026.5454545454
3.6875,1975479.0,2059789.0,1774302.0,1819018.0,1919916.0,2182832.0,1686395.0,1501186.0,1915737.0,1647679.0,1513328.0,1817787.3636363635
3.703125,1974997.0,2059506.0,1774525.0,1821057.0,1913570.0,2183197.0,1687154.0,1501200.0,1915392.0,1650020.0,1512883.0,1817591.0
3.71875,1975222.0,2059402.0,1774985.0,1812868.0,1902066.0,2183957.0,1687664.0,1501085.0,1915158.0,1651266.0,1513045.0,1816065.2727272727
3.734375,1975639.0,2059266.0,1775511.0,1823327.0,1898164.0,2184342.0,1688244.0,1501526.0,1914814.0,1646301.0,1513223.0,1816396.0909090908
3.75,1976302.0,2058959.0,1776232.0,1825511.0,1907573.0,2183866.0,1688465.0,1501981.0,1916108.0,1638639.0,1513051.0,1816971.5454545454
3.765625,1976819.0,2058861.0,1777464.0,1827900.0,1943701.0,2182619.0,1688641.0,1502912.0,1914798.0,1633078.0,1512905.0,1819972.5454545454
3.78125,1977455.0,2056642.0,1778912.0,1830029.0,1894237.0,2181397.0,1688540.0,1502670.0,1914973.0,1629048.0,1512963.0,1815169.6363636365
3.796875,1977989.0,2051862.0,1780591.0,1832196.0,1890466.0,2180518.0,1688548.0,1502139.0,1914713.0,1625718.0,1513235.0,1814361.3636363635
3.8125,1978938.0,2046188.0,1782569.0,1834502.0,1886271.0,2180375.0,1688537.0,1503659.0,1914830.0,1623409.0,1513641.0,1813901.7272727273
3.828125,1979989.0,2041420.0,1784621.0,1837363.0,1883437.0,2180173.0,1688829.0,1503845.0,1914976.0,1622001.0,1514018.0,1813697.4545454546
3.84375,1980542.0,2038005.0,1786801.0,1840044.0,1880601.0,2180539.0,1689103.0,1504227.0,1915590.0,1620332.0,1514322.0,1813646.0
3.859375,1981779.0,2035571.0,1789268.0,1841409.0,1878548.0,2180858.0,1689428.0,1503313.0,1915351.0,1618351.0,1514999.0,1813534.0909090908
3.875,1982963.0,2034687.0,1791509.0,1839969.0,1876622.0,2181034.0,1689687.0,1504886.0,1916128.0,1617412.0,1515449.0,1813667.8181818181
3.890625,1984005.0,2033949.0,1794094.0,1838193.0,1875045.0,2181027.0,1690120.0,1502883.0,1916389.0,1616925.0,1515764.0,1813490.3636363635
3.90625,1985149.0,2033475.0,1796360.0,1837306.0,1873679.0,2181464.0,1690448.0,1504966.0,1916919.0,1617337.0,1514990.0,1813826.6363636365
3.921875,1986658.0,2032826.0,1798906.0,1837280.0,1872526.0,2182014.0,1690976.0,1504870.0,1917121.0,1617965.0,1513771.0,1814083.0
3.9375,1987874.0,2032250.0,1800615.0,1837334.0,1871142.0,2182410.0,1691555.0,1504783.0,1917778.0,1618368.0,1512837.0,1814267.8181818181
3.953125,1988916.0,2031646.0,1800002.0,1838485.0,1869950.0,2183156.0,1692063.0,1504589.0,1917812.0,1619014.0,1512254.0,1814353.3636363635
3.96875,1990215.0,2031466.0,1798627.0,1840292.0,1869520.0,2183729.0,1692742.0,1504807.0,1915991.0,1619730.0,1511907.0,1814456.9090909092
3.984375,1991025.0,2032071.0,1797290.0,1842116.0,1868936.0,2184523.0,1693269.0,1504797.0,1917314.0,1620596.0,1512102.0,1814912.6363636365
4.0,1988500.0,2032611.0,1796886.0,1843566.0,1868952.0,2184989.0,1693812.0,1504860.0,1916267.0,1621933.0,1512205.0,1814961.9090909092
4.015625,1985079.0,2033486.0,1796349.0,1846660.0,1868465.0,2185401.0,1694285.0,1504739.0,1915700.0,1622227.0,1512230.0,1814965.5454545454
4.03125,1982015.0,2034364.0,1796545.0,1845026.0,1868789.0,2186256.0,1694971.0,1505000.0,1914867.0,1617209.0,1512093.0,1814285.0
4.046875,1980586.0,2035333.0,1797300.0,1848661.0,1864505.0,2186443.0,1695648.0,1504716.0,1914323.0,1608798.0,1512185.0,1813499.8181818181
4.0625,1979884.0,2036527.0,1798566.0,1850968.0,1855525.0,2187175.0,1695839.0,1504854.0,1914283.0,1602486.0,1512313.0,1812583.6363636365
4.078125,1979107.0,2037784.0,1799525.0,1853124.0,1846307.0,2187508.0,1695879.0,1505263.0,1915347.0,1598488.0,1512801.0,1811921.1818181819
4.09375,1978562.0,2037770.0,1800701.0,1858005.0,1839912.0,2188045.0,1695796.0,1505095.0,1914199.0,1594994.0,1513240.0,1811483.5454545454
4.109375,1978197.0,2035623.0,1802268.0,1862929.0,1834483.0,2188586.0,1695576.0,1505177.0,1913744.0,1593210.0,1513674.0,1811224.2727272727
4.125,1977341.0,2032623.0,1803698.0,1860545.0,1829453.0,2188942.0,1695576.0,1505552.0,1913983.0,1592063.0,1514282.0,1810368.9090909092
4.140625,1976022.0,2030534.0,1805396.0,1855724.0,1825809.0,2189261.0,1695891.0,1505530.0,1913701.0,1590470.0,1514784.0,1809374.7272727273
4.15625,1975826.0,2029053.0,1807389.0,1865314.0,1822342.0,2189815.0,1695905.0,1506041.0,1913717.0,1588700.0,1515325.0,1809947.9090909092
4.171875,1975653.0,2028854.0,1809243.0,1867777.0,1818579.0,2189581.0,1696213.0,1505926.0,1913844.0,1588061.0,1515034.0,1809887.7272727273
4.1875,1975377.0,2029167.0,1811259.0,1870386.0,1814858.0,2188577.0,1696443.0,1505733.0,1914064.0,1589095.0,1514056.0,1809910.4545454546
4.203125,1975579.0,2030313.0,1813398.0,1872888.0,1811625.0,2187188.0,1696690.0,1505476.0,1914463.0,1589882.0,1513305.0,1810073.3636363635
4.21875,1976143.0,2031682.0,1815683.0,1875608.0,1810140.0,2186284.0,1696965.0,1505416.0,1914470.0,1591833.0,1512609.0,1810621.1818181819
4.234375,1976456.0,2032677.0,1819416.0,1878359.0,1808669.0,2185887.0,1697342.0,1505726.0,1914575.0,1593576.0,1512222.0,1811355.0
4.25,1976878.0,2033492.0,1817313.0,1881198.0,1807510.0,2186041.0,1697821.0,1505202.0,1915020.0,1595822.0,1512399.0,1811699.6363636365
4.265625,1977532.0,2034095.0,1821215.0,1883926.0,1806812.0,2185935.0,1698386.0,1504859.0,1915263.0,1597762.0,1512737.0,1812592.9090909092
4.28125,1978036.0,2035271.0,1824917.0,1886146.0,1806189.0,2186143.0,1698866.0,1504958.0,1915445.0,1601935.0,1512687.0,1813690.2727272727
4.296875,1978829.0,2036628.0,1822998.0,1885846.0,1805749.0,2186403.0,1699752.0,1504652.0,1915873.0,1599449.0,1512772.0,1813541.0
4.3125,1979631.0,2037849.0,1825564.0,1884542.0,1805133.0,2186437.0,1700423.0,1504563.0,1916195.0,1599861.0,1512746.0,1813904.0
4.328125,1980467.0,2039335.0,1824350.0,1884300.0,1805225.0,2186519.0,1699409.0,1504667.0,1916580.0,1592657.0,1513059.0,1813324.3636363635
4.34375,1981367.0,2040820.0,1823087.0,1884450.0,1805445.0,2186843.0,1700939.0,1504582.0,1916971.0,1587192.0,1513465.0,1813196.4545454546
4.359375,1982458.0,2042315.0,1822231.0,1884977.0,1805667.0,2186997.0,1701590.0,1504546.0,1917203.0,1583579.0,1513922.0,1813225.9090909092
4.375,1983645.0,2043864.0,1821710.0,1886799.0,1806161.0,2187321.0,1702221.0,1504479.0,1917085.0,1581313.0,1514559.0,1813559.7272727273
4.390625,1984655.0,2045730.0,1821470.0,1888268.0,1806747.0,2187642.0,1702781.0,1504622.0,1915724.0,1580003.0,1514950.0,1813872.0
4.40625,1983645.0,2046856.0,1821916.0,1885776.0,1805226.0,2187977.0,1703307.0,1504711.0,1915104.0,1579315.0,1515582.0,1813583.1818181819
4.421875,1986349.0,2046324.0,1822637.0,1889298.0,1798065.0,2188466.0,1703378.0,1504831.0,1916144.0,1578644.0,1516064.0,1813654.5454545454
4.4375,1987152.0,2044250.0,1823515.0,1890098.0,1790221.0,2188741.0,1703294.0,1504914.0,1914735.0,1577357.0,1516665.0,1812812.9090909092
4.453125,1986592.0,2041980.0,1824547.0,1891019.0,1784384.0,2189625.0,1703430.0,1504740.0,1913942.0,1577156.0,1516748.0,1812196.6363636365
4.46875,1982989.0,2040637.0,1825603.0,1892184.0,1780626.0,2190091.0,1703305.0,1504623.0,1914111.0,1577644.0,1515790.0,1811600.2727272727
4.484375,1979445.0,2040190.0,1827070.0,1893683.0,1777276.0,2190806.0,1703117.0,1504414.0,1913650.0,1578878.0,1515010.0,1811230.8181818181
4.5,1977000.0,2039823.0,1828840.0,1895186.0,1775390.0,2191362.0,1703815.0,1504148.0,1913148.0,1580925.0,1514620.0,1811296.0909090908
4.515625,1975682.0,2040617.0,1830796.0,1896956.0,1773428.0,2192524.0,1703442.0,1503587.0,1913502.0,1582800.0,1514423.0,1811614.2727272727
4.53125,1974623.0,2042079.0,1832873.0,1898937.0,1771480.0,2193656.0,1703843.0,1503553.0,1913105.0,1584834.0,1514449.0,1812130.1818181819
4.546875,1974156.0,2043439.0,1834883.0,1902985.0,1769356.0,2194840.0,1704110.0,1503306.0,1913379.0,1586943.0,1514841.0,1812930.7272727273
4.5625,1973900.0,2044542.0,1837074.0,1904611.0,1768308.0,2195617.0,1704183.0,1503229.0,1913441.0,1588893.0,1515117.0,1813537.7272727273
4.578125,1973226.0,2046069.0,1839211.0,1908277.0,1767360.0,2196137.0,1704556.0,1502946.0,1913738.0,1591127.0,1515134.0,1814343.7272727273
4.59375,1972421.0,2047451.0,1841502.0,1910305.0,1767537.0,2196127.0,1704945.0,1502665.0,1913921.0,1591337.0,1515305.0,1814865.0909090908
4.609375,1971690.0,2048980.0,1843351.0,1912426.0,1768044.0,2194737.0,1705061.0,1502935.0,1914073.0,1585052.0,1515352.0,1814700.0909090908
4.625,1971133.0,2050658.0,1845502.0,1914326.0,1768510.0,2194035.0,1705591.0,1502683.0,1912922.0,1577462.0,1515853.0,1814425.0
4.640625,1971461.0,2052516.0,1847554.0,1916458.0,1769178.0,2193514.0,1705966.0,1502757.0,1914273.0,1572111.0,1516210.0,1814727.0909090908
4.65625,1971574.0,2054238.0,1849746.0,1918539.0,1769810.0,2193439.0,1706540.0,1502731.0,1914695.0,1568475.0,1516852.0,1815149.0
4.671875,1972200.0,2056167.0,1851577.0,1920629.0,1770896.0,2193581.0,1706972.0,1502901.0,1915430.0,1565673.0,1517444.0,1815770.0
4.6875,1972969.0,2058169.0,1851446.0,1900858.0,1771927.0,2193594.0,1706972.0,1503222.0,1916236.0,1564591.0,1517910.0,1814354.0
4.703125,1973603.0,2059845.0,1850601.0,1922777.0,1772763.0,2193475.0,1707370.0,1503034.0,1916712.0,1563126.0,1518373.0,1816516.2727272727
4.71875,1974006.0,2061619.0,1850274.0,1906603.0,1774341.0,2193817.0,1707706.0,1502978.0,1916180.0,1564234.0,1518844.0,1815509.2727272727
4.734375,1974856.0,2063120.0,1850397.0,1924804.0,1776067.0,2194064.0,1708090.0,1503180.0,1915834.0,1563613.0,1519656.0,1817607.3636363635
4.75,1975433.0,2062954.0,1850867.0,1927407.0,1777893.0,2194378.0,1708693.0,1502604.0,1914912.0,1567564.0,1520276.0,1818452.8181818181
4.765625,1976362.0,2061357.0,1851477.0,1926971.0,1779511.0,2194860.0,1709124.0,1501927.0,1915312.0,1564031.0,1520158.0,1818280.9090909092
4.78125,1977403.0,2059946.0,1852383.0,1925441.0,1778776.0,2195172.0,1709070.0,1501687.0,1914632.0,1570118.0,1519572.0,1818563.6363636365
4.796875,1978129.0,2058929.0,1853400.0,1923561.0,1773136.0,2195596.0,1708874.0,1501386.0,1913896.0,1572518.0,1518861.0,1818026.0
4.8125,1979200.0,2058581.0,1854390.0,1922334.0,1766543.0,2196150.0,1708755.0,1501234.0,1913084.0,1574969.0,1518528.0,1817615.2727272727
4.828125,1980497.0,2059044.0,1855661.0,1921408.0,1762170.0,2196584.0,1708408.0,1500761.0,1914313.0,1577007.0,1518417.0,1817660.9090909092
4.84375,1981678.0,2059464.0,1856875.0,1920846.0,1758787.0,2196877.0,1708104.0,1500761.0,1912689.0,1579415.0,1518595.0,1817644.6363636365
4.859375,1983015.0,2060609.0,1858369.0,1920400.0,1756197.0,2197606.0,1707926.0,1500474.0,1912271.0,1582112.0,1518987.0,1817996.9090909092
4.875,1983742.0,2061529.0,1859941.0,1920447.0,1754720.0,2197718.0,1707897.0,1500598.0,1912097.0,1583529.0,1519213.0,1818311.9090909092
4.890625,1985150.0,2062247.0,1861917.0,1920323.0,1753610.0,2198069.0,1707829.0,1500409.0,1911830.0,1565254.0,1519070.0,1816882.5454545454
4.90625,1985470.0,2062722.0,1863744.0,1920404.0,1753061.0,2198566.0,1707767.0,1500167.0,1911657.0,1578252.0,1519458.0,1818297.0909090908
4.921875,1981897.0,2063332.0,1865300.0,1920020.0,1752208.0,2198864.0,1707590.0,1500320.0,1911892.0,1570943.0,1520014.0,1817489.0909090908
4.9375,1976844.0,2063770.0,1867301.0,1919405.0,1751723.0,2199160.0,1707663.0,1500342.0,1911897.0,1565678.0,1520524.0,1816755.1818181819
4.953125,1973600.0,2064250.0,1869007.0,1919711.0,1752169.0,2199508.0,1707751.0,1500494.0,1912051.0,1562634.0,1519637.0,1816437.4545454546
4.96875,1971404.0,2064887.0,1870876.0,1919643.0,1753024.0,2199748.0,1708017.0,1500422.0,1912365.0,1559848.0,1520987.0,1816474.6363636365
4.984375,1969770.0,2065550.0,1872846.0,1919877.0,1753865.0,2199705.0,1708083.0,1500642.0,1912574.0,1558672.0,1521497.0,1816643.7272727273
5.0,1968388.0,2065848.0,1874845.0,1920140.0,1755443.0,2198821.0,1708222.0,1500700.0,1913077.0,1558488.0,1522693.0,1816969.5454545454
5.015625,1967614.0,2067166.0,1876878.0,1920788.0,1756893.0,2197672.0,1708311.0,1500642.0,1913269.0,1557811.0,1523596.0,1817330.9090909092
5.03125,1966604.0,2066508.0,1878393.0,1921240.0,1758064.0,2196785.0,1708502.0,1500461.0,1913550.0,1557076.0,1524488.0,1817424.6363636365
5.046875,1965662.0,2068077.0,1878113.0,1921745.0,1759892.0,2196453.0,1708731.0,1499801.0,1913824.0,1557315.0,1524657.0,1817660.9090909092
5.0625,1964187.0,2067676.0,1877864.0,1922182.0,1761654.0,2196677.0,1708640.0,1499338.0,1914296.0,1558302.0,1523044.0,1817623.6363636365
5.078125,1963187.0,2066948.0,1877834.0,1922872.0,1763665.0,2196746.0,1708877.0,1499127.0,1914756.0,1559904.0,1522232.0,1817831.6363636365
5.09375,1962874.0,2065299.0,1878300.0,1923328.0,1765594.0,2197062.0,1709298.0,1498634.0,1915213.0,1561953.0,1523428.0,1818271.1818181819
5.109375,1962559.0,2063027.0,1878501.0,1924120.0,1767793.0,2197029.0,1709259.0,1498408.0,1915705.0,1564222.0,1523846.0,1818588.0909090908
5.125,1962884.0,2061879.0,1879588.0,1924870.0,1769936.0,2197322.0,1709177.0,1498264.0,1916041.0,1566513.0,1522955.0,1819039.0
5.140625,1963075.0,2061282.0,1880716.0,1927844.0,1772275.0,2197671.0,1708435.0,1498302.0,1916317.0,1570970.0,1522753.0,1819967.2727272727
5.15625,1963300.0,2061383.0,1881715.0,1925826.0,1773125.0,2197941.0,1708096.0,1498163.0,1915573.0,1568748.0,1522879.0,1819704.4545454546
5.171875,1963898.0,2063140.0,1882552.0,1926591.0,1769772.0,2198479.0,1707647.0,1497944.0,1914889.0,1573683.0,1523304.0,1820172.6363636365
5.1875,1964332.0,2062187.0,1883317.0,1930022.0,1764481.0,2198883.0,1707110.0,1497983.0,1914490.0,1575610.0,1523641.0,1820186.9090909092
5.203125,1964760.0,2064150.0,1884733.0,1928726.0,1760553.0,2199488.0,1706836.0,1498030.0,1914176.0,1565116.0,1523737.0,1819118.6363636365
5.21875,1965116.0,2064699.0,1885946.0,1929358.0,1758339.0,2199840.0,1706402.0,1497882.0,1913481.0,1572509.0,1523818.0,1819762.7272727273
5.234375,1965835.0,2065754.0,1887248.0,1930940.0,1756504.0,2200386.0,1706175.0,1497963.0,1913241.0,1560008.0,1523977.0,1818911.9090909092
5.25,1966750.0,2066545.0,1888691.0,1924741.0,1755148.0,2200648.0,1705966.0,1498012.0,1912727.0,1557028.0,1524529.0,1818253.1818181819
5.265625,1967616.0,2067849.0,1890292.0,1920443.0,1754928.0,2200911.0,1705806.0,1498301.0,1912620.0,1554585.0,1525010.0,1818032.8181818181
5.28125,1968815.0,2068725.0,1892114.0,1917428.0,1754881.0,2201525.0,1705681.0,1498069.0,1912199.0,1555308.0,1525289.0,1818184.9090909092
5.296875,1969678.0,2069884.0,1893613.0,1914682.0,1754492.0,2201991.0,1705866.0,1497742.0,1911971.0,1554703.0,1525834.0,1818223.2727272727
5.3125,1970632.0,2071019.0,1895291.0,1912931.0,1754101.0,2202567.0,1705986.0,1497321.0,1911929.0,1553979.0,1526340.0,1818372.3636363635
5.328125,1971490.0,2072475.0,1897145.0,1911679.0,1754567.0,2202933.0,1705867.0,1497008.0,1911941.0,1553297.0,1526935.0,1818667.0
5.34375,1972900.0,2075058.0,1899020.0,1910874.0,1755408.0,2203208.0,1706235.0,1496586.0,1911928.0,1553626.0,1527219.0,1819278.3636363635
5.359375,1973584.0,2073632.0,1900917.0,1909181.0,1756031.0,2203237.0,1706219.0,1496442.0,1912033.0,1554697.0,1527750.0,1819429.3636363635
5.375,1971323.0,2074005.0,1902387.0,1907177.0,1757642.0,2201398.0,1706366.0,1496182.0,1912053.0,1556710.0,1528019.0,1819387.4545454546
5.390625,1966394.0,2074851.0,1902791.0,1905122.0,1759444.0,2200143.0,1706493.0,1496185.0,1911943.0,1559477.0,1528528.0,1819215.5454545454
5.40625,1962128.0,2072556.0,1902046.0,1902071.0,1761085.0,2198771.0,1706935.0,1496165.0,1912187.0,1562258.0,1528093.0,1818572.2727272727
5.421875,1959529.0,2071695.0,1901750.0,1903448.0,1762845.0,2198002.0,1707220.0,1495996.0,1912405.0,1564697.0,1527390.0,1818634.2727272727
5.4375,1958020.0,2071346.0,1901605.0,1901087.0,1764697.0,2197452.0,1707354.0,1496033.0,1912771.0,1567312.0,1526843.0,1818592.7272727273
5.453125,1956886.0,2071091.0,1901875.0,1900551.0,1766460.0,2196978.0,1707123.0,1495915.0,1913203.0,1570275.0,1526341.0,1818790.7272727273
5.46875,1956024.0,2071689.0,1902028.0,1900504.0,1769006.0,2197016.0,1706973.0,1496182.0,1913769.0,1573313.0,1526657.0,1819378.2727272727
5.484375,1955278.0,2072303.0,1902554.0,1900485.0,1771075.0,2197335.0,1706552.0,1496388.0,1913127.0,1574185.0,1526804.0,1819644.1818181819
5.5,1953870.0,2073024.0,1903320.0,1900479.0,1773476.0,2197278.0,1705798.0,1496400.0,1913844.0,1568959.0,1527025.0,1819406.6363636365
5.515625,1951958.0,2074115.0,1904012.0,1900380.0,1776330.0,2197476.0,1704734.0,1496767.0,1913199.0,1563702.0,1527032.0,1819064.0909090908
5.53125,1950843.0,2074782.0,1904577.0,1900593.0,1779082.0,2197870.0,1705334.0,1496731.0,1912188.0,1560416.0,1527102.0,1819047.0909090908
5.546875,1950165.0,2076196.0,1906264.0,1900953.0,1779836.0,2198184.0,1704275.0,1496636.0,1911530.0,1559368.0,1527293.0,1819154.5454545454
5.5625,1950055.0,2075434.0,1907181.0,1901136.0,1776972.0,2198851.0,1703998.0,1496291.0,1912313.0,1558740.0,1527326.0,1818936.0909090908
5.578125,1949781.0,2077143.0,1905368.0,1901730.0,1773083.0,2199265.0,1703770.0,1495681.0,1912614.0,1559575.0,1527709.0,1818701.7272727273
5.59375,1950183.0,2078242.0,1908288.0,1902224.0,1770598.0,2199726.0,1703297.0,1495207.0,1911024.0,1560052.0,1528219.0,1818823.6363636365
5.609375,1950506.0,2079242.0,1910914.0,1903040.0,1769361.0,2200375.0,1703423.0,1494606.0,1910720.0,1560203.0,1528544.0,1819175.8181818181
5.625,1950882.0,2082161.0,1912272.0,1903994.0,1768360.0,2201017.0,1703282.0,1494270.0,1910359.0,1560556.0,1529028.0,1819652.8181818181
5.640625,1951069.0,2081089.0,1913350.0,1904939.0,1768388.0,2201673.0,1703189.0,1494150.0,1910161.0,1561846.0,1529697.0,1819959.1818181819
5.65625,1951618.0,2080410.0,1914728.0,1906066.0,1768756.0,2201966.0,1703218.0,1493955.0,1909789.0,1564160.0,1530240.0,1820446.0
5.671875,1951978.0,2082276.0,1916138.0,1906656.0,1768679.0,2202778.0,1702979.0,1493734.0,1909405.0,1566662.0,1530615.0,1821081.8181818181
5.6875,1952714.0,2083004.0,1917367.0,1903150.0,1768557.0,2202952.0,1703003.0,1493657.0,1909373.0,1569644.0,1531129.0,1821322.7272727273
5.703125,1953335.0,2080697.0,1918629.0,1896754.0,1769004.0,2203634.0,1703211.0,1493544.0,1909290.0,1572644.0,1530872.0,1821055.8181818181
5.71875,1954283.0,2078719.0,1918068.0,1891125.0,1769758.0,2203763.0,1703246.0,1493612.0,1909454.0,1575303.0,1530161.0,1820681.0909090908
5.734375,1955463.0,2077628.0,1909608.0,1886898.0,1771185.0,2204497.0,1703264.0,1493641.0,1909389.0,1578477.0,1529476.0,1819956.9090909092
5.75,1956372.0,2076446.0,1916550.0,1883494.0,1772193.0,2203600.0,1703386.0,1493674.0,1909599.0,1581204.0,1529145.0,1820514.8181818181
5.765625,1957361.0,2076089.0,1915158.0,1880450.0,1774170.0,2201969.0,1703513.0,1493860.0,1909815.0,1583995.0,1529218.0,1820508.9090909092
5.78125,1958759.0,2076341.0,1914092.0,1878630.0,1775240.0,2201246.0,1703452.0,1493761.0,1910219.0,1580537.0,1529507.0,1820162.1818181819
5.796875,1959085.0,2076741.0,1912980.0,1877063.0,1777247.0,2204577.0,1703004.0,1493539.0,1909517.0,1573108.0,1529628.0,1819680.8181818181
5.8125,1955474.0,2077321.0,1913316.0,1875339.0,1778873.0,2200584.0,1701391.0,1493288.0,1909613.0,1567584.0,1529697.0,1818407.2727272727
5.828125,1949800.0,2077590.0,1913378.0,1873292.0,1780939.0,2200338.0,1702347.0,1492185.0,1910590.0,1559913.0,1529724.0,1817281.4545454546
5.84375,1945118.0,2077923.0,1913942.0,1871173.0,1783348.0,2200233.0,1700626.0,1491655.0,1911428.0,1561233.0,1529715.0,1816944.9090909092
5.859375,1942182.0,2078104.0,1914434.0,1869698.0,1785741.0,2200206.0,1699357.0,1490951.0,1910398.0,1559758.0,1530033.0,1816442.0
5.875,1940128.0,2078503.0,1914971.0,1868402.0,1788591.0,2200683.0,1700062.0,1490530.0,1911707.0,1564063.0,1530218.0,1817078.0
5.890625,1938820.0,2079119.0,1915889.0,1868018.0,1791605.0,2200909.0,1698558.0,1489955.0,1912068.0,1558775.0,1530546.0,1816751.0909090908
5.90625,1937773.0,2079415.0,1916557.0,1867544.0,1794437.0,2200651.0,1699116.0,1490075.0,1911178.0,1559260.0,1530798.0,1816982.1818181819
5.921875,1931992.0,2079820.0,1917332.0,1867733.0,1795284.0,2200995.0,1698253.0,1489586.0,1910164.0,1558803.0,1531176.0,1816467.0909090908
5.9375,1931111.0,2080701.0,1918100.0,1867908.0,1792671.0,2201546.0,1697873.0,1489711.0,1911012.0,1560122.0,1531598.0,1816577.5454545454
5.953125,1935000.0,2081158.0,1919855.0,1868210.0,1788902.0,2202220.0,1697659.0,1489390.0,1909544.0,1563834.0,1531883.0,1817059.5454545454
5.96875,1931063.0,2081453.0,1919022.0,1868510.0,1787253.0,2202552.0,1697619.0,1489503.0,1908964.0,1561927.0,1532081.0,1816358.8181818181
5.984375,1931538.0,2080775.0,1921694.0,1868947.0,1785996.0,2202828.0,1697493.0,1489401.0,1907254.0,1566299.0,1531642.0,1816715.1818181819
6.0,1931449.0,2078647.0,1920670.0,1869459.0,1785819.0,2203360.0,1697538.0,1489703.0,1906599.0,1568791.0,1530669.0,1816609.4545454546
6.015625,1932039.0,2075838.0,1922615.0,1870356.0,1785663.0,2203685.0,1697396.0,1489678.0,1906846.0,1571226.0,1529901.0,1816840.2727272727
6.03125,1932366.0,2073258.0,1923617.0,1871243.0,1787051.0,2204093.0,1697483.0,1489548.0,1905898.0,1573780.0,1529053.0,1817035.4545454546
6.046875,1933366.0,2071199.0,1924527.0,1872199.0,1787404.0,2204268.0,1697361.0,1489555.0,1905337.0,1576467.0,1529067.0,1817340.9090909092
6.0625,1936412.0,2069459.0,1925615.0,1873402.0,1787750.0,2204746.0,1697588.0,1489014.0,1905187.0,1577770.0,1528972.0,1817810.4545454546
6.078125,1932613.0,2068837.0,1924869.0,1876128.0,1788675.0,2205714.0,1697644.0,1488227.0,1905385.0,1572548.0,1528933.0,1817233.9090909092
6.09375,1931136.0,2068058.0,1923532.0,1874721.0,1789542.0,2206130.0,1697753.0,1487357.0,1908057.0,1565237.0,1528733.0,1816386.9090909092
6.109375,1933016.0,2067442.0,1922416.0,1877626.0,1791334.0,2206221.0,1697622.0,1486698.0,1906002.0,1560681.0,1528474.0,1816139.2727272727
6.125,1933756.0,2067048.0,1921735.0,1879207.0,1793374.0,2206870.0,1696992.0,1486232.0,1905426.0,1557779.0,1528164.0,1816053.0
6.140625,1934126.0,2066035.0,1921310.0,1880450.0,1795925.0,2205411.0,1696268.0,1486138.0,1905468.0,1554989.0,1528225.0,1815849.5454545454
6.15625,1935090.0,2065088.0,1921003.0,1877650.0,1797268.0,2207272.0,1695369.0,1485953.0,1905519.0,1554243.0,1528206.0,1815696.4545454546
6.171875,1936163.0,2064513.0,1921539.0,1871693.0,1799035.0,2205384.0,1694356.0,1485825.0,1905715.0,1555792.0,1528278.0,1815299.3636363635
6.1875,1937121.0,2063973.0,1921445.0,1866497.0,1800524.0,2207033.0,1693819.0,1485619.0,1906414.0,1559931.0,1528288.0,1815514.9090909092
6.203125,1938218.0,2063895.0,1921535.0,1863436.0,1801783.0,2204218.0,1693231.0,1485498.0,1905930.0,1555508.0,1528761.0,1814728.4545454546
6.21875,1939278.0,2063664.0,1921496.0,1860945.0,1803882.0,2203478.0,1692761.0,1485669.0,1906783.0,1562447.0,1528922.0,1815393.1818181819
6.234375,1940440.0,2063904.0,1921864.0,1858703.0,1805686.0,2203017.0,1692203.0,1485564.0,1906486.0,1557766.0,1528733.0,1814942.3636363635
6.25,1939269.0,2064227.0,1922300.0,1857685.0,1807588.0,2203171.0,1692008.0,1486113.0,1907614.0,1564824.0,1528420.0,1815747.1818181819
6.265625,1933503.0,2064986.0,1922759.0,1856769.0,1809441.0,2203385.0,1691654.0,1486152.0,1907299.0,1554400.0,1527232.0,1814325.4545454546
6.28125,1926903.0,2064459.0,1923575.0,1855697.0,1811753.0,2203208.0,1691730.0,1486324.0,1908504.0,1553884.0,1525910.0,1813813.3636363635
6.296875,1922531.0,2062401.0,1924143.0,1853906.0,1813603.0,2202922.0,1691573.0,1486320.0,1907451.0,1554844.0,1525170.0,1813169.4545454546
6.3125,1919697.0,2060181.0,1924837.0,1852136.0,1812981.0,2203548.0,1691548.0,1485844.0,1906505.0,1569856.0,1524638.0,1813797.3636363635
6.328125,1917410.0,2058163.0,1925795.0,1851242.0,1808273.0,2203655.0,1691450.0,1484910.0,1905909.0,1573054.0,1524425.0,1813116.9090909092
6.34375,1915162.0,2057157.0,1926692.0,1850897.0,1803448.0,2203912.0,1691596.0,1484551.0,1905364.0,1572624.0,1524217.0,1812329.0909090908
6.359375,1913866.0,2056680.0,1928327.0,1850722.0,1799806.0,2204564.0,1691631.0,1483963.0,1908080.0,1567380.0,1523660.0,1811698.0909090908
6.375,1912208.0,2056827.0,1929472.0,1851154.0,1797202.0,2205059.0,1691625.0,1483517.0,1904910.0,1560721.0,1523522.0,1810565.1818181819
6.390625,1910161.0,2057704.0,1930321.0,1851599.0,1794425.0,2205674.0,1691966.0,1483107.0,1904122.0,1567403.0,1523320.0,1810891.0909090908
6.40625,1908369.0,2058526.0,1929855.0,1852526.0,1792758.0,2206186.0,1691959.0,1483098.0,1903475.0,1556717.0,1523279.0,1809704.3636363635
6.421875,1907198.0,2059201.0,1928635.0,1853238.0,1791715.0,2206499.0,1692217.0,1483019.0,1902733.0,1552775.0,1523371.0,1809145.5454545454
6.4375,1906305.0,2059661.0,1926468.0,1853945.0,1790379.0,2207129.0,1691472.0,1483029.0,1902682.0,1554363.0,1523307.0,1808976.3636363635
6.453125,1906457.0,2060296.0,1925938.0,1854967.0,1788800.0,2208300.0,1690700.0,1483138.0,1902609.0,1552461.0,1523311.0,1808816.0909090908
6.46875,1906554.0,2061112.0,1925846.0,1855985.0,1789640.0,2209642.0,1689611.0,1483272.0,1903182.0,1552122.0,1523474.0,1809130.9090909092
6.484375,1906710.0,2062043.0,1927396.0,1857291.0,1789400.0,2208403.0,1688891.0,1483440.0,1903820.0,1551181.0,1523861.0,1809312.3636363635
6.5,1907308.0,2062718.0,1927420.0,1858330.0,1791530.0,2209082.0,1688208.0,1483660.0,1902646.0,1550989.0,1523811.0,1809609.2727272727
6.515625,1911238.0,2063870.0,1925810.0,1859841.0,1789007.0,2207630.0,1687769.0,1483978.0,1902862.0,1551534.0,1523286.0,1809711.3636363635
6.53125,1907636.0,2064974.0,1925663.0,1861414.0,1790535.0,2209782.0,1687370.0,1484465.0,1902805.0,1552843.0,1521579.0,1809915.0909090908
6.546875,1908550.0,2066085.0,1925772.0,1863131.0,1794239.0,2210258.0,1687128.0,1484404.0,1902736.0,1554910.0,1520270.0,1810680.2727272727
6.5625,1909287.0,2066728.0,1925741.0,1864965.0,1795655.0,2210770.0,1686978.0,1484521.0,1903021.0,1557144.0,1519006.0,1811256.0
6.578125,1906758.0,2066193.0,1925779.0,1866687.0,1792532.0,2210908.0,1687013.0,1483917.0,1903100.0,1559582.0,1517975.0,1810949.4545454546
6.59375,1916975.0,2063951.0,1926339.0,1868012.0,1797165.0,2211083.0,1686930.0,1483359.0,1903797.0,1561907.0,1517606.0,1812465.8181818181
6.609375,1911435.0,2061258.0,1926690.0,1865245.0,1798703.0,2210203.0,1687121.0,1482979.0,1904026.0,1564497.0,1517110.0,1811751.5454545454
6.625,1917225.0,2058765.0,1927188.0,1860795.0,1800519.0,2208438.0,1687250.0,1482767.0,1904190.0,1567361.0,1516769.0,1811933.3636363635
6.640625,1905212.0,2057246.0,1927852.0,1857523.0,1802180.0,2207070.0,1687474.0,1482613.0,1904626.0,1557193.0,1516438.0,1809584.2727272727
6.65625,1901133.0,2056257.0,1928687.0,1855659.0,1803859.0,2206403.0,1687659.0,1482864.0,1903866.0,1561896.0,1515808.0,1809462.8181818181
6.671875,1914801.0,2056194.0,1929340.0,1854734.0,1806151.0,2205792.0,1687871.0,1482792.0,1902802.0,1570133.0,1515430.0,1811458.1818181819
6.6875,1898469.0,2056869.0,1931296.0,1854240.0,1807892.0,2205162.0,1688160.0,1482840.0,1901956.0,1568102.0,1515465.0,1810041.0
6.703125,1913280.0,2057142.0,1932525.0,1854404.0,1807921.0,2205226.0,1688204.0,1483057.0,1901398.0,1555618.0,1515210.0,1810362.2727272727
6.71875,1907752.0,2057456.0,1930234.0,1854190.0,1803676.0,2205462.0,1688616.0,1483415.0,1901073.0,1554589.0,1515553.0,1809274.1818181819
6.734375,1915918.0,2057732.0,1933640.0,1854059.0,1798133.0,2206334.0,1689007.0,1483800.0,1903210.0,1555110.0,1515339.0,1810207.4545454546
6.75,1912139.0,2057621.0,1934731.0,1853377.0,1794569.0,2206855.0,1688738.0,1483995.0,1903227.0,1555436.0,1515518.0,1809655.0909090908
6.765625,1910034.0,2057716.0,1935258.0,1852835.0,1792042.0,2207596.0,1688130.0,1484544.0,1900752.0,1558751.0,1515817.0,1809406.8181818181
6.78125,1896883.0,2058089.0,1932733.0,1853167.0,1789936.0,2207906.0,1687424.0,1484882.0,1900352.0,1556493.0,1515552.0,1807583.3636363635
6.796875,1895691.0,2058308.0,1934006.0,1853908.0,1788575.0,2208726.0,1686582.0,1485195.0,1899791.0,1555768.0,1514078.0,1807329.8181818181
6.8125,1893952.0,2058909.0,1930334.0,1854680.0,1787917.0,2205735.0,1685859.0,1484932.0,1899425.0,1555872.0,1512444.0,1806369.0
6.828125,1895427.0,2059230.0,1931760.0,1856064.0,1787353.0,2209274.0,1685783.0,1484531.0,1899514.0,1561317.0,1511359.0,1807419.2727272727
6.84375,1892609.0,2059783.0,1930165.0,1857462.0,1787004.0,2210075.0,1685622.0,1484125.0,1899408.0,1564178.0,1510132.0,1807323.9090909092
6.859375,1891136.0,2060260.0,1930298.0,1858897.0,1786611.0,2211644.0,1685743.0,1484381.0,1899771.0,1567030.0,1509364.0,1807739.5454545454
6.875,1890158.0,2059126.0,1930240.0,1860605.0,1786553.0,2212838.0,1685563.0,1484054.0,1899908.0,1570089.0,1509066.0,1808018.1818181819
6.890625,1890328.0,2056174.0,1930242.0,1861989.0,1787458.0,2205979.0,1685716.0,1483922.0,1901180.0,1572851.0,1508550.0,1807671.7272727273
6.90625,1890941.0,2052256.0,1930389.0,1863644.0,1789303.0,2213121.0,1685913.0,1484072.0,1900528.0,1575934.0,1507877.0,1808543.4545454546
6.921875,1891732.0,2049278.0,1930822.0,1865469.0,1788045.0,2214193.0,1686216.0,1484351.0,1900122.0,1578917.0,1507589.0,1808794.0
6.9375,1892571.0,2046857.0,1930117.0,1867112.0,1791607.0,2213912.0,1686521.0,1484346.0,1901656.0,1577482.0,1507453.0,1809057.6363636365
6.953125,1893177.0,2045514.0,1930561.0,1869203.0,1790053.0,2214420.0,1686806.0,1484737.0,1901111.0,1570609.0,1507227.0,1808492.5454545454
6.96875,1894338.0,2044512.0,1930801.0,1871160.0,1792401.0,2213747.0,1687218.0,1484960.0,1900122.0,1564488.0,1507088.0,1808257.7272727273
6.984375,1894996.0,2044166.0,1931377.0,1873194.0,1794083.0,2214627.0,1687610.0,1485242.0,1899567.0,1560713.0,1507162.0,1808430.6363636365
7.0,1890094.0,2043999.0,1931841.0,1875130.0,1795197.0,2215191.0,1688048.0,1485536.0,1902072.0,1558122.0,1507150.0,1808398.1818181819
7.015625,1896163.0,2043548.0,1933222.0,1877466.0,1796895.0,2215420.0,1688501.0,1486034.0,1902524.0,1555953.0,1507393.0,1809374.4545454546
7.03125,1897725.0,2042974.0,1932371.0,1879968.0,1798737.0,2215541.0,1688846.0,1486543.0,1903261.0,1555465.0,1507507.0,1809903.4545454546
7.046875,1898692.0,2042500.0,1934005.0,1880769.0,1800328.0,2215394.0,1689389.0,1486680.0,1902038.0,1555433.0,1507351.0,1810234.4545454546
7.0625,1900401.0,2042073.0,1934811.0,1877751.0,1802311.0,2214212.0,1689433.0,1486102.0,1900241.0,1556419.0,1507695.0,1810131.7272727273
7.078125,1902017.0,2042051.0,1936780.0,1874321.0,1804393.0,2212472.0,1688934.0,1485631.0,1901117.0,1549389.0,1508094.0,1809563.5454545454
7.09375,1903656.0,2041333.0,1935666.0,1872068.0,1804192.0,2211185.0,1688449.0,1485120.0,1899991.0,1548653.0,1507356.0,1808879.0
7.109375,1905092.0,2040949.0,1936707.0,1870829.0,1799107.0,2210921.0,1687820.0,1484846.0,1899268.0,1562980.0,1505908.0,1809493.3636363635
7.125,1907071.0,2040661.0,1935172.0,1870083.0,1793701.0,2211154.0,1687352.0,1484545.0,1903152.0,1556636.0,1504673.0,1808563.6363636365
7.140625,1900895.0,2040713.0,1937297.0,1869763.0,1789928.0,2211753.0,1687016.0,1484623.0,1898584.0,1556187.0,1503433.0,1807290.1818181819
7.15625,1906763.0,2040372.0,1932959.0,1869601.0,1787725.0,2211069.0,1686895.0,1484448.0,1898441.0,1558200.0,1502563.0,1807185.0909090908
7.171875,1894738.0,2039430.0,1933921.0,1870103.0,1785142.0,2211296.0,1687119.0,1484721.0,1898039.0,1560425.0,1502268.0,1806109.2727272727
7.1875,1890809.0,2036551.0,1932226.0,1869990.0,1784102.0,2211180.0,1687176.0,1484832.0,1897714.0,1570611.0,1502215.0,1806127.8181818181
7.203125,1888597.0,2032239.0,1931726.0,1869545.0,1783047.0,2211411.0,1687192.0,1485179.0,1897353.0,1573096.0,1501929.0,1805574.0
7.21875,1887309.0,2027177.0,1931634.0,1869306.0,1781927.0,2211614.0,1687538.0,1485172.0,1897167.0,1573954.0,1501704.0,1804954.7272727273
7.234375,1886529.0,2023688.0,1931306.0,1869673.0,1780361.0,2211167.0,1687766.0,1485794.0,1897267.0,1567920.0,1501571.0,1803912.9090909092
7.25,1885994.0,2021554.0,1930809.0,1870727.0,1779547.0,2212139.0,1688246.0,1485877.0,1897379.0,1568110.0,1501292.0,1803788.5454545454
7.265625,1885424.0,2020756.0,1930227.0,1871697.0,1779720.0,2212420.0,1688744.0,1486422.0,1897451.0,1565507.0,1501580.0,1803631.6363636365
7.28125,1884473.0,2020842.0,1929640.0,1872840.0,1779910.0,2212956.0,1689156.0,1486618.0,1897785.0,1548452.0,1501831.0,1802227.5454545454
7.296875,1883629.0,2021107.0,1928451.0,1874391.0,1780611.0,2213231.0,1689662.0,1486816.0,1897909.0,1560674.0,1502080.0,1803505.5454545454
7.3125,1883904.0,2021494.0,1928006.0,1875684.0,1781398.0,2213347.0,1690177.0,1486444.0,1898230.0,1555818.0,1502375.0,1803352.4545454546
7.328125,1883317.0,2021551.0,1929156.0,1877067.0,1782903.0,2214207.0,1690406.0,1486116.0,1898650.0,1552696.0,1502731.0,1803527.2727272727
7.34375,1884642.0,2021892.0,1927668.0,1878426.0,1781851.0,2215250.0,1690879.0,1485604.0,1899334.0,1550180.0,1503036.0,1803523.8181818181
7.359375,1886002.0,2022087.0,1927729.0,1880212.0,1784050.0,2215662.0,1691394.0,1485377.0,1900278.0,1549601.0,1503412.0,1804164.0
7.375,1886984.0,2022816.0,1927711.0,1881487.0,1785002.0,2214449.0,1691779.0,1485358.0,1900731.0,1548835.0,1504068.0,1804474.5454545454
7.390625,1888083.0,2023362.0,1928060.0,1883137.0,1786226.0,2213919.0,1691645.0,1485309.0,1898970.0,1550060.0,1504403.0,1804834.0
7.40625,1889374.0,2024173.0,1928738.0,1885030.0,1787534.0,2215779.0,1691233.0,1485354.0,1901298.0,1552124.0,1503790.0,1805857.0
7.421875,1890514.0,2025335.0,1929597.0,1886803.0,1791650.0,2216045.0,1691026.0,1485653.0,1900660.0,1557219.0,1502822.0,1807029.4545454546
7.4375,1892073.0,2026404.0,1930432.0,1888692.0,1798574.0,2216368.0,1690590.0,1485726.0,1899790.0,1559547.0,1501839.0,1808185.0
7.453125,1893454.0,2027443.0,1930910.0,1890703.0,1805692.0,2215390.0,1690390.0,1485726.0,1898971.0,1562199.0,1501416.0,1809299.4545454546
7.46875,1895033.0,2026413.0,1930824.0,1892532.0,1810868.0,2213989.0,1690341.0,1486192.0,1898785.0,1554458.0,1501321.0,1809159.6363636365
7.484375,1896722.0,2023878.0,1928902.0,1894519.0,1809676.0,2212722.0,1690414.0,1486498.0,1898109.0,1564778.0,1501323.0,1809776.4545454546
7.5,1898515.0,2021472.0,1926439.0,1896814.0,1804926.0,2212433.0,1690453.0,1487138.0,1899675.0,1567694.0,1501728.0,1809753.3636363635
7.515625,1900400.0,2019364.0,1924379.0,1898185.0,1800939.0,2212500.0,1690708.0,1487527.0,1897674.0,1568261.0,1501708.0,1809240.4545454546
7.53125,1902164.0,2018591.0,1922496.0,1896274.0,1799216.0,2212578.0,1690523.0,1487729.0,1897308.0,1562085.0,1501971.0,1808266.8181818181
7.546875,1904158.0,2018160.0,1920331.0,1893187.0,1798888.0,2212736.0,1690934.0,1488066.0,1897012.0,1555030.0,1502044.0,1807322.3636363635
7.5625,1906435.0,2018864.0,1921123.0,1891385.0,1799038.0,2212665.0,1691044.0,1488273.0,1896975.0,1550488.0,1502417.0,1807155.1818181819
7.578125,1907960.0,2019762.0,1918255.0,1890614.0,1798796.0,2213330.0,1691418.0,1487995.0,1896479.0,1545447.0,1502986.0,1806640.1818181819
7.59375,1904752.0,2020897.0,1919793.0,1890160.0,1798931.0,2212978.0,1691772.0,1487548.0,1896393.0,1544806.0,1503405.0,1806494.0909090908
7.609375,1898705.0,2021611.0,1919276.0,1890088.0,1797983.0,2213483.0,1692096.0,1487531.0,1896440.0,1547553.0,1504038.0,1806254.9090909092
7.625,1893963.0,2022414.0,1916251.0,1890559.0,1797659.0,2213765.0,1692474.0,1487145.0,1896737.0,1544238.0,1504563.0,1805433.4545454546
7.640625,1890727.0,2022713.0,1916966.0,1890751.0,1798640.0,2214210.0,1692750.0,1487415.0,1897094.0,1548473.0,1504956.0,1805881.3636363635
7.65625,1889148.0,2023482.0,1915923.0,1890569.0,1816742.0,2214981.0,1693096.0,1487341.0,1897136.0,1550796.0,1505870.0,1807734.9090909092
7.671875,1888210.0,2024642.0,1915561.0,1890304.0,1819257.0,2215251.0,1693409.0,1487284.0,1897486.0,1553204.0,1506482.0,1808280.9090909092
7.6875,1887764.0,2025402.0,1915481.0,1890011.0,1821170.0,2215946.0,1693147.0,1487482.0,1897644.0,1555775.0,1507241.0,1808823.9090909092
7.703125,1887607.0,2026567.0,1915285.0,1890421.0,1818299.0,2216256.0,1693065.0,1487983.0,1897831.0,1558254.0,1506874.0,1808949.2727272727
7.71875,1886894.0,2027666.0,1915279.0,1891421.0,1812058.0,2216535.0,1692649.0,1488376.0,1898393.0,1560520.0,1505615.0,1808673.2727272727
7.734375,1886015.0,2028575.0,1915250.0,1892770.0,1817798.0,2217399.0,1692058.0,1488691.0,1898687.0,1563242.0,1506049.0,1809684.9090909092
7.75,1885767.0,2028556.0,1915393.0,1894092.0,1805420.0,2217968.0,1691985.0,1489127.0,1899222.0,1565698.0,1505454.0,1808971.0909090908
7.765625,1887122.0,2026118.0,1915979.0,1895726.0,1803834.0,2217972.0,1691729.0,1489468.0,1899359.0,1563355.0,1505637.0,1808754.4545454546
7.78125,1887873.0,2022757.0,1916174.0,1897373.0,1812002.0,2218586.0,1691635.0,1489995.0,1898978.0,1555794.0,1506119.0,1808844.1818181819
7.796875,1885973.0,2019579.0,1917738.0,1899239.0,1815460.0,2218881.0,1691413.0,1490650.0,1897262.0,1549992.0,1506407.0,1808417.6363636365
7.8125,1889207.0,2017451.0,1915994.0,1900595.0,1806831.0,2219298.0,1691611.0,1490808.0,1896964.0,1546740.0,1506977.0,1807497.8181818181
7.828125,1890901.0,2016258.0,1918109.0,1902046.0,1804812.0,2216846.0,1691467.0,1490837.0,1896522.0,1544187.0,1506975.0,1807178.1818181819
7.84375,1893529.0,2016125.0,1917112.0,1903474.0,1803129.0,2218532.0,1691414.0,1490573.0,1896040.0,1543241.0,1507188.0,1807305.1818181819
7.859375,1892141.0,2017322.0,1917066.0,1904950.0,1801796.0,2216935.0,1691473.0,1490549.0,1895830.0,1542893.0,1507904.0,1807169.0
7.875,1895236.0,2018584.0,1914162.0,1906364.0,1808539.0,2215524.0,1691721.0,1490133.0,1895384.0,1542260.0,1508483.0,1807853.6363636365
7.890625,1896684.0,2019636.0,1915070.0,1908027.0,1810181.0,2213857.0,1691930.0,1490280.0,1894979.0,1541278.0,1509192.0,1808283.0909090908
7.90625,1898483.0,2019930.0,1913680.0,1909734.0,1806790.0,2213826.0,1691820.0,1490123.0,1898282.0,1540753.0,1509967.0,1808489.8181818181
7.921875,1900395.0,2020455.0,1913558.0,1911362.0,1800304.0,2213988.0,1692095.0,1490334.0,1894681.0,1541616.0,1510748.0,1808139.6363636365
7.9375,1902063.0,2021097.0,1913709.0,1913260.0,1813818.0,2214504.0,1692066.0,1490577.0,1896383.0,1543142.0,1512295.0,1810264.9090909092
7.953125,1904398.0,2021672.0,1913656.0,1915028.0,1802603.0,2214368.0,1692053.0,1491159.0,1894670.0,1545004.0,1511606.0,1809656.0909090908
7.96875,1906541.0,2022437.0,1913600.0,1916167.0,1802352.0,2213728.0,1691691.0,1491443.0,1896654.0,1547048.0,1512991.0,1810422.9090909092
7.984375,1910756.0,2023585.0,1914046.0,1914489.0,1802066.0,2214810.0,1691138.0,1491554.0,1894750.0,1549268.0,1513863.0,1810938.6363636365
8.0,1908382.0,2024455.0,1914451.0,1911349.0,1802081.0,2213829.0,1690422.0,1491992.0,1895028.0,1551297.0,1514251.0,1810685.1818181819
8.015625,1914670.0,2025559.0,1915050.0,1908983.0,1802572.0,2214587.0,1689917.0,1492429.0,1895161.0,1544898.0,1513649.0,1810679.5454545454
8.03125,1912930.0,2026731.0,1915711.0,1907584.0,1803523.0,2215346.0,1689447.0,1492764.0,1895628.0,1546431.0,1512995.0,1810826.3636363635
8.046875,1911684.0,2026201.0,1916395.0,1905875.0,1803899.0,2216077.0,1689148.0,1493124.0,1895778.0,1553373.0,1512613.0,1811287.9090909092
8.0625,1906362.0,2023549.0,1917217.0,1906670.0,1804781.0,2216323.0,1689099.0,1493804.0,1896370.0,1555777.0,1512292.0,1811113.0909090908
8.078125,1902336.0,2020467.0,1918149.0,1905701.0,1806125.0,2217056.0,1688686.0,1493881.0,1896615.0,1545183.0,1512513.0,1809701.0909090908
8.09375,1900364.0,2017579.0,1919022.0,1905600.0,1801476.0,2217389.0,1688453.0,1494145.0,1897148.0,1545149.0,1513251.0,1809052.3636363635
8.109375,1899310.0,2015690.0,1920150.0,1905102.0,1807897.0,2217909.0,1688196.0,1493680.0,1897410.0,1558614.0,1513716.0,1810697.6363636365
8.125,1898596.0,2014581.0,1921397.0,1904465.0,1805251.0,2218524.0,1688017.0,1493490.0,1898082.0,1557246.0,1513993.0,1810331.0909090908
8.140625,1898828.0,2014621.0,1923594.0,1903834.0,1809564.0,2218542.0,1688034.0,1493749.0,1898708.0,1544309.0,1513086.0,1809715.3636363635
8.15625,1899110.0,2015568.0,1922469.0,1903884.0,1811785.0,2219187.0,1688334.0,1493724.0,1899032.0,1550398.0,1514378.0,1810715.3636363635
8.171875,1898473.0,2016135.0,1923768.0,1903952.0,1813840.0,2219595.0,1688430.0,1493933.0,1898927.0,1541261.0,1514919.0,1810293.9090909092
8.1875,1897895.0,2017099.0,1923066.0,1904426.0,1816281.0,2219862.0,1688602.0,1493816.0,1897998.0,1539745.0,1515457.0,1810386.0909090908
8.203125,1897521.0,2017456.0,1921649.0,1905216.0,1818796.0,2220337.0,1688609.0,1494190.0,1897131.0,1539828.0,1516235.0,1810633.4545454546
8.21875,1897845.0,2017904.0,1920848.0,1906011.0,1820951.0,2221043.0,1688133.0,1494482.0,1896676.0,1540033.0,1517068.0,1810999.4545454546
8.234375,1898781.0,2018174.0,1920228.0,1906852.0,1802248.0,2221616.0,1687525.0,1494748.0,1895571.0,1540208.0,1517574.0,1809411.3636363635
8.25,1900135.0,2018389.0,1919841.0,1907825.0,1820775.0,2221163.0,1686691.0,1495115.0,1896036.0,1539493.0,1518336.0,1811254.4545454546
8.265625,1901288.0,2018987.0,1919826.0,1908630.0,1801447.0,2222127.0,1686000.0,1495616.0,1894845.0,1539630.0,1518965.0,1809760.0909090908
8.28125,1901288.0,2019684.0,1919751.0,1909636.0,1815776.0,2222023.0,1685467.0,1495794.0,1894497.0,1540848.0,1519861.0,1811329.5454545454
8.296875,1903011.0,2020286.0,1919469.0,1910837.0,1809705.0,2219519.0,1685075.0,1496340.0,1894311.0,1543171.0,1520570.0,1811117.6363636365
8.3125,1904533.0,2020858.0,1919534.0,1911967.0,1805247.0,2220957.0,1684918.0,1496884.0,1893965.0,1545666.0,1520561.0,1811371.8181818181
8.328125,1905827.0,2021518.0,1919655.0,1913185.0,1800736.0,2218704.0,1684829.0,1497170.0,1893853.0,1548744.0,1520237.0,1811314.3636363635
8.34375,1907362.0,2021824.0,1920078.0,1914535.0,1800146.0,2218294.0,1684553.0,1497234.0,1893855.0,1551546.0,1519593.0,1811729.0909090908
8.359375,1909117.0,2019924.0,1920527.0,1915915.0,1799969.0,2217868.0,1684518.0,1497315.0,1894105.0,1554495.0,1519367.0,1812101.8181818181
8.375,1910627.0,2016423.0,1921305.0,1917512.0,1800223.0,2218106.0,1684634.0,1497193.0,1894183.0,1557153.0,1519273.0,1812421.0909090908
8.390625,1912544.0,2012942.0,1921993.0,1918969.0,1802256.0,2217931.0,1684807.0,1497105.0,1894461.0,1560724.0,1519486.0,1813019.8181818181
8.40625,1914746.0,2009797.0,1922649.0,1920553.0,1799708.0,2218019.0,1684812.0,1497200.0,1894869.0,1560526.0,1519984.0,1812987.5454545454
8.421875,1916774.0,2008332.0,1923534.0,1922241.0,1799828.0,2218068.0,1685117.0,1497300.0,1895652.0,1554029.0,1520254.0,1812829.9090909092
8.4375,1918627.0,2007313.0,1924613.0,1923862.0,1802018.0,2218286.0,1685441.0,1497309.0,1895390.0,1547915.0,1520638.0,1812855.6363636365
8.453125,1921019.0,2007552.0,1925458.0,1925579.0,1800520.0,2218289.0,1685583.0,1497495.0,1896390.0,1544241.0,1520813.0,1812994.4545454546
8.46875,1925049.0,2008252.0,1926325.0,1926659.0,1804147.0,2218526.0,1685716.0,1497557.0,1895996.0,1542718.0,1521024.0,1813815.3636363635
8.484375,1923320.0,2009064.0,1925928.0,1924826.0,1805186.0,2218850.0,1685392.0,1497915.0,1897476.0,1541957.0,1521509.0,1813765.7272727273
8.5,1921970.0,2009868.0,1924423.0,1921024.0,1804712.0,2219176.0,1684827.0,1498236.0,1896680.0,1541946.0,1522242.0,1813191.2727272727
8.515625,1916869.0,2010728.0,1923369.0,1918018.0,1802960.0,2219762.0,1683937.0,1498446.0,1897789.0,1541652.0,1522740.0,1812388.1818181819
8.53125,1913097.0,2011273.0,1922098.0,1915843.0,1805610.0,2220069.0,1683447.0,1498798.0,1898256.0,1541787.0,1523590.0,1812169.8181818181
8.546875,1911200.0,2012279.0,1920783.0,1914276.0,1807687.0,2220528.0,1683060.0,1499233.0,1898362.0,1542603.0,1524266.0,1812207.0
8.5625,1910705.0,2013264.0,1920241.0,1912863.0,1806181.0,2221021.0,1682570.0,1499710.0,1897369.0,1544713.0,1524849.0,1812135.0909090908
8.578125,1910070.0,2014302.0,1919754.0,1911791.0,1808855.0,2221375.0,1682342.0,1499940.0,1896533.0,1541449.0,1525489.0,1811990.9090909092
8.59375,1911115.0,2015838.0,1919427.0,1910914.0,1811212.0,2221783.0,1682147.0,1500304.0,1896002.0,1547256.0,1526224.0,1812929.2727272727
8.609375,1910829.0,2017430.0,1918973.0,1909739.0,1809929.0,2222068.0,1682273.0,1500022.0,1895550.0,1550228.0,1526598.0,1813058.0909090908
8.625,1910609.0,2018720.0,1918438.0,1908263.0,1812476.0,2222218.0,1682177.0,1500050.0,1894838.0,1552793.0,1526036.0,1813328.9090909092
8.640625,1910388.0,2020230.0,1918170.0,1906758.0,1813546.0,2222822.0,1682397.0,1499918.0,1894326.0,1558443.0,1525415.0,1813855.7272727273
8.65625,1910896.0,2019427.0,1918396.0,1905704.0,1811543.0,2223109.0,1682480.0,1499761.0,1894027.0,1555523.0,1525364.0,1813293.6363636365
8.671875,1911498.0,2017315.0,1918506.0,1905157.0,1805376.0,2223381.0,1682819.0,1500156.0,1893927.0,1561350.0,1525095.0,1813143.6363636365
8.6875,1912681.0,2014878.0,1918613.0,1905068.0,1799496.0,2218208.0,1683155.0,1500217.0,1893543.0,1560622.0,1525459.0,1811994.5454545454
8.703125,1914244.0,2013283.0,1918767.0,1905411.0,1795780.0,2223480.0,1683645.0,1500580.0,1893194.0,1545841.0,1525928.0,1810923.0
8.71875,1915870.0,2012429.0,1919351.0,1906198.0,1794111.0,2224069.0,1684094.0,1500900.0,1893427.0,1553477.0,1526325.0,1811841.0
8.734375,1917378.0,2012448.0,1919489.0,1906618.0,1791910.0,2223493.0,1684156.0,1501074.0,1893337.0,1537739.0,1526350.0,1810362.9090909092
8.75,1919017.0,2013384.0,1919867.0,1907223.0,1791355.0,2222391.0,1684660.0,1501512.0,1893991.0,1535293.0,1526772.0,1810496.8181818181
8.765625,1920673.0,2014792.0,1920484.0,1907747.0,1790613.0,2221112.0,1684777.0,1501932.0,1893604.0,1534548.0,1527373.0,1810695.9090909092
8.78125,1922303.0,2016019.0,1920788.0,1908146.0,1789834.0,2220370.0,1684508.0,1501990.0,1894148.0,1534072.0,1527764.0,1810903.8181818181
8.796875,1923983.0,2016880.0,1921366.0,1908444.0,1788910.0,2219980.0,1683929.0,1502521.0,1894464.0,1533420.0,1528380.0,1811116.0909090908
8.8125,1925679.0,2017925.0,1920907.0,1909139.0,1788973.0,2219962.0,1683111.0,1502846.0,1894757.0,1532970.0,1528936.0,1811382.2727272727
8.828125,1927775.0,2018715.0,1918958.0,1909561.0,1789252.0,2219925.0,1682532.0,1503448.0,1895138.0,1533167.0,1529564.0,1811639.5454545454
8.84375,1929962.0,2019561.0,1916504.0,1910359.0,1790105.0,2219766.0,1682054.0,1503429.0,1895366.0,1534907.0,1530245.0,1812023.4545454546
8.859375,1932013.0,2020766.0,1914518.0,1911457.0,1790967.0,2219831.0,1681660.0,1503499.0,1895997.0,1539716.0,1530779.0,1812836.6363636365
8.875,1933932.0,2022023.0,1912137.0,1912138.0,1792456.0,2220142.0,1681482.0,1503231.0,1896064.0,1540914.0,1531353.0,1813261.0909090908
8.890625,1936137.0,2023546.0,1910133.0,1913102.0,1793615.0,2220073.0,1681715.0,1503153.0,1896680.0,1542575.0,1531842.0,1813870.0909090908
8.90625,1938256.0,2024494.0,1908610.0,1914213.0,1794876.0,2220805.0,1681551.0,1502989.0,1897170.0,1545047.0,1531681.0,1814517.4545454546
8.921875,1940341.0,2025770.0,1907285.0,1915396.0,1795881.0,2221557.0,1681771.0,1503284.0,1897608.0,1547883.0,1530660.0,1815221.4545454546
8.9375,1939538.0,2027070.0,1906141.0,1916532.0,1797683.0,2220605.0,1681863.0,1503491.0,1896872.0,1550742.0,1530126.0,1815514.8181818181
8.953125,1934494.0,2027470.0,1905060.0,1916836.0,1799303.0,2222077.0,1682306.0,1503405.0,1895871.0,1537315.0,1529664.0,1813981.9090909092
8.96875,1929807.0,2025642.0,1904013.0,1912737.0,1801163.0,2222502.0,1682621.0,1503870.0,1895232.0,1552038.0,1529363.0,1814453.4545454546
8.984375,1927212.0,2023143.0,1903446.0,1908120.0,1803165.0,2222904.0,1683284.0,1503763.0,1894781.0,1546237.0,1529753.0,1813255.2727272727
9.0,1926252.0,2020701.0,1903063.0,1904771.0,1804787.0,2223254.0,1683541.0,1504176.0,1893814.0,1538049.0,1529799.0,1812018.8181818181
9.015625,1925060.0,2018876.0,1902621.0,1902173.0,1806810.0,2223688.0,1683940.0,1504182.0,1894187.0,1532562.0,1530093.0,1811290.1818181819
9.03125,1924578.0,2018474.0,1902673.0,1900488.0,1806778.0,2224072.0,1684583.0,1504551.0,1893482.0,1529394.0,1529974.0,1810822.4545454546
9.046875,1925174.0,2018681.0,1902838.0,1899021.0,1801894.0,2224532.0,1684924.0,1505035.0,1893285.0,1526757.0,1530279.0,1810220.0
9.0625,1924699.0,2019401.0,1903075.0,1898348.0,1794601.0,2225289.0,1685661.0,1505356.0,1892986.0,1525666.0,1530304.0,1809580.5454545454
9.078125,1924405.0,2020525.0,1903290.0,1897013.0,1789087.0,2225011.0,1686165.0,1505183.0,1892558.0,1525761.0,1530501.0,1809045.3636363635
9.09375,1924199.0,2021404.0,1903750.0,1895403.0,1785619.0,2225589.0,1686788.0,1505212.0,1892615.0,1525223.0,1530940.0,1808794.7272727273
9.109375,1924352.0,2022235.0,1904192.0,1893627.0,1782362.0,2226489.0,1687069.0,1504862.0,1892754.0,1524603.0,1531209.0,1808523.0909090908
9.125,1925497.0,2022898.0,1904744.0,1892456.0,1779916.0,2226321.0,1687125.0,1504789.0,1892794.0,1525003.0,1531600.0,1808467.5454545454
9.140625,1926678.0,2023668.0,1905509.0,1891813.0,1778364.0,2227032.0,1686951.0,1504307.0,1892999.0,1526102.0,1532158.0,1808689.1818181819
9.15625,1927749.0,2024789.0,1905631.0,1891541.0,1776751.0,2226197.0,1686365.0,1504167.0,1893214.0,1528135.0,1532684.0,1808838.4545454546
9.171875,1929402.0,2025632.0,1904511.0,1891881.0,1774722.0,2227080.0,1685815.0,1504264.0,1893708.0,1530796.0,1532776.0,1809144.2727272727
9.1875,1930902.0,2026815.0,1902266.0,1892127.0,1773444.0,2225045.0,1685403.0,1504060.0,1893872.0,1533039.0,1532779.0,1809068.3636363635
9.203125,1932147.0,2027905.0,1900353.0,1892620.0,1772530.0,2224084.0,1685472.0,1504390.0,1894437.0,1535728.0,1531750.0,1809219.6363636365
9.21875,1933893.0,2028800.0,1898484.0,1893222.0,1772602.0,2223622.0,1685400.0,1504509.0,1895013.0,1537824.0,1530780.0,1809468.0909090908
9.234375,1935356.0,2029871.0,1896194.0,1893726.0,1773203.0,2223705.0,1685530.0,1504548.0,1894665.0,1540584.0,1529716.0,1809736.1818181819
9.25,1936825.0,2030390.0,1894743.0,1894640.0,1774093.0,2223639.0,1685754.0,1504696.0,1896378.0,1543360.0,1529178.0,1810336.0
9.265625,1938499.0,2029119.0,1893511.0,1895352.0,1775206.0,2223815.0,1685923.0,1504937.0,1895709.0,1541367.0,1529119.0,1810232.4545454546
9.28125,1940477.0,2026313.0,1892426.0,1896318.0,1776397.0,2224129.0,1686173.0,1505103.0,1896599.0,1533148.0,1528924.0,1809637.0
9.296875,1942540.0,2023471.0,1891280.0,1897269.0,1777565.0,2224346.0,1686698.0,1505290.0,1896727.0,1526447.0,1529003.0,1809148.7272727273
9.3125,1944389.0,2021103.0,1890112.0,1898668.0,1778733.0,2224412.0,1687376.0,1505646.0,1895691.0,1522574.0,1528746.0,1808859.0909090908
9.328125,1946442.0,2019494.0,1889391.0,1900013.0,1779995.0,2224498.0,1687970.0,1505127.0,1895001.0,1520071.0,1528606.0,1808782.5454545454
9.34375,1948082.0,2018652.0,1888780.0,1901514.0,1781293.0,2224934.0,1688534.0,1504959.0,1894656.0,1518896.0,1528364.0,1808969.4545454546
9.359375,1950160.0,2018498.0,1888670.0,1902971.0,1783005.0,2225416.0,1689229.0,1504551.0,1893955.0,1518451.0,1528817.0,1809429.3636363635
9.375,1951864.0,2018706.0,1888354.0,1904575.0,1784461.0,2225704.0,1689785.0,1504324.0,1893333.0,1518120.0,1529018.0,1809840.3636363635
9.390625,1948779.0,2018980.0,1887978.0,1905983.0,1786573.0,2226006.0,1690387.0,1503987.0,1893210.0,1517139.0,1529230.0,1809841.0909090908
9.40625,1943949.0,2018888.0,1888009.0,1907624.0,1788204.0,2226433.0,1691177.0,1503904.0,1892713.0,1516637.0,1529371.0,1809719.0
9.421875,1940512.0,2018894.0,1888024.0,1909380.0,1784562.0,2226404.0,1691797.0,1503799.0,1892628.0,1517716.0,1529830.0,1809413.2727272727
9.4375,1938909.0,2019119.0,1887789.0,1910271.0,1776691.0,2227041.0,1692438.0,1503842.0,1892549.0,1519320.0,1530012.0,1808907.3636363635
9.453125,1938424.0,2019227.0,1887700.0,1907768.0,1769893.0,2227352.0,1692957.0,1503790.0,1892220.0,1521722.0,1530384.0,1808312.4545454546
9.46875,1938366.0,2019476.0,1888061.0,1902671.0,1765604.0,2227646.0,1693023.0,1503937.0,1892456.0,1524212.0,1530307.0,1807796.2727272727
9.484375,1938583.0,2020267.0,1888068.0,1898717.0,1761949.0,2228265.0,1692869.0,1504008.0,1892648.0,1526984.0,1529174.0,1807412.0
9.5,1938683.0,2021052.0,1888510.0,1896144.0,1759161.0,2228367.0,1692394.0,1504328.0,1892844.0,1529383.0,1528348.0,1807201.2727272727
9.515625,1938478.0,2022138.0,1887941.0,1894225.0,1757322.0,2228817.0,1691917.0,1504467.0,1893240.0,1532278.0,1527572.0,1807126.8181818181
9.53125,1937585.0,2023788.0,1886230.0,1891959.0,1756351.0,2229128.0,1691518.0,1504807.0,1893539.0,1535338.0,1527076.0,1807029.0
9.546875,1937498.0,2025556.0,1883867.0,1890825.0,1754674.0,2229244.0,1691181.0,1504595.0,1894071.0,1535413.0,1527105.0,1806729.9090909092
9.5625,1938102.0,2025401.0,1881711.0,1889823.0,1753023.0,2229286.0,1691411.0,1504429.0,1894486.0,1528710.0,1527061.0,1805767.5454545454
9.578125,1939033.0,2024115.0,1879896.0,1888514.0,1752351.0,2228166.0,1691429.0,1504048.0,1894987.0,1522364.0,1527007.0,1804719.0909090908
9.59375,1940048.0,2022737.0,1878535.0,1886811.0,1752608.0,2229656.0,1691613.0,1503425.0,1895500.0,1517455.0,1526668.0,1804096.0
9.609375,1941604.0,2021560.0,1877374.0,1885696.0,1753782.0,2227615.0,1692199.0,1503099.0,1896146.0,1516781.0,1526959.0,1803892.2727272727
9.625,1942954.0,2021388.0,1876831.0,1885005.0,1755377.0,2227053.0,1692849.0,1502780.0,1896798.0,1517434.0,1526906.0,1804125.0
9.640625,1944166.0,2021926.0,1876286.0,1884720.0,1757018.0,2226831.0,1693662.0,1502534.0,1897394.0,1518918.0,1527015.0,1804588.1818181819
9.65625,1945402.0,2023498.0,1875540.0,1884755.0,1758705.0,2227603.0,1694452.0,1502437.0,1898048.0,1518016.0,1527356.0,1805073.8181818181
9.671875,1946548.0,2025073.0,1875299.0,1885323.0,1760281.0,2227729.0,1695210.0,1502457.0,1898080.0,1517595.0,1527540.0,1805557.7272727273
9.6875,1948139.0,2026987.0,1875336.0,1885749.0,1761594.0,2227609.0,1696117.0,1502338.0,1897380.0,1519659.0,1527776.0,1806244.0
9.703125,1949408.0,2028391.0,1875808.0,1886655.0,1763323.0,2227825.0,1696787.0,1502466.0,1896414.0,1518110.0,1528139.0,1806666.0
9.71875,1951211.0,2029689.0,1876256.0,1887429.0,1764617.0,2227025.0,1697575.0,1502515.0,1896352.0,1525186.0,1528678.0,1807866.6363636365
9.734375,1952636.0,2031132.0,1877122.0,1888266.0,1766094.0,2227945.0,1698357.0,1502501.0,1895776.0,1528504.0,1528715.0,1808822.5454545454
9.75,1954659.0,2032437.0,1877881.0,1889319.0,1767843.0,2228242.0,1698887.0,1502636.0,1895249.0,1531521.0,1528115.0,1809708.0909090908
9.765625,1956378.0,2033842.0,1878556.0,1890300.0,1769983.0,2228612.0,1699577.0,1502982.0,1894799.0,1534272.0,1527011.0,1810573.8181818181
9.78125,1958336.0,2035462.0,1879363.0,1891850.0,1771798.0,2227594.0,1700294.0,1503046.0,1894707.0,1537672.0,1525848.0,1811451.8181818181
9.796875,1960390.0,2036416.0,1880171.0,1893624.0,1769136.0,2229091.0,1701006.0,1502941.0,1894556.0,1541134.0,1525478.0,1812176.6363636365
9.8125,1956362.0,2037812.0,1880884.0,1895411.0,1762097.0,2229747.0,1701405.0,1502490.0,1894683.0,1542919.0,1525085.0,1811717.7272727273
9.828125,1960976.0,2038968.0,1881921.0,1897092.0,1756009.0,2230084.0,1701096.0,1501842.0,1894409.0,1537253.0,1525148.0,1811345.2727272727
9.84375,1947474.0,2040157.0,1882875.0,1898941.0,1751979.0,2230469.0,1700625.0,1501428.0,1894587.0,1529405.0,1524966.0,1809355.0909090908
9.859375,1944683.0,2040237.0,1883640.0,1900632.0,1749687.0,2230962.0,1700382.0,1501428.0,1894873.0,1524214.0,1524924.0,1808696.5454545454
9.875,1951220.0,2038442.0,1883252.0,1902442.0,1747451.0,2231271.0,1699982.0,1500967.0,1895082.0,1521470.0,1524521.0,1808736.3636363635
9.890625,1943750.0,2035551.0,1881552.0,1904250.0,1746390.0,2231918.0,1699737.0,1500440.0,1895455.0,1519265.0,1524572.0,1807534.5454545454
9.90625,1945615.0,2033211.0,1879885.0,1906277.0,1745454.0,2231862.0,1699836.0,1500482.0,1895782.0,1522114.0,1524732.0,1807750.0
9.921875,1943747.0,2031731.0,1878306.0,1908290.0,1745126.0,2231525.0,1699934.0,1500092.0,1896028.0,1518446.0,1525064.0,1807117.1818181819
9.9375,1943506.0,2031004.0,1876734.0,1909602.0,1744826.0,2230387.0,1700064.0,1500230.0,1896560.0,1519022.0,1525130.0,1807005.9090909092
9.953125,1941827.0,2030896.0,1875413.0,1907013.0,1746268.0,2229069.0,1700139.0,1500097.0,1896918.0,1518649.0,1525460.0,1806522.6363636365
9.96875,1942815.0,2031315.0,1874458.0,1903149.0,1747157.0,2228002.0,1700391.0,1500435.0,1897211.0,1518589.0,1525796.0,1806301.6363636365
9.984375,1941669.0,2032019.0,1873909.0,1900792.0,1748485.0,2227431.0,1700698.0,1500268.0,1897562.0,1519408.0,1526019.0,1806205.4545454546
10.0,1942781.0,2032798.0,1873304.0,1899393.0,1749273.0,2226942.0,1701092.0,1500666.0,1898109.0,1521742.0,1526372.0,1806588.3636363635
10.015625,1944810.0,2033223.0,1872857.0,1898314.0,1750868.0,2226729.0,1701614.0,1500802.0,1898521.0,1524517.0,1525650.0,1807082.2727272727
10.03125,1946821.0,2033775.0,1872704.0,1897473.0,1752586.0,2226913.0,1701864.0,1500929.0,1898987.0,1527172.0,1524338.0,1807596.5454545454
10.046875,1943658.0,2034222.0,1872549.0,1897276.0,1754290.0,2226793.0,1702315.0,1501092.0,1899716.0,1530664.0,1523188.0,1807796.6363636365
10.0625,1941869.0,2034999.0,1872818.0,1897252.0,1755500.0,2226471.0,1702921.0,1500947.0,1899441.0,1533486.0,1522537.0,1808021.9090909092
10.078125,1945972.0,2036079.0,1873177.0,1896922.0,1756874.0,2226653.0,1702991.0,1500580.0,1898281.0,1539655.0,1522152.0,1809030.5454545454
10.09375,1948146.0,2036770.0,1873696.0,1896641.0,1757764.0,2226521.0,1703682.0,1499961.0,1897826.0,1543416.0,1522081.0,1809682.1818181819
10.109375,1949160.0,2037733.0,1874577.0,1896550.0,1759201.0,2226878.0,1704048.0,1499757.0,1897330.0,1544042.0,1522021.0,1810117.9090909092
10.125,1950474.0,2038925.0,1875100.0,1896798.0,1759753.0,2231406.0,1704578.0,1499468.0,1896704.0,1537222.0,1521842.0,1810206.3636363635
10.140625,1951884.0,2039891.0,1875902.0,1897646.0,1760416.0,2227348.0,1704990.0,1499113.0,1897105.0,1529616.0,1521364.0,1809570.4545454546
10.15625,1953517.0,2040774.0,1876825.0,1898656.0,1754780.0,2227538.0,1704925.0,1499047.0,1896509.0,1536471.0,1521477.0,1810047.1818181819
10.171875,1955295.0,2039928.0,1877669.0,1899846.0,1747123.0,2228266.0,1704958.0,1499265.0,1896646.0,1525228.0,1521533.0,1808705.1818181819
10.1875,1957085.0,2037618.0,1878744.0,1901356.0,1741058.0,2228808.0,1704699.0,1499333.0,1896397.0,1522309.0,1521730.0,1808103.3636363635
10.203125,1958713.0,2035132.0,1879821.0,1902700.0,1737870.0,2228979.0,1704773.0,1499502.0,1896368.0,1520073.0,1522101.0,1807821.0909090908
10.21875,1960495.0,2033156.0,1880777.0,1904213.0,1735438.0,2229135.0,1704564.0,1499422.0,1896491.0,1520007.0,1522583.0,1807843.7272727273
10.234375,1962203.0,2032162.0,1881681.0,1905584.0,1734583.0,2229541.0,1704814.0,1499765.0,1896684.0,1520535.0,1522650.0,1808200.1818181819
10.25,1964154.0,2031468.0,1880783.0,1907154.0,1734586.0,2229946.0,1705237.0,1499994.0,1896903.0,1520202.0,1523026.0,1808495.7272727273
10.265625,1962236.0,2031691.0,1879304.0,1908746.0,1734843.0,2230278.0,1705556.0,1500350.0,1897287.0,1521724.0,1523625.0,1808694.5454545454
10.28125,1956336.0,2032199.0,1877933.0,1910455.0,1734756.0,2230716.0,1705704.0,1500552.0,1897741.0,1524003.0,1522909.0,1808482.1818181819
10.296875,1951126.0,2032936.0,1876607.0,1912517.0,1734931.0,2230939.0,1705917.0,1500805.0,1897886.0,1526956.0,1521435.0,1808368.6363636365
10.3125,1947838.0,2032942.0,1875386.0,1914433.0,1735757.0,2230683.0,1706036.0,1500898.0,1898485.0,1529962.0,1520040.0,1808405.4545454546
10.328125,1946159.0,2033301.0,1874566.0,1916343.0,1737127.0,2229361.0,1706460.0,1500593.0,1898936.0,1533095.0,1519055.0,1808636.0
10.34375,1944874.0,2033351.0,1874171.0,1918529.0,1737770.0,2227892.0,1706587.0,1499856.0,1899434.0,1536122.0,1518110.0,1808790.5454545454
10.359375,1944170.0,2033203.0,1873960.0,1920709.0,1738143.0,2226950.0,1706898.0,1499585.0,1899888.0,1539608.0,1517845.0,1809178.0909090908
10.375,1944064.0,2033347.0,1873732.0,1922644.0,1738638.0,2226309.0,1707314.0,1499264.0,1900497.0,1542900.0,1517485.0,1809654.0
10.390625,1943281.0,2033939.0,1873564.0,1924747.0,1739094.0,2226213.0,1707481.0,1499294.0,1901183.0,1520344.0,1517182.0,1807847.4545454546
10.40625,1942108.0,2034180.0,1873522.0,1926976.0,1738846.0,2226151.0,1707872.0,1499083.0,1901500.0,1546198.0,1516956.0,1810308.3636363635
10.421875,1941192.0,2034302.0,1873766.0,1929296.0,1739946.0,2226169.0,1708063.0,1499221.0,1902182.0,1549210.0,1516524.0,1810897.3636363635
10.4375,1941108.0,2034852.0,1874199.0,1931508.0,1740818.0,2226040.0,1708477.0,1499369.0,1902110.0,1544993.0,1516223.0,1810881.5454545454
10.453125,1941109.0,2035322.0,1874748.0,1931402.0,1741909.0,2226346.0,1708424.0,1499382.0,1901157.0,1537174.0,1516152.0,1810284.0909090908
10.46875,1941663.0,2034671.0,1875560.0,1929626.0,1743530.0,2226139.0,1707760.0,1499601.0,1900502.0,1532131.0,1516421.0,1809782.1818181819
10.484375,1942649.0,2032328.0,1876383.0,1928584.0,1744638.0,2227168.0,1708226.0,1499762.0,1900203.0,1529362.0,1516434.0,1809612.4545454546
10.5,1944798.0,2029608.0,1877193.0,1928516.0,1742315.0,2227403.0,1707366.0,1500083.0,1899709.0,1527357.0,1516860.0,1809200.7272727273
10.515625,1946635.0,2027489.0,1878162.0,1929004.0,1735505.0,2228138.0,1706742.0,1500388.0,1899330.0,1526444.0,1517234.0,1808642.8181818181
10.53125,1947781.0,2026024.0,1879301.0,1929566.0,1729625.0,2226758.0,1706382.0,1500691.0,1898876.0,1526930.0,1517353.0,1808117.0
10.546875,1945749.0,2025712.0,1880497.0,1930755.0,1725295.0,2228458.0,1706034.0,1501264.0,1898896.0,1526864.0,1516953.0,1807861.5454545454
10.5625,1949290.0,2025712.0,1881593.0,1931644.0,1722502.0,2228913.0,1705790.0,1501064.0,1898773.0,1526420.0,1515769.0,1807951.8181818181
10.578125,1943697.0,2026300.0,1883190.0,1931953.0,1720805.0,2229455.0,1705818.0,1500694.0,1898375.0,1527110.0,1514614.0,1807455.5454545454
10.59375,1950461.0,2027184.0,1884411.0,1932252.0,1725682.0,2229875.0,1705729.0,1500015.0,1898251.0,1528868.0,1513381.0,1808737.1818181819
10.609375,1952235.0,2028329.0,1884192.0,1932821.0,1742255.0,2230234.0,1705564.0,1499522.0,1898384.0,1531347.0,1512879.0,1810705.6363636365
10.625,1953669.0,2029363.0,1883387.0,1933367.0,1755512.0,2230987.0,1705521.0,1499067.0,1898700.0,1536903.0,1512601.0,1812643.3636363635
10.640625,1955356.0,2030286.0,1882631.0,1934451.0,1763514.0,2230717.0,1705693.0,1498863.0,1899092.0,1534261.0,1512642.0,1813409.6363636365
10.65625,1956690.0,2030815.0,1881810.0,1935664.0,1770197.0,2232090.0,1705931.0,1498543.0,1899238.0,1542552.0,1512644.0,1815106.7272727273
10.671875,1958519.0,2031928.0,1881160.0,1937128.0,1776551.0,2231539.0,1706165.0,1498538.0,1899474.0,1545440.0,1512398.0,1816258.1818181819
10.6875,1960070.0,2033096.0,1880945.0,1938595.0,1782034.0,2232328.0,1706436.0,1498422.0,1899720.0,1539735.0,1512109.0,1816680.9090909092
10.703125,1961635.0,2033871.0,1881220.0,1940324.0,1785276.0,2232903.0,1706570.0,1498772.0,1900221.0,1538909.0,1512050.0,1817431.9090909092
10.71875,1959313.0,2035127.0,1881341.0,1941630.0,1787530.0,2232988.0,1706758.0,1498981.0,1900754.0,1540356.0,1512434.0,1817928.3636363635
10.734375,1959313.0,2036233.0,1881401.0,1943431.0,1790284.0,2232498.0,1707089.0,1499222.0,1901412.0,1542382.0,1512756.0,1818729.1818181819
10.75,1953662.0,2037473.0,1881560.0,1944929.0,1792994.0,2231263.0,1707534.0,1499491.0,1901123.0,1548173.0,1513090.0,1819208.3636363635
10.765625,1949502.0,2038042.0,1881795.0,1946432.0,1795062.0,2229902.0,1707267.0,1500088.0,1901918.0,1548510.0,1513686.0,1819291.2727272727
10.78125,1947749.0,2036768.0,1882410.0,1948146.0,1800756.0,2229036.0,1706190.0,1500232.0,1902359.0,1559320.0,1514221.0,1820653.3636363635
10.796875,1946638.0,2034427.0,1882855.0,1949925.0,1797811.0,2228577.0,1706795.0,1500810.0,1903036.0,1536756.0,1514658.0,1818389.8181818181
10.8125,1946159.0,2032212.0,1883620.0,1951928.0,1804026.0,2228507.0,1705726.0,1500646.0,1903185.0,1571629.0,1515171.0,1822073.5454545454
10.828125,1946015.0,2030721.0,1884542.0,1953666.0,1807489.0,2228476.0,1705023.0,1500831.0,1901524.0,1565454.0,1515042.0,1821707.5454545454
10.84375,1945873.0,2030114.0,1885591.0,1955713.0,1810471.0,2228194.0,1704843.0,1500251.0,1900868.0,1543120.0,1513874.0,1819901.0909090908
10.859375,1944978.0,2030294.0,1886626.0,1957601.0,1809566.0,2228223.0,1704522.0,1500017.0,1902648.0,1571100.0,1513141.0,1822610.5454545454
10.875,1943775.0,2030785.0,1887542.0,1959287.0,1808036.0,2228334.0,1704475.0,1499055.0,1900523.0,1552127.0,1512409.0,1820577.0909090908
10.890625,1943189.0,2031983.0,1888676.0,1961649.0,1809831.0,2228354.0,1704211.0,1498968.0,1899299.0,1549919.0,1512506.0,1820780.4545454546
10.90625,1942939.0,2033795.0,1889841.0,1963604.0,1818059.0,2228690.0,1704158.0,1499058.0,1899902.0,1562617.0,1512619.0,1823207.4545454546
10.921875,1943645.0,2034352.0,1891233.0,1965338.0,1830743.0,2228751.0,1704078.0,1499269.0,1898531.0,1539139.0,1512976.0,1822550.4545454546
10.9375,1944116.0,2032680.0,1891989.0,1964518.0,1844194.0,2229124.0,1704129.0,1499274.0,1897947.0,1575980.0,1513149.0,1827009.0909090908
10.953125,1945417.0,2033256.0,1891316.0,1962304.0,1856795.0,2229710.0,1704256.0,1499299.0,1897757.0,1537294.0,1513388.0,1824617.4545454546
10.96875,1946346.0,2035130.0,1890582.0,1960606.0,1866565.0,2230160.0,1704319.0,1499811.0,1897721.0,1557162.0,1513524.0,1827447.8181818181
10.984375,1947040.0,2035954.0,1890060.0,1959870.0,1874151.0,2230459.0,1704471.0,1499942.0,1897635.0,1551872.0,1514313.0,1827797.0
11.0,1948037.0,2036721.0,1889694.0,1959393.0,1879171.0,2230776.0,1704772.0,1500436.0,1897676.0,1558115.0,1515872.0,1829151.1818181819
11.015625,1948801.0,2037649.0,1889414.0,1959097.0,1882435.0,2231016.0,1704883.0,1500909.0,1897705.0,1560459.0,1517130.0,1829954.3636363635
11.03125,1950037.0,2038640.0,1889700.0,1958911.0,1883213.0,2231438.0,1704994.0,1501361.0,1897879.0,1559067.0,1517639.0,1830261.7272727273
11.046875,1951342.0,2039563.0,1889674.0,1959313.0,1882030.0,2231868.0,1705063.0,1501550.0,1898029.0,1544765.0,1518302.0,1829227.1818181819
11.0625,1952616.0,2039895.0,1889804.0,1959134.0,1879499.0,2232367.0,1705064.0,1502298.0,1898102.0,1559728.0,1518857.0,1830669.4545454546
11.078125,1953850.0,2038240.0,1889893.0,1958702.0,1878413.0,2232508.0,1704669.0,1502531.0,1898374.0,1557962.0,1519386.0,1830411.6363636365
11.09375,1955644.0,2035261.0,1890062.0,1958403.0,1877543.0,2233018.0,1703966.0,1502487.0,1898348.0,1565686.0,1519114.0,1830866.5454545454
11.109375,1957138.0,2030476.0,1890584.0,1958432.0,1876511.0,2233751.0,1703144.0,1502360.0,1898752.0,1539942.0,1518373.0,1828133.0
11.125,1958490.0,2032629.0,1891216.0,1958756.0,1874764.0,2233989.0,1702635.0,1501688.0,1899282.0,1563353.0,1517548.0,1830395.4545454546
11.140625,1960521.0,2029318.0,1891709.0,1959403.0,1873100.0,2233125.0,1702211.0,1501290.0,1899540.0,1555809.0,1516911.0,1829357.9090909092
11.15625,1961751.0,2028894.0,1892436.0,1959922.0,1872324.0,2231854.0,1701715.0,1501234.0,1898971.0,1560466.0,1516907.0,1829679.4545454546
11.171875,1958613.0,2029337.0,1894111.0,1960785.0,1871959.0,2231048.0,1701447.0,1501015.0,1898144.0,1567303.0,1517145.0,1830082.4545454546
11.1875,1953064.0,2030043.0,1893420.0,1961569.0,1869880.0,2230690.0,1701160.0,1501097.0,1897771.0,1537913.0,1517347.0,1826723.0909090908
11.203125,1948565.0,2030752.0,1896070.0,1962498.0,1862361.0,2230345.0,1701127.0,1501137.0,1898987.0,1568985.0,1517623.0,1828950.0
11.21875,1946066.0,2031322.0,1895059.0,1963445.0,1853361.0,2230734.0,1700843.0,1501370.0,1897123.0,1572308.0,1518019.0,1828150.0
11.234375,1945174.0,2031506.0,1897286.0,1964179.0,1846597.0,2231098.0,1700699.0,1501625.0,1896078.0,1579293.0,1518161.0,1828336.0
11.25,1944212.0,2032005.0,1898078.0,1965213.0,1841331.0,2231163.0,1700977.0,1501879.0,1896808.0,1556765.0,1518475.0,1826082.3636363635
11.265625,1944183.0,2032577.0,1898488.0,1966336.0,1835924.0,2231406.0,1700849.0,1502299.0,1895583.0,1582889.0,1519222.0,1828159.6363636365
11.28125,1944303.0,2033295.0,1897414.0,1967414.0,1831721.0,2231605.0,1700871.0,1502545.0,1895794.0,1586493.0,1519753.0,1828291.6363636365
11.296875,1943550.0,2034056.0,1895401.0,1968658.0,1827747.0,2231918.0,1700839.0,1502694.0,1895197.0,1589969.0,1520540.0,1828233.5454545454
11.3125,1942591.0,2035037.0,1896431.0,1969803.0,1823166.0,2232267.0,1700935.0,1503313.0,1895228.0,1587647.0,1521928.0,1828031.4545454546
11.328125,1941956.0,2035931.0,1894282.0,1971524.0,1819066.0,2232694.0,1700671.0,1503544.0,1895083.0,1580336.0,1521187.0,1826934.0
11.34375,1942159.0,2036792.0,1892718.0,1972556.0,1816042.0,2232891.0,1700902.0,1504122.0,1895570.0,1575268.0,1522531.0,1826504.6363636365
11.359375,1943051.0,2037742.0,1892544.0,1974294.0,1813679.0,2233395.0,1701013.0,1504486.0,1895345.0,1572178.0,1522985.0,1826428.3636363635
11.375,1943901.0,2037283.0,1893248.0,1975954.0,1812138.0,2233748.0,1700655.0,1504113.0,1895545.0,1570143.0,1522392.0,1826283.6363636365
11.390625,1944749.0,2035063.0,1892232.0,1977436.0,1810495.0,2234045.0,1699933.0,1503948.0,1895994.0,1569184.0,1521882.0,1825905.5454545454
11.40625,1946010.0,2032045.0,1892337.0,1979193.0,1808968.0,2234571.0,1699275.0,1503648.0,1896243.0,1570104.0,1521269.0,1825787.5454545454
11.421875,1949352.0,2028658.0,1892398.0,1981246.0,1808166.0,2234453.0,1698324.0,1503579.0,1896541.0,1570318.0,1520897.0,1825812.0
11.4375,1951753.0,2026206.0,1892171.0,1981984.0,1807590.0,2234966.0,1697721.0,1503674.0,1896806.0,1570005.0,1521313.0,1825835.3636363635
11.453125,1947226.0,2025043.0,1893775.0,1979628.0,1807414.0,2235361.0,1697157.0,1503306.0,1897373.0,1572671.0,1521982.0,1825539.6363636365
11.46875,1950414.0,2024123.0,1892951.0,1975878.0,1808093.0,2235802.0,1696833.0,1503822.0,1897545.0,1570920.0,1522203.0,1825325.8181818181
11.484375,1948287.0,2024197.0,1894904.0,1973141.0,1809524.0,2235319.0,1696436.0,1503887.0,1898098.0,1575031.0,1522654.0,1825588.9090909092
11.5,1954538.0,2024637.0,1895806.0,1971159.0,1811285.0,2236071.0,1696282.0,1504043.0,1898458.0,1577955.0,1522856.0,1826644.5454545454
11.515625,1958115.0,2025101.0,1897140.0,1969387.0,1817982.0,2236499.0,1695846.0,1504336.0,1898956.0,1581443.0,1523278.0,1828007.5454545454
11.53125,1953046.0,2026297.0,1898265.0,1967763.0,1827307.0,2236266.0,1695693.0,1504758.0,1899604.0,1584468.0,1524666.0,1828921.1818181819
11.546875,1956535.0,2026922.0,1899350.0,1966709.0,1832708.0,2234477.0,1695829.0,1504985.0,1899267.0,1587588.0,1526091.0,1830041.9090909092
11.5625,1959751.0,2027181.0,1901406.0,1965690.0,1835535.0,2233005.0,1695925.0,1505403.0,1898182.0,1594477.0,1526839.0,1831217.6363636365
11.578125,1961495.0,2027205.0,1900366.0,1964289.0,1838816.0,2232061.0,1695903.0,1505955.0,1897163.0,1590968.0,1527568.0,1831071.7272727273
11.59375,1963186.0,2027522.0,1902767.0,1962453.0,1844508.0,2231555.0,1696159.0,1506506.0,1895879.0,1596644.0,1523940.0,1831919.9090909092
11.609375,1960171.0,2027757.0,1902698.0,1961004.0,1850729.0,2231437.0,1696318.0,1506782.0,1896481.0,1589712.0,1525472.0,1831687.3636363635
11.625,1954413.0,2028238.0,1901414.0,1959718.0,1857343.0,2231388.0,1696472.0,1507220.0,1894646.0,1584120.0,1528551.0,1831229.3636363635
11.640625,1949730.0,2029624.0,1900074.0,1959098.0,1866383.0,2231652.0,1696566.0,1507079.0,1895098.0,1576865.0,1528046.0,1830928.6363636365
11.65625,1946385.0,2033552.0,1899291.0,1958597.0,1874302.0,2231643.0,1696924.0,1506746.0,1894041.0,1580533.0,1526796.0,1831710.0
11.671875,1944700.0,2035823.0,1898350.0,1958393.0,1880605.0,2231429.0,1696819.0,1506477.0,1893774.0,1577355.0,1527711.0,1831948.7272727273
11.6875,1943419.0,2036548.0,1897774.0,1958103.0,1885403.0,2231580.0,1696215.0,1506468.0,1893017.0,1577414.0,1526453.0,1832035.8181818181
11.703125,1942737.0,2034581.0,1897941.0,1958162.0,1889324.0,2231951.0,1695478.0,1506832.0,1893497.0,1578228.0,1526410.0,1832285.5454545454
11.71875,1942274.0,2031790.0,1898158.0,1958377.0,1890505.0,2232401.0,1694949.0,1506563.0,1893066.0,1598056.0,1526694.0,1833893.9090909092
11.734375,1941301.0,2029454.0,1898521.0,1958135.0,1889579.0,2232847.0,1694415.0,1506693.0,1892944.0,1577219.0,1527131.0,1831658.0909090908
11.75,1940036.0,2028285.0,1898667.0,1958181.0,1889052.0,2233311.0,1694500.0,1506921.0,1893082.0,1577746.0,1527557.0,1831576.1818181819
11.765625,1939082.0,2028428.0,1898943.0,1958285.0,1888320.0,2234020.0,1694434.0,1507094.0,1893407.0,1578919.0,1527928.0,1831714.5454545454
11.78125,1938934.0,2029756.0,1899349.0,1958749.0,1889370.0,2234249.0,1694419.0,1507366.0,1893308.0,1581271.0,1528081.0,1832259.2727272727
11.796875,1938840.0,2031122.0,1899773.0,1958943.0,1890325.0,2235057.0,1694395.0,1507516.0,1893555.0,1583819.0,1528787.0,1832921.0909090908
11.8125,1939426.0,2032695.0,1900458.0,1960326.0,1893342.0,2235293.0,1694196.0,1507804.0,1893881.0,1586412.0,1529119.0,1833904.7272727273
11.828125,1940369.0,2033828.0,1900970.0,1961664.0,1898293.0,2235737.0,1694025.0,1508272.0,1894268.0,1588877.0,1529964.0,1835115.1818181819
11.84375,1941192.0,2035195.0,1901723.0,1962354.0,1907362.0,2236370.0,1693898.0,1508351.0,1894577.0,1591713.0,1530735.0,1836679.0909090908
11.859375,1941944.0,2036000.0,1902244.0,1963139.0,1915319.0,2236901.0,1693933.0,1508996.0,1894842.0,1594690.0,1531426.0,1838130.3636363635
11.875,1943050.0,2036949.0,1902964.0,1964071.0,1922411.0,2237460.0,1694004.0,1509143.0,1895236.0,1597374.0,1532067.0,1839520.8181818181
11.890625,1943975.0,2038261.0,1903587.0,1965258.0,1927212.0,2237333.0,1694332.0,1508933.0,1895940.0,1600700.0,1533086.0,1840783.3636363635
11.90625,1944888.0,2039639.0,1904210.0,1965854.0,1925960.0,2235792.0,1695090.0,1508866.0,1896163.0,1601683.0,1533798.0,1841085.7272727273
11.921875,1946241.0,2041144.0,1905049.0,1962911.0,1923871.0,2234321.0,1696768.0,1508488.0,1896151.0,1595324.0,1534099.0,1840397.0
11.9375,1947310.0,2042455.0,1906037.0,1960962.0,1922353.0,2232691.0,1698262.0,1508107.0,1894751.0,1588710.0,1533485.0,1839556.6363636365
11.953125,1948638.0,2043732.0,1906531.0,1959484.0,1920360.0,2232481.0,1698793.0,1507512.0,1893153.0,1584454.0,1532894.0,1838912.0
11.96875,1950172.0,2045212.0,1905560.0,1955066.0,1915980.0,2231623.0,1699200.0,1507441.0,1896653.0,1582021.0,1532331.0,1838296.2727272727
11.984375,1951669.0,2045147.0,1904059.0,1950532.0,1912075.0,2231685.0,1699317.0,1507427.0,1892205.0,1580287.0,1532233.0,1836966.9090909092
12.0,1953161.0,2043234.0,1902749.0,1958776.0,1911136.0,2231614.0,1699213.0,1507372.0,1891331.0,1580303.0,1532306.0,1837381.3636363635
12.015625,1954738.0,2040078.0,1901611.0,1952657.0,1909975.0,2231957.0,1699177.0,1507256.0,1890638.0,1580166.0,1532890.0,1836467.5454545454
12.03125,1956168.0,2037324.0,1900473.0,1948745.0,1907993.0,2231993.0,1698765.0,1507794.0,1893736.0,1579214.0,1533195.0,1835945.4545454546
12.046875,1956340.0,2035629.0,1900053.0,1947770.0,1905778.0,2232091.0,1698458.0,1507906.0,1890227.0,1578876.0,1533588.0,1835156.0
12.0625,1951490.0,2034685.0,1899836.0,1946494.0,1903841.0,2232550.0,1697972.0,1507939.0,1889594.0,1579517.0,1533943.0,1834351.0
12.078125,1945990.0,2034511.0,1899425.0,1945161.0,1901847.0,2233016.0,1697617.0,1508454.0,1888429.0,1581150.0,1534451.0,1833641.0
12.09375,1942496.0,2035271.0,1899296.0,1943399.0,1900124.0,2234040.0,1697468.0,1508763.0,1889012.0,1583087.0,1534956.0,1833446.5454545454
12.109375,1940505.0,2036328.0,1899140.0,1942058.0,1898984.0,2234405.0,1697231.0,1508734.0,1888151.0,1585406.0,1535777.0,1833338.0909090908
12.125,1939173.0,2037294.0,1899294.0,1941204.0,1898790.0,2234890.0,1697468.0,1509326.0,1888171.0,1587724.0,1536347.0,1833607.3636363635
12.140625,1938922.0,2037586.0,1899708.0,1940506.0,1899794.0,2235556.0,1697394.0,1509411.0,1887857.0,1590284.0,1536981.0,1833999.9090909092
12.15625,1938595.0,2038335.0,1900104.0,1940355.0,1900454.0,2235707.0,1697498.0,1508891.0,1887750.0,1592957.0,1537812.0,1834405.2727272727
12.171875,1937551.0,2039051.0,1900594.0,1940325.0,1901893.0,2236623.0,1698000.0,1508554.0,1887846.0,1595874.0,1538574.0,1834989.5454545454
12.1875,1936372.0,2039469.0,1901296.0,1940495.0,1904117.0,2237029.0,1698004.0,1508090.0,1887867.0,1599240.0,1539337.0,1835574.1818181819
12.203125,1934837.0,2040356.0,1902108.0,1940874.0,1906886.0,2237594.0,1697470.0,1507764.0,1887750.0,1597776.0,1540021.0,1835766.9090909092
12.21875,1934372.0,2041561.0,1902814.0,1941201.0,1909041.0,2238189.0,1696377.0,1507301.0,1888118.0,1585915.0,1539701.0,1834962.7272727273
12.234375,1934549.0,2042668.0,1903343.0,1941388.0,1910656.0,2238695.0,1695146.0,1507301.0,1888195.0,1581909.0,1539346.0,1834836.0
12.25,1934754.0,2043256.0,1903886.0,1942057.0,1907236.0,2239587.0,1694158.0,1507277.0,1888305.0,1581864.0,1538963.0,1834667.5454545454
12.265625,1935153.0,2044734.0,1904290.0,1942450.0,1901596.0,2239899.0,1693738.0,1506946.0,1888696.0,1582657.0,1538919.0,1834461.6363636365
12.28125,1936397.0,2045782.0,1904761.0,1943270.0,1898047.0,2240575.0,1693165.0,1507093.0,1889120.0,1582817.0,1539226.0,1834568.4545454546
12.296875,1936705.0,2044625.0,1905116.0,1944086.0,1896504.0,2241011.0,1692964.0,1507051.0,1889126.0,1582421.0,1539849.0,1834496.1818181819
12.3125,1937580.0,2041948.0,1905484.0,1945441.0,1896168.0,2241229.0,1692804.0,1507522.0,1887907.0,1583535.0,1540386.0,1834545.8181818181
12.328125,1938296.0,2038510.0,1905397.0,1946142.0,1896178.0,2240064.0,1692834.0,1507377.0,1886635.0,1585204.0,1540971.0,1834328.0
12.34375,1938984.0,2035380.0,1904218.0,1947415.0,1896410.0,2238576.0,1692738.0,1507558.0,1885681.0,1587627.0,1541035.0,1834147.4545454546
12.359375,1940238.0,2033414.0,1902841.0,1948757.0,1895979.0,2237318.0,1692928.0,1507773.0,1884185.0,1590496.0,1541636.0,1834142.2727272727
12.375,1941393.0,2033107.0,1901841.0,1949861.0,1896895.0,2236784.0,1693295.0,1507984.0,1883641.0,1593480.0,1542249.0,1834593.6363636365
12.390625,1942423.0,2033099.0,1901174.0,1951123.0,1900331.0,2236564.0,1693595.0,1508486.0,1882946.0,1596564.0,1542902.0,1835382.4545454546
12.40625,1943878.0,2033665.0,1901341.0,1952573.0,1904885.0,2236622.0,1694268.0,1508793.0,1882507.0,1599261.0,1543364.0,1836468.8181818181
12.421875,1945339.0,2034496.0,1901289.0,1954030.0,1909217.0,2236539.0,1694763.0,1508750.0,1881919.0,1591017.0,1544220.0,1836507.1818181819
12.4375,1946386.0,2035159.0,1901413.0,1955073.0,1912462.0,2236948.0,1695464.0,1508275.0,1881503.0,1583418.0,1544910.0,1836455.5454545454
12.453125,1948114.0,2035634.0,1901717.0,1953186.0,1914625.0,2237061.0,1695695.0,1507698.0,1881527.0,1602449.0,1545749.0,1838495.9090909092
12.46875,1949483.0,2035810.0,1901980.0,1949243.0,1916902.0,2237211.0,1695082.0,1507145.0,1881502.0,1605894.0,1546160.0,1838764.7272727273
12.484375,1948673.0,2036462.0,1902604.0,1946414.0,1918254.0,2237335.0,1693952.0,1506648.0,1881468.0,1605606.0,1546069.0,1838498.6363636365
12.5,1943274.0,2036953.0,1903389.0,1944210.0,1920020.0,2237886.0,1692438.0,1506368.0,1881699.0,1591841.0,1545677.0,1836705.0
12.515625,1937758.0,2037497.0,1904516.0,1942450.0,1921494.0,2238789.0,1691265.0,1506156.0,1881617.0,1598870.0,1545059.0,1836861.0
12.53125,1933443.0,2038493.0,1905707.0,1941036.0,1923483.0,2238943.0,1690193.0,1506197.0,1881712.0,1587684.0,1544977.0,1835624.3636363635
12.546875,1931011.0,2039106.0,1907077.0,1940143.0,1925662.0,2239422.0,1689717.0,1506262.0,1882162.0,1584611.0,1545226.0,1835490.8181818181
12.5625,1929519.0,2039205.0,1908334.0,1939644.0,1928277.0,2239925.0,1689308.0,1506146.0,1882221.0,1581882.0,1545518.0,1835452.6363636365
12.578125,1928754.0,2039711.0,1909543.0,1939004.0,1930257.0,2240637.0,1688891.0,1506360.0,1882520.0,1582461.0,1545967.0,1835827.7272727273
12.59375,1928425.0,2039743.0,1911072.0,1937994.0,1927837.0,2241067.0,1688545.0,1506442.0,1885131.0,1580846.0,1546398.0,1835772.7272727273
12.609375,1927493.0,2037279.0,1912479.0,1937239.0,1921712.0,2241352.0,1688414.0,1506585.0,1882755.0,1580477.0,1546597.0,1834762.0
12.625,1925990.0,2032635.0,1913974.0,1936709.0,1916346.0,2242233.0,1688320.0,1506794.0,1883206.0,1581231.0,1546802.0,1834021.8181818181
12.640625,1924998.0,2027419.0,1914477.0,1936617.0,1913252.0,2242429.0,1688450.0,1507156.0,1884102.0,1582501.0,1547327.0,1833520.7272727273
12.65625,1924224.0,2023324.0,1914661.0,1937113.0,1912361.0,2242697.0,1688702.0,1507384.0,1883572.0,1584598.0,1547753.0,1833308.0909090908
12.671875,1924433.0,2020441.0,1914313.0,1937642.0,1911858.0,2243281.0,1688928.0,1507618.0,1882028.0,1587251.0,1548321.0,1833283.0909090908
12.6875,1925192.0,2019291.0,1914466.0,1938357.0,1912668.0,2244006.0,1689004.0,1507630.0,1879600.0,1589612.0,1548787.0,1833510.2727272727
12.703125,1925995.0,2018721.0,1914383.0,1939279.0,1913860.0,2244001.0,1689442.0,1506921.0,1878914.0,1592198.0,1549380.0,1833917.6363636365
12.71875,1927077.0,2018980.0,1914965.0,1939932.0,1915119.0,2244617.0,1689272.0,1506407.0,1877579.0,1581585.0,1549947.0,1833225.4545454546
12.734375,1927899.0,2019211.0,1915735.0,1940940.0,1916742.0,2245143.0,1689569.0,1505828.0,1876826.0,1594646.0,1550428.0,1834815.1818181819
12.75,1928624.0,2019275.0,1916075.0,1941772.0,1918850.0,2245250.0,1689381.0,1505367.0,1876247.0,1597720.0,1549542.0,1835282.0909090908
12.765625,1929628.0,2019203.0,1916399.0,1942859.0,1921653.0,2245649.0,1688381.0,1505403.0,1875660.0,1600376.0,1548834.0,1835822.2727272727
12.78125,1930691.0,2019204.0,1916817.0,1944137.0,1925165.0,2245820.0,1687144.0,1505283.0,1875146.0,1596693.0,1548161.0,1835841.9090909092
12.796875,1931792.0,2019516.0,1917360.0,1945319.0,1927917.0,2244931.0,1685678.0,1505028.0,1874508.0,1588329.0,1547673.0,1835277.3636363635
12.8125,1932958.0,2020025.0,1918215.0,1946886.0,1930932.0,2243261.0,1684291.0,1505227.0,1874177.0,1581849.0,1547844.0,1835060.4545454546
12.828125,1934465.0,2020774.0,1919003.0,1948122.0,1933598.0,2242126.0,1683264.0,1505055.0,1880698.0,1577835.0,1548027.0,1835724.2727272727
12.84375,1935855.0,2022023.0,1920012.0,1949870.0,1936890.0,2241403.0,1682533.0,1505303.0,1883643.0,1574994.0,1548100.0,1836420.5454545454
12.859375,1937282.0,2022965.0,1920711.0,1951768.0,1939376.0,2241241.0,1681952.0,1505373.0,1874164.0,1573203.0,1548187.0,1836020.1818181819
12.875,1938957.0,2024293.0,1921367.0,1953962.0,1942473.0,2240769.0,1681512.0,1505553.0,1874099.0,1572939.0,1548330.0,1836750.3636363635
12.890625,1940354.0,2025609.0,1922009.0,1955638.0,1945798.0,2240984.0,1681293.0,1505731.0,1874148.0,1572163.0,1548461.0,1837471.6363636365
12.90625,1942261.0,2024961.0,1922928.0,1957891.0,1950774.0,2241096.0,1680937.0,1506028.0,1874159.0,1571161.0,1548817.0,1838273.9090909092
12.921875,1942387.0,2022659.0,1923005.0,1959869.0,1956063.0,2240984.0,1680853.0,1506184.0,1874224.0,1571400.0,1549150.0,1838798.0
12.9375,1937457.0,2019852.0,1922431.0,1961754.0,1957905.0,2240856.0,1680832.0,1506453.0,1874011.0,1572209.0,1549673.0,1838493.9090909092
12.953125,1931247.0,2017362.0,1921144.0,1961997.0,1954137.0,2240944.0,1680935.0,1505779.0,1874173.0,1574231.0,1550218.0,1837469.7272727273
12.96875,1926639.0,2015844.0,1919891.0,1959255.0,1951547.0,2241177.0,1681007.0,1505255.0,1874227.0,1576229.0,1550833.0,1836536.7272727273
12.984375,1924081.0,2014945.0,1918909.0,1957030.0,1951139.0,2241141.0,1680974.0,1504541.0,1874618.0,1578650.0,1551151.0,1836107.1818181819
13.0,1922270.0,2015201.0,1918067.0,1954982.0,1950970.0,2241432.0,1681108.0,1504328.0,1874786.0,1581175.0,1551417.0,1835976.0
13.015625,1920833.0,2015980.0,1917719.0,1954015.0,1950525.0,2241948.0,1681236.0,1504009.0,1874965.0,1583654.0,1550568.0,1835950.1818181819
13.03125,1920359.0,2017562.0,1917716.0,1953099.0,1951166.0,2242063.0,1681420.0,1504030.0,1875285.0,1586137.0,1549167.0,1836182.1818181819
13.046875,1919833.0,2018341.0,1917379.0,1952612.0,1952307.0,2242277.0,1681667.0,1503615.0,1874534.0,1588854.0,1548158.0,1836325.1818181819
13.0625,1918711.0,2019149.0,1917355.0,1952638.0,1952321.0,2242271.0,1682065.0,1503811.0,1872700.0,1591361.0,1547633.0,1836365.0
13.078125,1917656.0,2019976.0,1917167.0,1952378.0,1953089.0,2242453.0,1682420.0,1503824.0,1871324.0,1587486.0,1547255.0,1835911.6363636365
13.09375,1917156.0,2021018.0,1916927.0,1952097.0,1953745.0,2242889.0,1682125.0,1504116.0,1870155.0,1579160.0,1547399.0,1835162.4545454546
13.109375,1917145.0,2022172.0,1916337.0,1951887.0,1955405.0,2243184.0,1680906.0,1504390.0,1869467.0,1572907.0,1547269.0,1834642.6363636365
13.125,1918008.0,2023435.0,1915910.0,1951989.0,1957575.0,2243476.0,1679681.0,1504468.0,1868610.0,1568895.0,1547144.0,1834471.9090909092
13.140625,1919019.0,2024638.0,1915737.0,1952599.0,1958984.0,2243794.0,1678250.0,1504600.0,1867676.0,1565942.0,1546849.0,1834371.6363636365
13.15625,1919825.0,2025756.0,1915501.0,1953527.0,1960959.0,2244387.0,1677178.0,1504983.0,1867305.0,1564425.0,1546686.0,1834593.8181818181
13.171875,1921048.0,2026864.0,1915209.0,1954508.0,1962794.0,2244458.0,1676103.0,1505029.0,1866886.0,1563980.0,1546804.0,1834880.2727272727
13.1875,1922220.0,2027405.0,1914904.0,1955548.0,1964871.0,2244955.0,1675340.0,1505396.0,1866368.0,1562998.0,1547215.0,1835201.8181818181
13.203125,1923087.0,2026357.0,1914707.0,1956615.0,1966839.0,2245390.0,1675136.0,1505186.0,1866266.0,1561747.0,1547597.0,1835357.0
13.21875,1924413.0,2023434.0,1914516.0,1957490.0,1969472.0,2245364.0,1674637.0,1504436.0,1866201.0,1561262.0,1547799.0,1835365.8181818181
13.234375,1925780.0,2019788.0,1914253.0,1958426.0,1972760.0,2244178.0,1674430.0,1503196.0,1866457.0,1561957.0,1548000.0,1835384.0909090908
13.25,1927160.0,2016699.0,1912960.0,1959202.0,1975819.0,2243046.0,1674358.0,1503820.0,1866703.0,1563545.0,1548383.0,1835608.6363636365
13.265625,1928702.0,2014830.0,1911246.0,1960156.0,1977747.0,2241931.0,1674262.0,1503235.0,1866911.0,1565367.0,1548523.0,1835719.0909090908
13.28125,1930786.0,2014244.0,1909878.0,1961254.0,1973070.0,2241023.0,1674516.0,1503206.0,1867130.0,1567516.0,1548990.0,1835601.1818181819
13.296875,1932165.0,2014438.0,1908808.0,1962395.0,1966051.0,2241101.0,1674742.0,1503055.0,1867573.0,1573876.0,1548584.0,1835708.0
13.3125,1934179.0,2015132.0,1907809.0,1963675.0,1957509.0,2241198.0,1675160.0,1503509.0,1868035.0,1569722.0,1547261.0,1834835.3636363635
13.328125,1936013.0,2015936.0,1907433.0,1964901.0,1950350.0,2241639.0,1675641.0,1503201.0,1867711.0,1576142.0,1546031.0,1834999.8181818181
13.34375,1937849.0,2017165.0,1907350.0,1966374.0,1944505.0,2241445.0,1675975.0,1503839.0,1868870.0,1577437.0,1545157.0,1835087.8181818181
13.359375,1939540.0,2019111.0,1907328.0,1967733.0,1940015.0,2241655.0,1676156.0,1503519.0,1869301.0,1571615.0,1544413.0,1834580.5454545454
13.375,1938312.0,2016398.0,1907604.0,1969257.0,1937262.0,2241552.0,1676602.0,1504016.0,1869800.0,1559317.0,1544521.0,1833149.1818181819
13.390625,1933115.0,2018178.0,1908391.0,1970817.0,1934815.0,2241547.0,1677130.0,1504336.0,1870248.0,1555399.0,1544279.0,1832568.6363636365
13.40625,1928726.0,2017416.0,1909853.0,1972272.0,1932058.0,2242283.0,1677814.0,1504549.0,1870073.0,1556870.0,1543908.0,1832347.4545454546
13.421875,1926396.0,2019801.0,1911675.0,1973807.0,1930072.0,2242631.0,1678407.0,1504493.0,1868114.0,1571837.0,1543932.0,1833742.2727272727
13.4375,1925120.0,2021003.0,1913374.0,1974522.0,1928693.0,2243103.0,1678729.0,1504937.0,1866431.0,1563921.0,1543822.0,1833059.5454545454
13.453125,1924906.0,2021862.0,1914937.0,1972557.0,1928815.0,2243310.0,1678199.0,1504685.0,1865522.0,1555198.0,1543505.0,1832136.0
13.46875,1925159.0,2023177.0,1916725.0,1969886.0,1929932.0,2243983.0,1677390.0,1504064.0,1864382.0,1555255.0,1543613.0,1832142.3636363635
13.484375,1925131.0,2024207.0,1918258.0,1967983.0,1931690.0,2244090.0,1676431.0,1503429.0,1863154.0,1554400.0,1544031.0,1832073.0909090908
13.5,1924778.0,2024044.0,1920078.0,1966524.0,1933004.0,2244504.0,1675446.0,1503255.0,1862339.0,1553695.0,1544332.0,1831999.9090909092
13.515625,1923969.0,2021549.0,1921936.0,1965432.0,1935644.0,2244715.0,1674840.0,1503293.0,1861840.0,1554521.0,1544409.0,1832013.4545454546
13.53125,1923300.0,2018349.0,1923321.0,1964813.0,1938354.0,2244976.0,1674458.0,1503044.0,1868385.0,1556840.0,1544779.0,1832783.5454545454
13.546875,1923611.0,2015547.0,1925205.0,1964644.0,1940795.0,2245535.0,1674318.0,1503197.0,1861190.0,1558886.0,1545143.0,1832551.9090909092
13.5625,1924835.0,2013690.0,1926527.0,1964424.0,1943776.0,2245907.0,1674148.0,1503389.0,1860595.0,1561738.0,1545508.0,1833139.7272727273
13.578125,1925783.0,2012319.0,1927842.0,1963574.0,1946368.0,2246293.0,1674221.0,1503046.0,1860185.0,1564842.0,1545802.0,1833661.3636363635
13.59375,1926863.0,2012449.0,1928881.0,1962562.0,1944819.0,2246779.0,1674253.0,1503521.0,1859978.0,1570599.0,1546020.0,1834247.6363636365
13.609375,1928363.0,2012424.0,1929066.0,1961804.0,1938137.0,2247070.0,1674495.0,1503680.0,1860074.0,1573703.0,1545610.0,1834038.7272727273
13.625,1929755.0,2013001.0,1927732.0,1961294.0,1932090.0,2245842.0,1675002.0,1504074.0,1860332.0,1576139.0,1544442.0,1833609.3636363635
13.640625,1930821.0,2013217.0,1926457.0,1961159.0,1928578.0,2244145.0,1675516.0,1504376.0,1860467.0,1572178.0,1543420.0,1832757.6363636365
13.65625,1932242.0,2013455.0,1925313.0,1961423.0,1927548.0,2242452.0,1676099.0,1504817.0,1860640.0,1564175.0,1542542.0,1831882.3636363635
13.671875,1933449.0,2013915.0,1924211.0,1961690.0,1927010.0,2241470.0,1676596.0,1505195.0,1860854.0,1558809.0,1542298.0,1831408.8181818181
13.6875,1935098.0,2013546.0,1923048.0,1961908.0,1927733.0,2240806.0,1677207.0,1505254.0,1861189.0,1556186.0,1542367.0,1831303.8181818181
13.703125,1937078.0,2012756.0,1922339.0,1962700.0,1928917.0,2240268.0,1677725.0,1504801.0,1861997.0,1554357.0,1542429.0,1831397.0
