timestamp,bvp,eda,temp,PPG GREEN
1675334892.890625,-124.33,0.720158,35.21,2145775.0
1675334892.90625,-129.77,0.670201,35.23,2153288.0
1675334892.921875,-134.48,0.694539,35.23,2156475.0
1675334892.9375,-136.57,0.689415,35.23,2157211.0
1675334892.953125,-135.11,0.70863,35.23,2148581.0
1675334892.96875,-130.74,0.73681,35.23,2158531.0
1675334892.984375,-125.53,0.745777,35.23,2160649.0
1675334893.0,-122.24,0.757306,35.23,2164967.0
1675334893.015625,-123.23,0.768834,35.23,2166810.0
1675334893.03125,-129.58,0.784205,35.21,2168795.0
1675334893.046875,-140.74,0.791891,35.21,2170747.0
1675334893.0625,-154.89,0.80342,35.21,2173477.0
1675334893.078125,-169.42,0.8047,35.21,2168965.0
1675334893.09375,-181.38,0.805981,35.21,2176533.0
1675334893.109375,-187.82,0.799577,35.21,2166224.0
1675334893.125,-185.89,0.798296,35.21,2162643.0
1675334893.140625,-173.5,0.8047,35.21,2162883.0
1675334893.15625,-149.97,0.814948,35.18,2165638.0
1675334893.171875,-116.51,0.809824,35.18,2166579.0
1675334893.1875,-76.07,0.795734,35.18,2167540.0
1675334893.203125,-32.4,0.797015,35.18,2168527.0
1675334893.21875,11.43,0.799577,35.21,2170074.0
1675334893.234375,53.94,0.807262,35.21,2167574.0
1675334893.25,95.15,0.813667,35.21,2174969.0
1675334893.265625,135.38,0.811105,35.21,2169525.0
1675334893.28125,173.63,0.80342,35.18,2177542.0
1675334893.296875,206.7,0.811105,35.18,2177178.0
1675334893.3125,229.95,0.802139,35.18,2177285.0
1675334893.328125,239.27,0.80342,35.18,2178868.0
1675334893.34375,233.31,0.807262,35.16,2177362.0
1675334893.359375,214.6,0.808543,35.16,2175235.0
1675334893.375,188.64,0.812386,35.16,2172532.0
1675334893.390625,161.73,0.807262,35.16,2168613.0
1675334893.40625,138.32,0.797015,35.15,2164791.0
1675334893.421875,119.69,0.794453,35.15,2163623.0
1675334893.4375,104.09,0.791891,35.15,2175327.0
1675334893.453125,88.39,0.795734,35.15,2178592.0
1675334893.46875,69.93,0.785486,35.15,2168068.0
1675334893.484375,47.66,0.793172,35.15,2154297.0
1675334893.5,22.19,0.800858,35.15,2143924.0
1675334893.515625,-4.97,0.821353,35.15,2138770.0
1675334893.53125,-31.94,0.8316,35.15,2136483.0
1675334893.546875,-56.69,0.830319,35.15,2133417.0
1675334893.5625,-76.95,0.821353,35.15,2131981.0
1675334893.578125,-90.23,0.81751,35.15,2130052.0
1675334893.59375,-94.55,0.818791,35.15,2128247.0
1675334893.609375,-89.71,0.813667,35.15,2127108.0
1675334893.625,-77.92,0.811105,35.15,2125615.0
1675334893.640625,-63.65,0.811105,35.15,2121577.0
1675334893.65625,-52.18,0.814948,35.11,2117884.0
1675334893.671875,-47.63,0.813667,35.11,2113940.0
1675334893.6875,-51.17,0.814948,35.11,2110416.0
1675334893.703125,-60.69,0.813667,35.11,2107524.0
1675334893.71875,-71.56,0.81751,35.13,2105039.0
1675334893.734375,-78.39,0.816229,35.13,2102447.0
1675334893.75,-76.8,0.807262,35.13,2099995.0
1675334893.765625,-64.57,0.802139,35.13,2097801.0
1675334893.78125,-42.15,0.800858,35.11,2095489.0
1675334893.796875,-12.33,0.785486,35.11,2092465.0
1675334893.8125,20.67,0.786767,35.11,2093778.0
1675334893.828125,52.58,0.786767,35.11,2088036.0
1675334893.84375,80.3,0.788048,35.11,2091006.0
1675334893.859375,102.8,0.797015,35.11,2089395.0
1675334893.875,121.02,0.799577,35.11,2086719.0
1675334893.890625,137.1,0.798296,35.11,2082185.0
1675334893.90625,153.09,0.80342,35.11,2074678.0
1675334893.921875,169.86,0.802139,35.11,2070926.0
1675334893.9375,186.77,0.807262,35.11,2078258.0
1675334893.953125,202.3,0.811105,35.11,2087273.0
1675334893.96875,215.37,0.81751,35.09,2085302.0
1675334893.984375,226.09,0.823915,35.09,2067562.0
1675334894.0,235.74,0.827757,35.09,2064714.0
1675334894.015625,245.71,0.827757,35.09,2062669.0
1675334894.03125,256.4,0.821353,35.07,2061111.0
1675334894.046875,267.15,0.825196,35.07,2059595.0
1675334894.0625,277.09,0.836724,35.07,2058485.0
1675334894.078125,286.46,0.812386,35.07,2057752.0
1675334894.09375,297.06,0.84441,35.07,2058152.0
1675334894.109375,311.38,0.850815,35.07,2056906.0
1675334894.125,330.79,0.868748,35.07,2056583.0
1675334894.140625,354.17,0.880276,35.07,2056871.0
1675334894.15625,377.67,0.881557,35.07,2058909.0
1675334894.171875,396.13,0.8854,35.07,2061360.0
1675334894.1875,405.18,0.903333,35.07,2063315.0
1675334894.203125,402.95,0.873872,35.07,2063781.0
1675334894.21875,390.26,0.863624,35.07,2063666.0
1675334894.234375,369.74,0.872591,35.07,2063774.0
1675334894.25,344.25,0.872591,35.07,2064313.0
1675334894.265625,315.88,0.867467,35.07,2066949.0
1675334894.28125,285.81,0.863624,35.09,2069121.0
1675334894.296875,254.85,0.862343,35.09,2072663.0
1675334894.3125,223.77,0.867467,35.09,2075902.0
1675334894.328125,193.33,0.867467,35.09,2078788.0
1675334894.34375,163.81,0.87131,35.09,2079950.0
1675334894.359375,134.87,0.872591,35.09,2082519.0
1675334894.375,105.52,0.873872,35.09,2083169.0
1675334894.390625,74.45,0.877714,35.09,2082996.0
1675334894.40625,40.29,0.882838,35.05,2082572.0
1675334894.421875,1.82,0.886681,35.05,2083891.0
1675334894.4375,-41.76,0.8854,35.05,2085757.0
1675334894.453125,-90.24,0.8854,35.05,2087387.0
1675334894.46875,-141.83,0.870029,35.03,2087026.0
1675334894.484375,-192.94,0.863624,35.03,2087113.0
1675334894.5,-238.71,0.862343,35.03,2086953.0
1675334894.515625,-274.26,0.868748,35.03,2086742.0
1675334894.53125,-296.3,0.875152,35.05,2087505.0
1675334894.546875,-304.2,0.87131,35.05,2088919.0
1675334894.5625,-300.08,0.870029,35.05,2090528.0
1675334894.578125,-287.79,0.864905,35.05,2091700.0
1675334894.59375,-271.38,0.862343,35.05,2092892.0
1675334894.609375,-253.94,0.859781,35.05,2093662.0
1675334894.625,-237.05,0.845691,35.05,2094891.0
1675334894.640625,-221.17,0.8585,35.05,2096031.0
1675334894.65625,-206.37,0.852095,35.05,2097687.0
1675334894.671875,-192.86,0.852095,35.05,2098679.0
1675334894.6875,-181.03,0.853376,35.05,2099985.0
1675334894.703125,-171.13,0.853376,35.05,2101451.0
1675334894.71875,-162.88,0.852095,35.03,2103569.0
1675334894.734375,-155.42,0.848253,35.03,2105105.0
1675334894.75,-147.67,0.849534,35.03,2105352.0
1675334894.765625,-138.83,0.8585,35.03,2105612.0
1675334894.78125,-128.72,0.849534,35.0,2105787.0
1675334894.796875,-117.94,0.843129,35.0,2105917.0
1675334894.8125,-107.61,0.845691,35.0,2106659.0
1675334894.828125,-98.76,0.846972,35.0,2107526.0
1675334894.84375,-91.91,0.850815,35.03,2108840.0
1675334894.859375,-86.77,0.852095,35.03,2110451.0
1675334894.875,-82.42,0.853376,35.03,2111614.0
1675334894.890625,-77.77,0.855938,35.03,2113361.0
1675334894.90625,-72.1,0.850815,35.0,2114768.0
1675334894.921875,-65.35,0.8585,35.0,2116947.0
1675334894.9375,-58.14,0.864905,35.0,2118661.0
1675334894.953125,-51.38,0.868748,35.0,2120601.0
1675334894.96875,-45.89,0.873872,35.0,2122925.0
1675334894.984375,-42.09,0.877714,35.0,2124779.0
1675334895.0,-40.01,0.881557,35.0,2126768.0
1675334895.015625,-39.46,0.881557,35.0,2129422.0
1675334895.03125,-40.3,0.887962,34.99,2131513.0
1675334895.046875,-42.42,0.884119,34.99,2133059.0
1675334895.0625,-45.69,0.8854,34.99,2133893.0
1675334895.078125,-49.75,0.8854,34.99,2134811.0
1675334895.09375,-53.86,0.889243,35.0,2135375.0
1675334895.109375,-57.05,0.884119,35.0,2136134.0
1675334895.125,-58.33,0.886681,35.0,2136937.0
1675334895.140625,-57.05,0.8854,35.0,2138507.0
1675334895.15625,-53.12,0.884119,34.99,2139971.0
1675334895.171875,-47.08,0.887962,34.99,2141641.0
1675334895.1875,-39.82,0.881557,34.99,2142924.0
1675334895.203125,-32.25,0.868748,34.99,2144558.0
1675334895.21875,-25.01,0.868748,34.99,2146389.0
1675334895.234375,-18.35,0.866186,34.99,2148683.0
1675334895.25,-12.23,0.862343,34.99,2150845.0
1675334895.265625,-6.48,0.863624,34.99,2153317.0
1675334895.28125,-1.03,0.868748,34.97,2155600.0
1675334895.296875,3.97,0.877714,34.97,2158150.0
1675334895.3125,8.25,0.872591,34.97,2161485.0
1675334895.328125,11.46,0.87131,34.97,2165821.0
1675334895.34375,13.43,0.870029,34.97,2170723.0
1675334895.359375,14.24,0.872591,34.97,2175620.0
1675334895.375,14.15,0.876433,34.97,2179217.0
1675334895.390625,13.61,0.873872,34.97,2179706.0
1675334895.40625,13.05,0.875152,34.97,2180370.0
1675334895.421875,12.78,0.872591,34.97,2182535.0
1675334895.4375,12.81,0.877714,34.97,2184285.0
1675334895.453125,13.02,0.876433,34.97,2187631.0
1675334895.46875,13.21,0.875152,34.95,2191180.0
1675334895.484375,13.21,0.878995,34.95,2193168.0
1675334895.5,13.04,0.887962,34.95,2194670.0
1675334895.515625,12.75,0.902052,34.95,2195187.0
1675334895.53125,12.37,0.909738,34.95,2196904.0
1675334895.546875,11.75,0.9123,34.95,2199370.0
1675334895.5625,10.61,0.907176,34.95,2200575.0
1675334895.578125,8.67,0.909738,34.95,2202675.0
1675334895.59375,5.83,0.903333,34.95,2205211.0
1675334895.609375,2.22,0.89821,34.95,2206882.0
1675334895.625,-1.79,0.894367,34.95,2208874.0
1675334895.640625,-5.78,0.891805,34.95,2211445.0
1675334895.65625,-9.4,0.890524,34.93,2214768.0
1675334895.671875,-12.45,0.891805,34.93,2216702.0
1675334895.6875,-14.9,0.889243,34.93,2219404.0
1675334895.703125,-16.81,0.886681,34.93,2220688.0
1675334895.71875,-18.3,0.880276,34.93,2221027.0
1675334895.734375,-19.64,0.881557,34.93,2221282.0
1675334895.75,-21.14,0.884119,34.93,2222995.0
1675334895.765625,-23.18,0.882838,34.93,2224374.0
1675334895.78125,-26.06,0.886681,34.93,2225829.0
1675334895.796875,-29.91,0.8854,34.93,2227100.0
1675334895.8125,-34.59,0.890524,34.93,2229334.0
1675334895.828125,-39.75,0.890524,34.93,2230597.0
1675334895.84375,-44.86,0.893086,34.91,2231584.0
1675334895.859375,-49.37,0.882838,34.91,2233037.0
1675334895.875,-52.69,0.877714,34.91,2234942.0
1675334895.890625,-54.35,0.866186,34.91,2235646.0
1675334895.90625,-53.97,0.866186,34.91,2237121.0
1675334895.921875,-51.39,0.862343,34.91,2238226.0
1675334895.9375,-46.68,0.836724,34.91,2240065.0
1675334895.953125,-40.14,0.843129,34.91,2240052.0
1675334895.96875,-32.25,0.853376,34.91,2239919.0
1675334895.984375,-23.57,0.857219,34.91,2239302.0
1675334896.0,-14.61,0.862343,34.91,2238618.0
1675334896.015625,-5.82,0.859781,34.91,2237525.0
1675334896.03125,2.49,0.853376,34.91,2237427.0
1675334896.046875,10.02,0.863624,34.91,2237470.0
1675334896.0625,16.5,0.861062,34.91,2237947.0
1675334896.078125,21.68,0.862343,34.91,2238257.0
1675334896.09375,25.45,0.868748,34.91,2238605.0
1675334896.109375,27.8,0.875152,34.91,2239427.0
1675334896.125,28.95,0.900771,34.91,2240270.0
1675334896.140625,29.29,0.880276,34.91,2241243.0
1675334896.15625,29.19,0.868748,34.87,2241948.0
1675334896.171875,29.03,0.872591,34.87,2242603.0
1675334896.1875,28.99,0.876433,34.87,2243427.0
1675334896.203125,29.1,0.873872,34.87,2244486.0
1675334896.21875,29.23,0.872591,34.91,2245628.0
1675334896.234375,29.16,0.870029,34.91,2246661.0
1675334896.25,28.68,0.87131,34.91,2246901.0
1675334896.265625,27.66,0.873872,34.91,2246748.0
1675334896.28125,26.2,0.864905,34.87,2246098.0
1675334896.296875,24.44,0.87131,34.87,2246602.0
1675334896.3125,22.66,0.876433,34.87,2248228.0
1675334896.328125,20.96,0.889243,34.87,2250438.0
1675334896.34375,19.28,0.896929,34.89,2241909.0
1675334896.359375,17.37,0.89821,34.89,2226027.0
1675334896.375,14.95,0.902052,34.89,2200672.0
1675334896.390625,11.8,0.902052,34.89,2172012.0
1675334896.40625,7.96,0.903333,34.87,2157526.0
1675334896.421875,3.75,0.902052,34.87,2147292.0
1675334896.4375,-0.43,0.89949,34.87,2142267.0
1675334896.453125,-4.25,0.89821,34.87,2138266.0
1675334896.46875,-7.66,0.89821,34.84,2134454.0
1675334896.484375,-10.89,0.89821,34.84,2131764.0
1675334896.5,-14.4,0.89949,34.84,2129755.0
1675334896.515625,-18.59,0.894367,34.84,2127518.0
1675334896.53125,-23.68,0.884119,34.84,2126487.0
1675334896.546875,-29.53,0.887962,34.84,2125244.0
1675334896.5625,-35.66,0.893086,34.84,2124446.0
1675334896.578125,-41.33,0.895648,34.84,2122928.0
1675334896.59375,-45.67,0.895648,34.84,2120908.0
1675334896.609375,-47.88,0.895648,34.84,2119576.0
1675334896.625,-47.32,0.909738,34.84,2121066.0
1675334896.640625,-43.62,0.9123,34.84,2123370.0
1675334896.65625,-36.8,0.9123,34.87,2124343.0
1675334896.671875,-27.36,0.911019,34.87,2127976.0
1675334896.6875,-16.12,0.917424,34.87,2133475.0
1675334896.703125,-4.11,0.935357,34.87,2140110.0
1675334896.71875,7.7,0.946885,34.84,2144334.0
1675334896.734375,18.64,0.952009,34.84,2147513.0
1675334896.75,28.34,0.946885,34.84,2149587.0
1675334896.765625,36.71,0.955852,34.84,2152691.0
1675334896.78125,43.72,0.958414,34.83,2155258.0
1675334896.796875,49.23,0.955852,34.83,2157476.0
1675334896.8125,53.06,0.950728,34.83,2159665.0
1675334896.828125,55.02,0.946885,34.83,2162042.0
1675334896.84375,55.14,0.949447,34.83,2164425.0
1675334896.859375,53.81,0.957133,34.83,2167660.0
1675334896.875,51.69,0.957133,34.83,2170019.0
1675334896.890625,49.49,0.936638,34.83,2171324.0
1675334896.90625,47.75,0.930233,34.84,2171326.0
1675334896.921875,46.57,0.932795,34.84,2170997.0
1675334896.9375,45.69,0.948166,34.84,2170340.0
1675334896.953125,44.65,0.949447,34.84,2169375.0
1675334896.96875,43.09,0.946885,34.83,2169088.0
1675334896.984375,40.93,0.945604,34.83,2169036.0
1675334897.0,38.4,0.95329,34.83,2169501.0
1675334897.015625,35.85,0.931514,34.83,2169563.0
1675334897.03125,33.5,0.935357,34.81,2169522.0
1675334897.046875,31.32,0.944324,34.81,2169525.0
1675334897.0625,29.01,0.967381,34.81,2169020.0
1675334897.078125,26.19,0.99428,34.81,2170223.0
1675334897.09375,22.62,1.010933,34.81,2170739.0
1675334897.109375,18.36,1.013495,34.81,2171616.0
1675334897.125,13.71,0.986595,34.81,2171536.0
1675334897.140625,9.02,0.999404,34.81,2170465.0
1675334897.15625,4.55,1.013495,34.81,2169047.0
1675334897.171875,0.34,1.012214,34.81,2167972.0
1675334897.1875,-3.69,1.001966,34.81,2166961.0
1675334897.203125,-7.72,0.99428,34.81,2166635.0
1675334897.21875,-11.89,0.986595,34.79,2166849.0
1675334897.234375,-16.32,0.985314,34.79,2165562.0
1675334897.25,-21.09,0.978909,34.79,2163275.0
1675334897.265625,-26.17,0.976347,34.79,2161476.0
1675334897.28125,-31.32,0.972504,34.77,2158871.0
1675334897.296875,-35.98,0.971223,34.77,2156835.0
1675334897.3125,-39.27,0.968661,34.77,2156417.0
1675334897.328125,-40.12,0.9661,34.77,2157675.0
1675334897.34375,-37.65,0.963538,34.77,2158731.0
1675334897.359375,-31.46,0.9661,34.77,2161253.0
1675334897.375,-21.85,0.968661,34.77,2162712.0
1675334897.390625,-9.8,0.973785,34.77,2164390.0
1675334897.40625,3.31,0.969942,34.79,2165408.0
1675334897.421875,16.1,0.969942,34.79,2166765.0
1675334897.4375,27.59,0.971223,34.79,2169996.0
1675334897.453125,37.33,0.972504,34.79,2170262.0
1675334897.46875,45.39,0.969942,34.77,2170749.0
1675334897.484375,52.1,0.963538,34.77,2161324.0
1675334897.5,57.77,0.964819,34.77,2137568.0
1675334897.515625,62.45,0.963538,34.77,2124843.0
1675334897.53125,65.9,0.959695,34.77,2116217.0
1675334897.546875,67.71,0.95329,34.77,2111856.0
1675334897.5625,67.48,0.949447,34.77,2111047.0
1675334897.578125,65.08,0.946885,34.77,2109514.0
1675334897.59375,60.65,0.944324,34.75,2109102.0
1675334897.609375,54.55,0.937919,34.75,2107970.0
1675334897.625,47.2,0.934076,34.75,2106824.0
1675334897.640625,39.03,0.931514,34.75,2106026.0
1675334897.65625,30.4,0.932795,34.75,2105096.0
1675334897.671875,21.77,0.931514,34.75,2104705.0
1675334897.6875,13.7,0.92639,34.75,2104573.0
1675334897.703125,6.7,0.928952,34.75,2104684.0
1675334897.71875,1.14,0.931514,34.75,2104417.0
1675334897.734375,-2.97,0.937919,34.75,2104151.0
1675334897.75,-5.95,0.9392,34.75,2104366.0
1675334897.765625,-8.26,0.937919,34.75,2101449.0
1675334897.78125,-10.23,0.937919,34.73,2103667.0
1675334897.796875,-11.93,0.936638,34.73,2098511.0
1675334897.8125,-13.18,0.9392,34.73,2095322.0
1675334897.828125,-13.79,0.935357,34.73,2092113.0
1675334897.84375,-13.79,0.935357,34.73,2089051.0
1675334897.859375,-13.5,0.931514,34.73,2087569.0
1675334897.875,-13.36,0.935357,34.73,2086458.0
1675334897.890625,-13.71,0.932795,34.73,2084891.0
1675334897.90625,-14.57,0.914862,34.73,2084391.0
1675334897.921875,-15.68,0.918705,34.73,2084495.0
1675334897.9375,-16.73,0.927671,34.73,2085655.0
1675334897.953125,-17.59,0.9392,34.73,2086308.0
1675334897.96875,-18.4,0.946885,34.71,2084488.0
1675334897.984375,-19.51,0.975066,34.71,2088770.0
1675334898.0,-21.1,0.976347,34.71,2087536.0
1675334898.015625,-23.12,0.978909,34.71,2089710.0
1675334898.03125,-25.07,0.98019,34.71,2090701.0
1675334898.046875,-26.26,0.984033,34.71,2091490.0
1675334898.0625,-26.1,0.98019,34.71,2090457.0
1675334898.078125,-24.33,0.967381,34.71,2087184.0
1675334898.09375,-21.25,0.954571,34.71,2083944.0
1675334898.109375,-17.46,0.949447,34.71,2080833.0
1675334898.125,-13.62,0.949447,34.71,2077287.0
1675334898.140625,-10.12,0.948166,34.71,2074370.0
1675334898.15625,-6.82,0.946885,34.71,2069446.0
1675334898.171875,-3.2,0.941762,34.71,2066998.0
1675334898.1875,1.27,0.944324,34.71,2065052.0
1675334898.203125,6.94,0.960976,34.71,2071669.0
1675334898.21875,13.9,0.948166,34.68,2090340.0
1675334898.234375,22.1,0.948166,34.68,2063670.0
1675334898.25,31.57,0.955852,34.68,2062705.0
1675334898.265625,42.3,0.968661,34.68,2061754.0
1675334898.28125,53.82,0.984033,34.68,2059995.0
1675334898.296875,64.9,0.982752,34.68,2059146.0
1675334898.3125,73.62,1.019899,34.68,2060988.0
1675334898.328125,78.15,0.996842,34.68,2057234.0
1675334898.34375,77.75,0.995561,34.68,2056582.0
1675334898.359375,73.39,0.989157,34.68,2055429.0
1675334898.375,67.33,0.982752,34.68,2052279.0
1675334898.390625,61.92,0.977628,34.68,2058057.0
1675334898.40625,58.2,0.973785,34.68,2047848.0
1675334898.421875,55.28,0.968661,34.68,2042031.0
1675334898.4375,50.95,0.962257,34.68,2036405.0
1675334898.453125,43.17,0.955852,34.68,2031422.0
1675334898.46875,31.45,0.954571,34.68,2027221.0
1675334898.484375,17.26,0.952009,34.68,2024374.0
1675334898.5,3.25,0.950728,34.68,2021525.0
1675334898.515625,-8.22,0.950728,34.68,2018300.0
1675334898.53125,-16.17,0.944324,34.68,2009155.0
1675334898.546875,-21.2,0.941762,34.68,2012992.0
1675334898.5625,-24.69,0.943043,34.68,2007909.0
1675334898.578125,-27.91,0.941762,34.68,2010914.0
1675334898.59375,-31.38,0.941762,34.66,2015317.0
1675334898.609375,-35.03,0.950728,34.66,2006193.0
1675334898.625,-38.75,0.959695,34.66,2004722.0
1675334898.640625,-42.78,0.968661,34.66,2003400.0
1675334898.65625,-47.87,0.969942,34.66,2002537.0
1675334898.671875,-54.67,0.968661,34.66,2000396.0
1675334898.6875,-63.3,0.969942,34.66,1996160.0
1675334898.703125,-72.96,0.968661,34.66,1991506.0
1675334898.71875,-82.08,0.967381,34.66,1985862.0
1675334898.734375,-88.85,0.967381,34.66,1980029.0
1675334898.75,-91.78,0.968661,34.66,1974030.0
1675334898.765625,-90.18,0.972504,34.66,1976661.0
1675334898.78125,-84.25,0.976347,34.65,1972043.0
1675334898.796875,-74.9,0.976347,34.65,1969779.0
1675334898.8125,-63.38,0.972504,34.65,1965291.0
1675334898.828125,-50.93,0.969942,34.65,1962469.0
1675334898.84375,-38.46,0.968661,34.65,1960500.0
1675334898.859375,-26.62,0.964819,34.65,1960697.0
1675334898.875,-15.65,0.963538,34.65,1960732.0
1675334898.890625,-5.69,0.959695,34.65,1963307.0
1675334898.90625,3.15,0.959695,34.65,1962021.0
1675334898.921875,10.69,0.959695,34.65,1964920.0
1675334898.9375,16.76,0.958414,34.65,1966337.0
1675334898.953125,21.22,0.954571,34.65,1967961.0
1675334898.96875,24.2,0.954571,34.65,1969666.0
1675334898.984375,26.05,0.95329,34.65,1971353.0
1675334899.0,27.3,0.95329,34.65,1971705.0
1675334899.015625,28.48,0.950728,34.65,1969848.0
1675334899.03125,29.94,0.954571,34.65,1967638.0
1675334899.046875,31.73,0.946885,34.65,1964511.0
1675334899.0625,33.54,0.952009,34.65,1961849.0
1675334899.078125,34.91,0.946885,34.65,1960365.0
1675334899.09375,35.39,0.959695,34.63,1960925.0
1675334899.109375,34.71,0.960976,34.63,1961277.0
1675334899.125,32.9,0.963538,34.63,1964708.0
1675334899.140625,30.15,0.962257,34.63,1968621.0
1675334899.15625,26.83,0.964819,34.63,1972385.0
1675334899.171875,23.29,0.963538,34.63,1976287.0
1675334899.1875,19.84,0.962257,34.63,1981034.0
1675334899.203125,16.63,0.958414,34.63,1984617.0
1675334899.21875,13.71,0.959695,34.61,1986695.0
1675334899.234375,10.93,0.958414,34.61,1980836.0
1675334899.25,8.08,0.958414,34.61,1970830.0
1675334899.265625,5.0,0.958414,34.61,1960961.0
1675334899.28125,1.61,0.960976,34.61,1954811.0
1675334899.296875,-1.94,0.960976,34.61,1954151.0
1675334899.3125,-5.38,0.962257,34.61,1956569.0
1675334899.328125,-8.45,0.962257,34.61,1957509.0
1675334899.34375,-11.03,0.959695,34.63,1955670.0
1675334899.359375,-13.25,0.958414,34.63,1953455.0
1675334899.375,-15.42,0.960976,34.63,1952657.0
1675334899.390625,-17.86,0.963538,34.63,1951569.0
1675334899.40625,-20.81,0.962257,34.59,1950621.0
1675334899.421875,-24.37,0.959695,34.59,1951320.0
1675334899.4375,-28.58,0.959695,34.59,1953096.0
1675334899.453125,-33.41,0.960976,34.59,1954413.0
1675334899.46875,-38.79,0.962257,34.63,1955272.0
1675334899.484375,-44.41,0.959695,34.63,1956908.0
1675334899.5,-49.67,0.957133,34.63,1957876.0
1675334899.515625,-53.69,0.955852,34.63,1958616.0
1675334899.53125,-55.55,0.958414,34.61,1960007.0
1675334899.546875,-54.63,0.957133,34.61,1961620.0
1675334899.5625,-50.86,0.957133,34.61,1963376.0
1675334899.578125,-44.74,0.95329,34.61,1964840.0
1675334899.59375,-37.11,0.950728,34.57,1966856.0
1675334899.609375,-28.78,0.952009,34.57,1968816.0
1675334899.625,-20.19,0.952009,34.57,1970449.0
1675334899.640625,-11.45,0.95329,34.57,1970789.0
1675334899.65625,-2.38,0.95329,34.59,1969661.0
1675334899.671875,7.04,0.949447,34.59,1968762.0
1675334899.6875,16.56,0.952009,34.59,1967700.0
1675334899.703125,25.51,0.95329,34.59,1966688.0
1675334899.71875,33.1,0.952009,34.59,1966122.0
1675334899.734375,38.63,0.95329,34.59,1966475.0
1675334899.75,41.79,0.960976,34.59,1966670.0
1675334899.765625,42.78,0.962257,34.59,1967580.0
1675334899.78125,42.21,0.971223,34.61,1968616.0
1675334899.796875,40.87,0.975066,34.61,1970221.0
1675334899.8125,39.48,0.972504,34.61,1971657.0
1675334899.828125,38.52,0.945604,34.61,1973448.0
1675334899.84375,38.15,0.955852,34.59,1975475.0
1675334899.859375,38.31,0.964819,34.59,1977200.0
1675334899.875,38.77,0.9661,34.59,1979318.0
1675334899.890625,39.19,0.968661,34.59,1981845.0
1675334899.90625,39.18,0.976347,34.61,1984808.0
1675334899.921875,38.39,0.982752,34.61,1987069.0
1675334899.9375,36.61,0.989157,34.61,1988698.0
1675334899.953125,33.85,0.991718,34.61,1990274.0
1675334899.96875,30.42,0.992999,34.59,1992269.0
1675334899.984375,26.81,0.989157,34.59,1993344.0
1675334900.0,23.54,0.989157,34.59,1993759.0
1675334900.015625,20.88,0.985314,34.59,1995073.0
1675334900.03125,18.71,0.978909,34.59,1997420.0
1675334900.046875,16.52,0.971223,34.59,2000073.0
1675334900.0625,13.64,0.975066,34.59,2002606.0
1675334900.078125,9.4,0.967381,34.59,2004833.0
1675334900.09375,3.53,0.967381,34.57,2007974.0
1675334900.109375,-3.79,0.967381,34.57,2010129.0
1675334900.125,-11.86,0.9661,34.57,2012915.0
1675334900.140625,-19.66,0.968661,34.57,2015650.0
1675334900.15625,-26.09,0.969942,34.57,2018634.0
1675334900.171875,-30.29,0.971223,34.57,2021192.0
1675334900.1875,-31.89,0.971223,34.57,2023796.0
1675334900.203125,-31.13,0.975066,34.57,2026743.0
1675334900.21875,-28.85,0.977628,34.55,2029492.0
1675334900.234375,-26.29,0.98019,34.55,2030695.0
1675334900.25,-24.77,0.982752,34.55,2031173.0
1675334900.265625,-25.33,0.990438,34.55,2031611.0
1675334900.28125,-28.45,0.999404,34.55,2031417.0
1675334900.296875,-33.79,1.010933,34.55,2031616.0
1675334900.3125,-40.32,1.025023,34.55,2031710.0
1675334900.328125,-46.63,0.955921,34.55,2032339.0
1675334900.34375,-51.32,0.958483,34.53,2032932.0
1675334900.359375,-53.58,0.952078,34.53,2033789.0
1675334900.375,-53.38,0.952078,34.53,2034910.0
1675334900.390625,-51.39,0.950797,34.53,2036509.0
1675334900.40625,-48.5,0.946954,34.55,2038160.0
1675334900.421875,-45.44,0.943112,34.55,2039482.0
1675334900.4375,-42.34,0.937988,34.55,2040886.0
1675334900.453125,-38.87,0.934145,34.55,2042451.0
1675334900.46875,-34.54,0.931583,34.55,2044550.0
1675334900.484375,-29.14,0.931583,34.55,2046963.0
1675334900.5,-23.02,0.92774,34.55,2049124.0
1675334900.515625,-16.86,0.926459,34.55,2051286.0
1675334900.53125,-11.36,0.92774,34.53,2052148.0
1675334900.546875,-6.91,0.930302,34.53,2051982.0
1675334900.5625,-3.42,0.929021,34.53,2051880.0
1675334900.578125,-0.52,0.932864,34.53,2051181.0
1675334900.59375,2.07,0.925178,34.53,2050238.0
1675334900.609375,4.36,0.925178,34.53,2050282.0
1675334900.625,6.04,0.92774,34.53,2050837.0
1675334900.640625,6.77,0.923897,34.53,2050973.0
1675334900.65625,6.43,0.922617,34.53,2051562.0
1675334900.671875,5.31,0.917493,34.53,2052363.0
1675334900.6875,3.89,0.914931,34.53,2052897.0
1675334900.703125,2.73,0.914931,34.53,2053477.0
1675334900.71875,2.09,0.918774,34.5,2054163.0
1675334900.734375,1.93,0.918774,34.5,2054912.0
1675334900.75,2.02,0.894436,34.5,2055881.0
1675334900.765625,2.14,0.905964,34.5,2056910.0
1675334900.78125,2.26,0.920055,34.53,2058044.0
1675334900.796875,2.47,0.926459,34.53,2058922.0
1675334900.8125,2.91,0.936707,34.53,2060823.0
1675334900.828125,3.58,0.944393,34.53,2062770.0
1675334900.84375,4.31,0.945674,34.5,2064535.0
1675334900.859375,4.83,0.952078,34.5,2066448.0
1675334900.875,4.96,0.958483,34.5,2067220.0
1675334900.890625,4.57,0.957202,34.5,2067924.0
1675334900.90625,3.68,0.95464,34.5,2069349.0
1675334900.921875,2.38,0.95464,34.5,2071156.0
1675334900.9375,0.71,0.959764,34.5,2073680.0
1675334900.953125,-1.27,0.962326,34.5,2077189.0
1675334900.96875,-3.57,0.962326,34.53,2080717.0
1675334900.984375,-6.24,0.957202,34.53,2081199.0
1675334901.0,-9.39,0.953359,34.53,2082055.0
1675334901.015625,-13.18,0.958483,34.53,2083093.0
1675334901.03125,-17.65,0.955921,34.49,2084305.0
1675334901.046875,-22.6,0.95464,34.49,2086402.0
1675334901.0625,-27.48,0.955921,34.49,2087551.0
1675334901.078125,-31.42,0.95464,34.49,2089275.0
1675334901.09375,-33.44,0.948235,34.49,2090807.0
1675334901.109375,-32.79,0.944393,34.49,2091872.0
1675334901.125,-29.32,0.945674,34.49,2092331.0
1675334901.140625,-23.46,0.941831,34.49,2092355.0
1675334901.15625,-16.07,0.918774,34.49,2091375.0
1675334901.171875,-8.05,0.92774,34.49,2090066.0
1675334901.1875,-0.02,0.944393,34.49,2088816.0
1675334901.203125,7.81,0.948235,34.49,2088032.0
1675334901.21875,15.59,0.952078,34.49,2087578.0
1675334901.234375,23.5,0.952078,34.49,2087183.0
1675334901.25,31.55,0.945674,34.49,2087308.0
1675334901.265625,39.4,0.932864,34.49,2087489.0
1675334901.28125,46.34,0.941831,34.49,2087861.0
1675334901.296875,51.51,0.944393,34.49,2088146.0
1675334901.3125,54.1,0.944393,34.49,2088848.0
1675334901.328125,53.73,0.941831,34.49,2089579.0
1675334901.34375,50.57,0.939269,34.49,2090619.0
1675334901.359375,45.35,0.936707,34.49,2091286.0
1675334901.375,39.21,0.936707,34.49,2092365.0
1675334901.390625,33.35,0.923897,34.49,2092936.0
1675334901.40625,28.72,0.923897,34.49,2094423.0
1675334901.421875,25.84,0.929021,34.49,2095445.0
1675334901.4375,24.77,0.92774,34.49,2095821.0
1675334901.453125,25.2,0.92774,34.49,2095250.0
1675334901.46875,26.72,0.926459,34.49,2095088.0
1675334901.484375,28.94,0.926459,34.49,2094124.0
1675334901.5,31.69,0.922617,34.49,2093932.0
1675334901.515625,34.84,0.918774,34.49,2093796.0
1675334901.53125,38.22,0.922617,34.47,2094014.0
1675334901.546875,41.41,0.920055,34.47,2094178.0
1675334901.5625,43.6,0.918774,34.47,2094642.0
1675334901.578125,43.86,0.914931,34.47,2095200.0
1675334901.59375,41.3,0.916212,34.49,2095732.0
1675334901.609375,35.43,0.918774,34.49,2096594.0
1675334901.625,26.41,0.917493,34.49,2097950.0
1675334901.640625,14.91,0.916212,34.49,2098883.0
1675334901.65625,2.01,0.916212,34.47,2100494.0
1675334901.671875,-10.94,0.91365,34.47,2101810.0
1675334901.6875,-22.26,0.916212,34.47,2103291.0
1675334901.703125,-29.98,0.920055,34.47,2104660.0
1675334901.71875,-32.21,0.922617,34.49,2106398.0
1675334901.734375,-27.98,0.925178,34.49,2107469.0
1675334901.75,-18.11,0.92774,34.49,2108106.0
1675334901.765625,-5.47,0.934145,34.49,2108957.0
1675334901.78125,5.81,0.935426,34.45,2110371.0
1675334901.796875,12.11,0.936707,34.45,2115412.0
1675334901.8125,12.01,0.932864,34.45,2120204.0
1675334901.828125,6.92,0.932864,34.45,2123708.0
1675334901.84375,0.27,0.930302,34.43,2129037.0
1675334901.859375,-4.46,0.92774,34.43,2130740.0
1675334901.875,-5.49,0.92774,34.43,2131955.0
1675334901.890625,-3.4,0.926459,34.43,2134015.0
1675334901.90625,-0.27,0.920055,34.47,2136538.0
1675334901.921875,1.89,0.920055,34.47,2139298.0
1675334901.9375,2.45,0.920055,34.47,2140444.0
1675334901.953125,2.28,0.923897,34.47,2144249.0
1675334901.96875,2.85,0.921336,34.45,2149704.0
1675334901.984375,5.14,0.918774,34.45,2147446.0
1675334902.0,8.86,0.918774,34.45,2144081.0
1675334902.015625,12.79,0.917493,34.45,2140807.0
1675334902.03125,15.51,0.917493,34.45,2141162.0
1675334902.046875,16.2,0.917493,34.45,2144289.0
1675334902.0625,14.9,0.916212,34.45,2147317.0
1675334902.078125,12.38,0.917493,34.45,2146285.0
1675334902.09375,9.54,0.923897,34.45,2142300.0
1675334902.109375,7.08,0.923897,34.45,2134531.0
1675334902.125,5.22,0.925178,34.45,2131274.0
1675334902.140625,3.72,0.921336,34.45,2129036.0
1675334902.15625,2.12,0.921336,34.45,2129258.0
1675334902.171875,-0.0,0.920055,34.45,2129528.0
1675334902.1875,-2.8,0.918774,34.45,2129535.0
1675334902.203125,-6.02,0.916212,34.45,2129133.0
1675334902.21875,-9.09,0.91365,34.43,2129828.0
1675334902.234375,-11.4,0.911088,34.43,2130801.0
1675334902.25,-12.6,0.914931,34.43,2130638.0
1675334902.265625,-12.83,0.91365,34.43,2130525.0
1675334902.28125,-12.67,0.91365,34.43,2130083.0
1675334902.296875,-12.9,0.908526,34.43,2128976.0
1675334902.3125,-14.14,0.909807,34.43,2125361.0
1675334902.328125,-16.64,0.914931,34.43,2127106.0
1675334902.34375,-20.16,0.914931,34.43,2123656.0
1675334902.359375,-24.15,0.912369,34.43,2121935.0
1675334902.375,-28.03,0.914931,34.43,2121093.0
1675334902.390625,-31.33,0.911088,34.43,2120056.0
1675334902.40625,-33.93,0.91365,34.41,2119165.0
1675334902.421875,-35.95,0.916212,34.41,2118563.0
1675334902.4375,-37.7,0.918774,34.41,2130815.0
1675334902.453125,-39.54,0.920055,34.41,2117968.0
1675334902.46875,-41.81,0.920055,34.41,2117403.0
1675334902.484375,-44.78,0.925178,34.41,2117063.0
1675334902.5,-48.56,0.929021,34.41,2116586.0
1675334902.515625,-53.23,0.912369,34.41,2116435.0
1675334902.53125,-58.69,0.92774,34.43,2116679.0
1675334902.546875,-64.71,0.923897,34.43,2116507.0
1675334902.5625,-70.9,0.921336,34.43,2115820.0
1675334902.578125,-76.62,0.920055,34.43,2114405.0
1675334902.59375,-81.21,0.914931,34.41,2112424.0
1675334902.609375,-84.0,0.912369,34.41,2110065.0
1675334902.625,-84.63,0.911088,34.41,2107675.0
1675334902.640625,-83.04,0.916212,34.41,2105294.0
1675334902.65625,-79.55,0.91365,34.41,2130885.0
1675334902.671875,-74.67,0.909807,34.41,2103609.0
1675334902.6875,-68.98,0.909807,34.41,2102287.0
1675334902.703125,-62.89,0.916212,34.41,2100839.0
1675334902.71875,-56.51,0.920055,34.39,2099592.0
1675334902.734375,-49.76,0.925178,34.39,2098788.0
1675334902.75,-42.56,0.926459,34.39,2098326.0
1675334902.765625,-35.17,0.925178,34.39,2097662.0
1675334902.78125,-28.47,0.926459,34.41,2097252.0
1675334902.796875,-23.83,0.929021,34.41,2097140.0
1675334902.8125,-22.68,0.925178,34.41,2096855.0
1675334902.828125,-25.92,0.921336,34.41,2096813.0
1675334902.84375,-33.32,0.917493,34.41,2096961.0
1675334902.859375,-43.36,0.920055,34.41,2096333.0
1675334902.875,-53.64,0.921336,34.41,2094687.0
1675334902.890625,-61.61,0.914931,34.41,2091809.0
1675334902.90625,-65.34,0.911088,34.41,2088421.0
1675334902.921875,-64.02,0.907245,34.41,2084755.0
1675334902.9375,-57.86,0.908526,34.41,2081644.0
1675334902.953125,-47.75,0.909807,34.41,2079050.0
1675334902.96875,-34.86,0.907245,34.41,2076478.0
1675334902.984375,-20.36,0.904683,34.41,2074380.0
1675334903.0,-5.4,0.903402,34.41,2072209.0
1675334903.015625,8.83,0.903402,34.41,2070142.0
1675334903.03125,21.2,0.908526,34.37,2068431.0
1675334903.046875,30.84,0.904683,34.37,2066690.0
1675334903.0625,37.31,0.902121,34.37,2065567.0
1675334903.078125,40.84,0.899559,34.37,2064289.0
1675334903.09375,42.13,0.904683,34.37,2062037.0
1675334903.109375,42.1,0.912369,34.37,2061434.0
1675334903.125,41.58,0.920055,34.37,2059641.0
1675334903.140625,41.04,0.92774,34.37,2057085.0
1675334903.15625,40.46,0.932864,34.39,2063133.0
1675334903.171875,39.52,0.937988,34.39,2062421.0
1675334903.1875,37.78,0.941831,34.39,2050338.0
1675334903.203125,35.0,0.94055,34.39,2054005.0
1675334903.21875,31.33,0.939269,34.39,2041917.0
1675334903.234375,27.25,0.925178,34.39,2040242.0
1675334903.25,23.48,0.943112,34.39,2043979.0
1675334903.265625,20.6,0.945674,34.39,2038428.0
1675334903.28125,18.79,0.945674,34.37,2046970.0
1675334903.296875,17.71,0.94055,34.37,2036949.0
1675334903.3125,16.58,0.939269,34.37,2035879.0
1675334903.328125,14.52,0.935426,34.37,2034843.0
1675334903.34375,10.81,0.936707,34.37,2034303.0
1675334903.359375,5.2,0.934145,34.37,2033317.0
1675334903.375,-2.03,0.932864,34.37,2032950.0
1675334903.390625,-10.04,0.92774,34.37,2033233.0
1675334903.40625,-17.68,0.918774,34.39,2033613.0
1675334903.421875,-23.7,0.922617,34.39,2033750.0
1675334903.4375,-26.99,0.925178,34.39,2032892.0
1675334903.453125,-26.92,0.923897,34.39,2030711.0
1675334903.46875,-23.5,0.920055,34.37,2029867.0
1675334903.484375,-17.41,0.920055,34.37,2028546.0
1675334903.5,-9.8,0.920055,34.37,2028524.0
1675334903.515625,-1.92,0.922617,34.37,2027670.0
1675334903.53125,5.41,0.923897,34.34,2026067.0
1675334903.546875,11.9,0.925178,34.34,2025232.0
1675334903.5625,17.81,0.921336,34.34,2024932.0
1675334903.578125,23.61,0.923897,34.34,2025283.0
1675334903.59375,29.58,0.926459,34.37,2025422.0
1675334903.609375,35.64,0.92774,34.37,2025675.0
1675334903.625,41.35,0.92774,34.37,2026299.0
1675334903.640625,46.3,0.930302,34.37,2026350.0
1675334903.65625,50.33,0.936707,34.37,2026746.0
1675334903.671875,53.69,0.945674,34.37,2027494.0
1675334903.6875,56.8,0.950797,34.37,2027763.0
1675334903.703125,59.87,0.949516,34.37,2026673.0
1675334903.71875,62.58,0.932864,34.34,2024483.0
1675334903.734375,64.1,0.94055,34.34,2021826.0
1675334903.75,63.51,0.950797,34.34,2018305.0
1675334903.765625,60.34,0.950797,34.34,2013550.0
1675334903.78125,55.06,0.946954,34.34,2009059.0
1675334903.796875,49.01,0.943112,34.34,2005893.0
1675334903.8125,43.87,0.944393,34.34,2003273.0
1675334903.828125,40.96,0.943112,34.34,2000829.0
1675334903.84375,40.78,0.941831,34.34,1998830.0
1675334903.859375,43.03,0.937988,34.34,1997065.0
1675334903.875,47.03,0.935426,34.34,1995858.0
1675334903.890625,52.18,0.935426,34.34,1994401.0
1675334903.90625,58.03,0.943112,34.33,1994214.0
1675334903.921875,64.02,0.945674,34.33,1992807.0
1675334903.9375,69.14,0.943112,34.33,1993327.0
1675334903.953125,71.89,0.943112,34.33,1992336.0
1675334903.96875,70.73,0.944393,34.33,1992415.0
1675334903.984375,64.83,0.944393,34.33,1992291.0
1675334904.0,54.68,0.943112,34.33,1991162.0
1675334904.015625,41.96,0.941831,34.33,1989616.0
1675334904.03125,28.98,0.944393,34.34,1987628.0
1675334904.046875,17.71,0.955921,34.34,1985293.0
1675334904.0625,9.14,0.971292,34.34,1983511.0
1675334904.078125,3.27,0.987945,34.34,1982020.0
1675334904.09375,-0.53,0.99563,34.34,1980986.0
1675334904.109375,-2.96,1.002035,34.34,1980622.0
1675334904.125,-4.5,1.009721,34.34,1979952.0
1675334904.140625,-5.41,1.004597,34.34,1979331.0
1675334904.15625,-5.99,1.003316,34.34,1979722.0
1675334904.171875,-6.7,0.993069,34.34,1979851.0
1675334904.1875,-8.11,0.977697,34.34,1980278.0
1675334904.203125,-10.7,0.945674,34.34,1981018.0
1675334904.21875,-14.52,0.968731,34.33,1981648.0
1675334904.234375,-19.13,0.970012,34.33,1982683.0
1675334904.25,-23.7,0.968731,34.33,1983933.0
1675334904.265625,-27.26,0.964888,34.33,1985385.0
1675334904.28125,-29.04,0.96745,34.33,1987289.0
1675334904.296875,-28.7,0.968731,34.33,1988883.0
1675334904.3125,-26.36,0.980259,34.33,1989800.0
1675334904.328125,-22.5,0.982821,34.33,1991079.0
1675334904.34375,-17.69,0.98154,34.31,1991238.0
1675334904.359375,-12.41,0.98154,34.31,1990872.0
1675334904.375,-6.87,0.980259,34.31,1992715.0
1675334904.390625,-1.09,0.98154,34.31,1991328.0
1675334904.40625,4.98,0.980259,34.29,1996229.0
1675334904.421875,11.23,0.976416,34.29,1994425.0
1675334904.4375,17.25,0.944393,34.29,1997712.0
1675334904.453125,22.39,0.964888,34.29,2001336.0
1675334904.46875,25.93,0.982821,34.33,2002676.0
1675334904.484375,27.36,0.987945,34.33,2004096.0
1675334904.5,26.59,0.999473,34.33,2005546.0
1675334904.515625,24.1,1.011002,34.33,2006698.0
1675334904.53125,20.77,1.021249,34.31,2008001.0
1675334904.546875,17.59,1.03534,34.31,2009216.0
1675334904.5625,15.37,1.037902,34.31,2009858.0
1675334904.578125,14.45,1.037902,34.31,2010126.0
1675334904.59375,14.69,1.036621,34.31,2009996.0
1675334904.609375,15.53,1.032778,34.31,2010310.0
1675334904.625,16.35,1.034059,34.31,2010351.0
1675334904.640625,16.56,1.026373,34.31,2010340.0
1675334904.65625,15.9,1.019968,34.31,2010561.0
1675334904.671875,14.32,1.016126,34.31,2010800.0
1675334904.6875,12.02,1.014845,34.31,2011285.0
1675334904.703125,9.21,1.012283,34.31,2011317.0
1675334904.71875,6.1,1.00844,34.33,2011862.0
1675334904.734375,2.78,1.003316,34.33,2012624.0
1675334904.75,-0.87,1.002035,34.33,2013374.0
1675334904.765625,-4.99,1.000754,34.33,2014417.0
1675334904.78125,-9.75,1.002035,34.31,2014950.0
1675334904.796875,-15.18,1.000754,34.31,2015740.0
1675334904.8125,-21.11,0.998192,34.31,2017232.0
1675334904.828125,-27.2,0.998192,34.31,2018206.0
1675334904.84375,-33.02,1.003316,34.31,2019233.0
1675334904.859375,-38.16,1.007159,34.31,2019523.0
1675334904.875,-42.31,1.005878,34.31,2019933.0
1675334904.890625,-45.38,1.004597,34.31,2019695.0
1675334904.90625,-47.53,1.002035,34.29,2020015.0
1675334904.921875,-49.18,1.002035,34.29,2020265.0
1675334904.9375,-51.01,1.002035,34.29,2020644.0
1675334904.953125,-53.73,1.000754,34.29,2021377.0
1675334904.96875,-57.9,0.999473,34.29,2021827.0
1675334904.984375,-63.69,0.993069,34.29,2022466.0
1675334905.0,-70.71,0.996911,34.29,2023260.0
1675334905.015625,-78.05,0.996911,34.29,2024270.0
1675334905.03125,-84.55,0.994349,34.27,2025232.0
1675334905.046875,-89.03,0.990507,34.27,2026366.0
1675334905.0625,-90.61,0.989226,34.27,2028207.0
1675334905.078125,-88.94,0.99563,34.27,2029415.0
1675334905.09375,-84.11,0.990507,34.29,2030690.0
1675334905.109375,-76.55,0.990507,34.29,2031810.0
1675334905.125,-66.94,0.986664,34.29,2032479.0
1675334905.140625,-56.05,0.987945,34.29,2032948.0
1675334905.15625,-44.63,0.99563,34.31,2032904.0
1675334905.171875,-33.38,0.998192,34.31,2033148.0
1675334905.1875,-22.82,0.999473,34.31,2033852.0
1675334905.203125,-13.29,0.99563,34.31,2034181.0
1675334905.21875,-5.01,1.004597,34.27,2034519.0
1675334905.234375,1.87,1.003316,34.27,2035219.0
1675334905.25,7.15,1.013564,34.27,2035222.0
1675334905.265625,10.67,1.025092,34.27,2035334.0
1675334905.28125,12.37,1.031497,34.29,2034711.0
1675334905.296875,12.44,1.034059,34.29,2034802.0
1675334905.3125,11.41,1.043025,34.29,2034899.0
1675334905.328125,10.03,1.045587,34.29,2035182.0
1675334905.34375,9.08,1.039183,34.27,2035201.0
1675334905.359375,9.19,1.032778,34.27,2035782.0
1675334905.375,10.53,1.025092,34.27,2036088.0
1675334905.390625,12.9,1.021249,34.27,2035982.0
1675334905.40625,15.77,1.018687,34.27,2036030.0
1675334905.421875,18.5,1.016126,34.27,2035328.0
1675334905.4375,20.49,1.011002,34.27,2034804.0
1675334905.453125,21.39,1.009721,34.27,2034137.0
1675334905.46875,21.12,1.011002,34.29,2033994.0
1675334905.484375,19.82,1.009721,34.29,2033855.0
1675334905.5,17.78,1.00844,34.29,2034267.0
1675334905.515625,15.26,1.003316,34.29,2034292.0
1675334905.53125,12.42,1.002035,34.29,2035164.0
1675334905.546875,9.29,1.002035,34.29,2034787.0
1675334905.5625,5.86,1.007159,34.29,2036064.0
1675334905.578125,2.19,1.012283,34.29,2035826.0
1675334905.59375,-1.55,1.009721,34.25,2036381.0
1675334905.609375,-5.12,1.00844,34.25,2036855.0
1675334905.625,-8.38,1.007159,34.25,2037509.0
1675334905.640625,-11.37,1.009721,34.25,2037647.0
1675334905.65625,-14.33,1.00844,34.27,2037302.0
1675334905.671875,-17.62,1.004597,34.27,2036660.0
1675334905.6875,-21.44,1.007159,34.27,2035417.0
1675334905.703125,-25.88,1.007159,34.27,2036139.0
1675334905.71875,-30.81,1.012283,34.27,2035135.0
1675334905.734375,-36.1,1.013564,34.27,2034960.0
1675334905.75,-41.63,1.009721,34.27,2035033.0
1675334905.765625,-47.3,1.011002,34.27,2035580.0
1675334905.78125,-52.86,1.016126,34.27,2036451.0
1675334905.796875,-57.78,0.987945,34.27,2037020.0
1675334905.8125,-61.28,0.970012,34.27,2038206.0
1675334905.828125,-62.57,0.991788,34.27,2035373.0
1675334905.84375,-61.16,1.00844,34.27,2039348.0
1675334905.859375,-57.0,1.005878,34.27,2041126.0
1675334905.875,-50.47,1.009721,34.27,2043369.0
1675334905.890625,-42.13,1.00844,34.27,2049869.0
1675334905.90625,-32.44,1.012283,34.27,2069405.0
1675334905.921875,-21.71,1.00844,34.27,2060977.0
1675334905.9375,-10.17,1.012283,34.27,2075666.0
1675334905.953125,1.79,1.012283,34.27,2081340.0
1675334905.96875,13.47,1.014845,34.25,2085127.0
1675334905.984375,23.86,1.00844,34.25,2086442.0
1675334906.0,32.07,1.011002,34.25,2087043.0
1675334906.015625,37.59,1.013564,34.25,2087271.0
1675334906.03125,40.53,1.011002,34.25,2087685.0
1675334906.046875,41.61,1.004597,34.25,2087073.0
1675334906.0625,41.71,1.007159,34.25,2086319.0
1675334906.078125,41.63,1.005878,34.25,2085779.0
1675334906.09375,41.81,1.009721,34.25,2084583.0
1675334906.109375,42.3,1.018687,34.25,2084094.0
1675334906.125,42.91,1.026373,34.25,2083874.0
1675334906.140625,43.42,1.007159,34.25,2083708.0
1675334906.15625,43.66,1.025092,34.25,2082969.0
1675334906.171875,43.51,1.044306,34.25,2082219.0
1675334906.1875,42.95,1.041744,34.25,2080343.0
1675334906.203125,41.96,1.040463,34.25,2077907.0
1675334906.21875,40.52,1.032778,34.27,2075224.0
1675334906.234375,38.59,1.036621,34.27,2072208.0
1675334906.25,36.16,1.036621,34.27,2069595.0
1675334906.265625,33.18,1.034059,34.27,2067220.0
1675334906.28125,29.6,1.03534,34.23,2064951.0
1675334906.296875,25.4,1.034059,34.23,2063053.0
1675334906.3125,20.69,1.034059,34.23,2060926.0
1675334906.328125,15.72,1.030216,34.23,2059212.0
1675334906.34375,10.88,1.02253,34.23,2057628.0
1675334906.359375,6.46,1.02253,34.23,2056291.0
1675334906.375,2.53,1.023811,34.23,2055326.0
1675334906.390625,-1.13,1.02253,34.23,2054665.0
1675334906.40625,-4.9,0.994349,34.21,2053640.0
1675334906.421875,-9.15,0.980259,34.21,2053643.0
1675334906.4375,-14.1,1.007159,34.21,2053334.0
1675334906.453125,-19.75,1.012283,34.21,2052921.0
1675334906.46875,-25.9,1.013564,34.23,2051680.0
1675334906.484375,-32.28,1.011002,34.23,2050336.0
1675334906.5,-38.48,1.009721,34.23,2048690.0
1675334906.515625,-43.93,1.012283,34.23,2047243.0
1675334906.53125,-47.87,1.014845,34.21,2045710.0
1675334906.546875,-49.48,1.013564,34.21,2045381.0
1675334906.5625,-48.07,1.00844,34.21,2044925.0
1675334906.578125,-43.28,1.013564,34.21,2043850.0
1675334906.59375,-35.28,1.012283,34.21,2043077.0
1675334906.609375,-24.68,1.011002,34.21,2042734.0
1675334906.625,-12.28,1.012283,34.21,2042409.0
1675334906.640625,1.08,1.011002,34.21,2042321.0
1675334906.65625,14.7,1.009721,34.21,2041815.0
1675334906.671875,27.98,1.012283,34.21,2042290.0
1675334906.6875,40.36,1.012283,34.21,2042886.0
1675334906.703125,51.29,1.011002,34.21,2041943.0
1675334906.71875,60.3,1.009721,34.21,2042944.0
1675334906.734375,67.14,1.007159,34.21,2042398.0
1675334906.75,71.83,0.970012,34.21,2041668.0
1675334906.765625,74.69,0.986664,34.21,2042748.0
1675334906.78125,76.17,1.00844,34.18,2040968.0
1675334906.796875,76.73,1.004597,34.18,2041065.0
1675334906.8125,76.69,1.007159,34.18,2042882.0
1675334906.828125,76.19,1.012283,34.18,2041363.0
1675334906.84375,75.22,1.017406,34.21,2044310.0
1675334906.859375,73.69,1.02253,34.21,2045695.0
1675334906.875,71.46,1.027654,34.21,2046837.0
1675334906.890625,68.34,1.028935,34.21,2047994.0
1675334906.90625,64.09,1.031497,34.23,2049725.0
1675334906.921875,58.54,1.032778,34.23,2051312.0
1675334906.9375,51.59,1.03534,34.23,2055174.0
1675334906.953125,43.38,1.040463,34.23,2053544.0
1675334906.96875,34.32,1.048149,34.18,2056630.0
1675334906.984375,24.93,1.057116,34.18,2057323.0
1675334907.0,15.78,1.066082,34.18,2057635.0
1675334907.015625,7.35,1.068644,34.18,2057587.0
1675334907.03125,0.08,1.064801,34.18,2057584.0
1675334907.046875,-5.67,1.06224,34.18,2057612.0
1675334907.0625,-9.63,1.060959,34.18,2058065.0
1675334907.078125,-11.75,1.071206,34.18,2058743.0
1675334907.09375,-12.43,1.082735,34.16,2059180.0
1675334907.109375,-12.44,1.098106,34.16,2059424.0
1675334907.125,-12.87,1.113477,34.16,2059307.0
1675334907.140625,-14.62,1.11732,34.16,2059728.0
1675334907.15625,-18.11,1.116039,34.21,2060023.0
1675334907.171875,-23.08,1.113477,34.21,2060113.0
1675334907.1875,-28.87,1.105792,34.21,2060445.0
1675334907.203125,-34.79,1.105792,34.21,2060417.0
1675334907.21875,-40.59,1.101949,34.16,2060366.0
1675334907.234375,-46.58,1.098106,34.16,2060510.0
1675334907.25,-53.39,1.095544,34.16,2059912.0
1675334907.265625,-61.53,1.091701,34.16,2059054.0
1675334907.28125,-70.81,1.089139,34.16,2057878.0
1675334907.296875,-80.27,1.091701,34.16,2056654.0
1675334907.3125,-88.31,1.092982,34.16,2055098.0
1675334907.328125,-93.37,1.095544,34.16,2053645.0
1675334907.34375,-94.44,1.09042,34.15,2052785.0
1675334907.359375,-91.47,1.09042,34.15,2052287.0
1675334907.375,-85.26,1.091701,34.15,2051365.0
1675334907.390625,-76.99,1.086578,34.15,2050758.0
1675334907.40625,-67.69,1.081454,34.15,2050389.0
1675334907.421875,-57.72,1.080173,34.15,2050007.0
1675334907.4375,-46.83,1.082735,34.15,2049559.0
1675334907.453125,-34.53,1.086578,34.15,2049473.0
1675334907.46875,-20.69,1.081454,34.16,2049326.0
1675334907.484375,-5.98,1.082735,34.16,2049570.0
1675334907.5,8.05,1.086578,34.16,2049464.0
1675334907.515625,19.41,1.091701,34.16,2049865.0
1675334907.53125,26.38,1.046868,34.16,2049616.0
1675334907.546875,28.11,1.045587,34.16,2048641.0
1675334907.5625,25.07,1.084016,34.16,2047673.0
1675334907.578125,18.8,1.085297,34.16,2046664.0
1675334907.59375,11.38,1.085297,34.15,2045442.0
1675334907.609375,4.64,1.086578,34.15,2044936.0
1675334907.625,-0.39,1.081454,34.15,2044447.0
1675334907.640625,-3.67,1.037902,34.15,2044358.0
1675334907.65625,-5.81,1.054554,34.15,2044172.0
1675334907.671875,-7.55,1.075049,34.15,2044658.0
1675334907.6875,-9.37,1.073768,34.15,2044700.0
1675334907.703125,-11.35,1.069925,34.15,2045294.0
1675334907.71875,-13.4,1.071206,34.16,2045838.0
1675334907.734375,-15.35,1.069925,34.16,2046965.0
1675334907.75,-17.03,1.075049,34.16,2047947.0
1675334907.765625,-17.74,1.073768,34.16,2048941.0
1675334907.78125,-16.0,1.069925,34.16,2050092.0
1675334907.796875,-9.93,1.069925,34.16,2050841.0
1675334907.8125,1.82,1.086578,34.16,2050527.0
1675334907.828125,18.87,1.107073,34.16,2050392.0
1675334907.84375,38.78,1.13013,34.15,2049924.0
1675334907.859375,57.84,1.145501,34.15,2049086.0
1675334907.875,72.8,1.164715,34.15,2048848.0
1675334907.890625,82.5,1.17112,34.15,2048434.0
1675334907.90625,88.25,1.176244,34.15,2047973.0
1675334907.921875,92.79,1.17112,34.15,2047519.0
1675334907.9375,98.39,1.160872,34.15,2046998.0
1675334907.953125,105.42,1.154468,34.15,2046400.0
1675334907.96875,112.15,1.148063,34.13,2046031.0
1675334907.984375,116.02,1.137815,34.13,2045917.0
1675334908.0,115.17,1.13013,34.13,2045779.0
1675334908.015625,109.38,1.126287,34.13,2045920.0
1675334908.03125,99.72,1.122444,34.16,2045642.0
1675334908.046875,87.37,1.119882,34.16,2045265.0
1675334908.0625,72.7,1.116039,34.16,2044240.0
1675334908.078125,55.12,1.110916,34.16,2042949.0
1675334908.09375,33.96,1.109635,34.15,2041825.0
1675334908.109375,9.47,1.112196,34.15,2040350.0
1675334908.125,-16.65,1.109635,34.15,2039291.0
1675334908.140625,-41.69,1.109635,34.15,2038401.0
1675334908.15625,-62.85,1.105792,34.13,2037778.0
1675334908.171875,-78.17,1.101949,34.13,2037224.0
1675334908.1875,-87.08,1.104511,34.13,2036229.0
1675334908.203125,-90.27,1.105792,34.13,2035447.0
1675334908.21875,-89.08,1.104511,34.15,2034898.0
1675334908.234375,-84.95,1.10323,34.15,2034758.0
1675334908.25,-78.98,1.100668,34.15,2034595.0
1675334908.265625,-71.91,1.101949,34.15,2034515.0
1675334908.28125,-64.19,1.099387,34.16,2034636.0
1675334908.296875,-56.22,1.096825,34.16,2034816.0
1675334908.3125,-48.46,1.096825,34.16,2034056.0
1675334908.328125,-41.36,1.098106,34.16,2032831.0
1675334908.34375,-35.29,1.099387,34.11,2031137.0
1675334908.359375,-30.35,1.098106,34.11,2029314.0
1675334908.375,-26.36,1.091701,34.11,2027112.0
1675334908.390625,-22.87,1.098106,34.11,2025592.0
1675334908.40625,-19.38,1.099387,34.13,2024192.0
1675334908.421875,-15.5,1.095544,34.13,2023317.0
1675334908.4375,-11.16,1.098106,34.13,2022712.0
1675334908.453125,-6.68,1.095544,34.13,2021933.0
1675334908.46875,-2.64,1.095544,34.13,2021501.0
1675334908.484375,0.37,1.099387,34.13,2022544.0
1675334908.5,2.0,1.104511,34.13,2024512.0
1675334908.515625,2.3,1.104511,34.13,2026982.0
1675334908.53125,1.71,1.101949,34.11,2029356.0
1675334908.546875,0.79,1.10323,34.11,2032414.0
1675334908.5625,0.01,1.104511,34.11,2037959.0
1675334908.578125,-0.5,1.109635,34.11,2043488.0
1675334908.59375,-0.95,1.112196,34.11,2046958.0
1675334908.609375,-1.75,1.109635,34.11,2048543.0
1675334908.625,-3.27,1.109635,34.11,2049649.0
1675334908.640625,-5.57,1.109635,34.11,2054745.0
1675334908.65625,-8.41,1.113477,34.11,2063067.0
1675334908.671875,-11.39,1.128849,34.11,2069081.0
1675334908.6875,-14.2,1.15703,34.11,2068256.0
1675334908.703125,-16.82,1.187772,34.11,2062581.0
1675334908.71875,-19.57,1.221077,34.11,2054891.0
1675334908.734375,-22.97,1.245415,34.11,2049266.0
1675334908.75,-27.48,1.241572,34.11,2045088.0
1675334908.765625,-33.43,1.089139,34.11,2041093.0
1675334908.78125,-40.89,1.073768,34.11,2039369.0
1675334908.796875,-49.71,1.050711,34.11,2040274.0
1675334908.8125,-59.43,1.050711,34.11,2040760.0
1675334908.828125,-69.32,1.114758,34.11,2040605.0
1675334908.84375,-78.32,1.15703,34.13,2039611.0
1675334908.859375,-85.13,1.190334,34.13,2037369.0
1675334908.875,-88.56,1.241572,34.13,2034742.0
1675334908.890625,-87.8,1.245415,34.13,2032025.0
1675334908.90625,-82.72,1.247977,34.09,2028618.0
1675334908.921875,-73.85,1.283843,34.09,2025807.0
1675334908.9375,-62.21,1.308181,34.09,2023627.0
1675334908.953125,-48.83,1.305619,34.09,2021828.0
1675334908.96875,-34.5,1.320991,34.09,2019701.0
1675334908.984375,-19.68,1.324833,34.09,2018520.0
1675334909.0,-4.65,1.419623,34.09,2016776.0
1675334909.015625,10.19,1.531066,34.09,2015612.0
1675334909.03125,24.3,1.564469,34.11,2014450.0
1675334909.046875,36.89,1.665664,34.11,2013108.0
1675334909.0625,47.24,1.72843,34.11,2012301.0
1675334909.078125,54.91,1.723306,34.11,2011881.0
1675334909.09375,59.91,1.718183,34.07,2010211.0
1675334909.109375,62.64,1.716902,34.07,2007750.0
1675334909.125,63.77,1.713059,34.07,2004820.0
1675334909.140625,64.03,1.643888,34.07,2001926.0
1675334909.15625,63.97,1.604179,34.11,1998932.0
1675334909.171875,63.91,1.569593,34.11,1996894.0
1675334909.1875,63.95,1.579841,34.11,1994810.0
1675334909.203125,64.05,1.56575,34.11,1993265.0
1675334909.21875,64.17,,,1991873.0
1675334909.234375,64.27,,,1990917.0
1675334909.25,64.37,,,1990358.0
1675334909.265625,64.38,,,1989536.0
1675334909.28125,64.13,,,1988944.0
1675334909.296875,63.34,,,1988897.0
1675334909.3125,61.71,,,1989285.0
1675334909.328125,59.08,,,1990066.0
1675334909.34375,55.54,,,1990119.0
1675334909.359375,51.36,,,1988611.0
1675334909.375,46.9,,,1986628.0
1675334909.390625,42.42,,,1984182.0
1675334909.40625,37.99,,,1981727.0
1675334909.421875,33.54,,,1979880.0
1675334909.4375,28.97,,,1978309.0
1675334909.453125,24.2,,,1977038.0
1675334909.46875,19.28,,,1975570.0
1675334909.484375,14.26,,,1974431.0
1675334909.5,9.1,,,1973317.0
1675334909.515625,3.58,,,1972281.0
1675334909.53125,-2.61,,,1971517.0
1675334909.546875,-9.77,,,1971049.0
1675334909.5625,-18.08,,,1970240.0
1675334909.578125,-27.52,,,1969318.0
1675334909.59375,-37.98,,,1967584.0
1675334909.609375,-49.2,,,1964535.0
1675334909.625,-60.87,,,1960888.0
1675334909.640625,-72.45,,,1956686.0
1675334909.65625,-83.11,,,1953210.0
1675334909.671875,-91.75,,,1950014.0
1675334909.6875,-97.15,,,1947580.0
1675334909.703125,-98.42,,,1945400.0
1675334909.71875,-95.22,,,1943492.0
1675334909.734375,-88.0,,,1941396.0
1675334909.75,-77.71,,,1939794.0
1675334909.765625,-65.45,,,1937899.0
1675334909.78125,-51.94,,,1936996.0
1675334909.796875,-37.42,,,1935830.0
1675334909.8125,-21.77,,,1935185.0
1675334909.828125,-4.93,,,1934531.0
1675334909.84375,12.72,,,1933961.0
1675334909.859375,30.24,,,1932229.0
1675334909.875,46.26,,,1929683.0
1675334909.890625,59.45,,,1927107.0
1675334909.90625,68.92,,,1924295.0
1675334909.921875,74.44,,,1921900.0
1675334909.9375,76.4,,,1920354.0
1675334909.953125,75.58,,,1919022.0
1675334909.96875,72.85,,,1918297.0
1675334909.984375,68.99,,,1917846.0
1675334910.0,64.59,,,1917390.0
1675334910.015625,60.12,,,1917384.0
1675334910.03125,55.96,,,1917622.0
1675334910.046875,52.33,,,1917833.0
1675334910.0625,49.33,,,1918504.0
1675334910.078125,46.91,,,1919234.0
1675334910.09375,44.81,,,1920705.0
1675334910.109375,42.77,,,1921874.0
1675334910.125,40.52,,,1922373.0
1675334910.140625,37.9,,,1923800.0
1675334910.15625,34.84,,,1926296.0
1675334910.171875,31.38,,,1929478.0
1675334910.1875,27.55,,,1935886.0
1675334910.203125,23.39,,,1944925.0
1675334910.21875,18.88,,,1953300.0
1675334910.234375,13.97,,,1959923.0
1675334910.25,8.58,,,1965898.0
1675334910.265625,2.56,,,1970215.0
1675334910.28125,-4.18,,,1977643.0
1675334910.296875,-11.58,,,1987184.0
1675334910.3125,-19.39,,,1991121.0
1675334910.328125,-27.15,,,1991745.0
1675334910.34375,-34.34,,,1990472.0
1675334910.359375,-40.62,,,1984721.0
1675334910.375,-46.01,,,1977654.0
1675334910.390625,-50.97,,,1971456.0
1675334910.40625,-56.31,,,1966137.0
1675334910.421875,-62.88,,,1963552.0
1675334910.4375,-71.23,,,1962162.0
1675334910.453125,-81.28,,,1960195.0
1675334910.46875,-92.2,,,1958435.0
1675334910.484375,-102.49,,,1956297.0
1675334910.5,-110.37,,,1954735.0
1675334910.515625,-114.17,,,1953428.0
1675334910.53125,-112.81,,,1952131.0
1675334910.546875,-106.05,,,1951322.0
1675334910.5625,-94.47,,,1950415.0
1675334910.578125,-79.23,,,1950156.0
1675334910.59375,-61.68,,,1950040.0
1675334910.609375,-43.01,,,1949696.0
1675334910.625,-24.0,,,1947438.0
1675334910.640625,-5.11,,,1949106.0
1675334910.65625,13.39,,,1945335.0
1675334910.671875,31.18,,,1942723.0
1675334910.6875,47.74,,,1940545.0
1675334910.703125,62.42,,,1938187.0
1675334910.71875,74.53,,,1936790.0
1675334910.734375,83.58,,,1935956.0
1675334910.75,89.48,,,1935104.0
1675334910.765625,92.54,,,1934462.0
1675334910.78125,93.42,,,1933928.0
1675334910.796875,92.86,,,1933621.0
1675334910.8125,91.53,,,1933323.0
1675334910.828125,89.88,,,1933139.0
1675334910.84375,88.11,,,1933458.0
1675334910.859375,86.28,,,1933734.0
1675334910.875,84.36,,,1933872.0
1675334910.890625,82.32,,,1934403.0
1675334910.90625,80.09,,,1934599.0
1675334910.921875,77.57,,,1934038.0
1675334910.9375,74.61,,,1933173.0
1675334910.953125,71.08,,,1932330.0
1675334910.96875,66.94,,,1931802.0
1675334910.984375,62.3,,,1931168.0
1675334911.0,57.39,,,1931593.0
1675334911.015625,52.39,,,1932226.0
1675334911.03125,47.32,,,1932645.0
1675334911.046875,42.08,,,1932992.0
1675334911.0625,36.4,,,1933984.0
1675334911.078125,30.13,,,1934992.0
1675334911.09375,23.3,,,1935751.0
1675334911.109375,16.17,,,1936462.0
1675334911.125,9.1,,,1937668.0
1675334911.140625,2.4,,,1938591.0
1675334911.15625,-3.89,,,1940118.0
1675334911.171875,-9.98,,,1941213.0
1675334911.1875,-16.3,,,1941226.0
1675334911.203125,-23.34,,,1941491.0
1675334911.21875,-31.55,,,1941495.0
1675334911.234375,-41.09,,,1941811.0
1675334911.25,-51.81,,,1942505.0
1675334911.265625,-63.14,,,1943378.0
1675334911.28125,-74.02,,,1944393.0
1675334911.296875,-83.07,,,1945465.0
1675334911.3125,-88.85,,,1946754.0
1675334911.328125,-90.22,,,1948421.0
1675334911.34375,-86.67,,,1949728.0
1675334911.359375,-78.47,,,1951345.0
1675334911.375,-66.5,,,1953180.0
1675334911.390625,-52.03,,,1955103.0
1675334911.40625,-36.28,,,1957103.0
1675334911.421875,-20.15,,,1958620.0
1675334911.4375,-4.15,,,1959276.0
1675334911.453125,11.48,,,1959874.0
1675334911.46875,26.55,,,1959283.0
1675334911.484375,40.72,,,1959079.0
1675334911.5,53.38,,,1958038.0
1675334911.515625,63.84,,,1957907.0
1675334911.53125,71.49,,,1957953.0
1675334911.546875,76.12,,,1957989.0
1675334911.5625,78.03,,,1958109.0
1675334911.578125,78.03,,,1958171.0
1675334911.59375,77.09,,,1958486.0
1675334911.609375,76.03,,,1958693.0
1675334911.625,75.23,,,1959680.0
1675334911.640625,74.61,,,1960209.0
1675334911.65625,73.81,,,1961038.0
1675334911.671875,72.5,,,1961963.0
1675334911.6875,70.62,,,1962900.0
1675334911.703125,68.36,,,1962525.0
1675334911.71875,66.03,,,1962021.0
1675334911.734375,63.81,,,1960927.0
1675334911.75,61.57,,,1963341.0
1675334911.765625,58.96,,,1970269.0
1675334911.78125,55.58,,,1976877.0
1675334911.796875,51.19,,,1982206.0
1675334911.8125,45.87,,,1986367.0
1675334911.828125,40.03,,,1991336.0
1675334911.84375,34.13,,,1995226.0
1675334911.859375,28.57,,,1997549.0
1675334911.875,23.46,,,2002576.0
1675334911.890625,18.63,,,2007895.0
1675334911.90625,13.66,,,2009488.0
1675334911.921875,8.08,,,2010662.0
1675334911.9375,1.34,,,2010870.0
1675334911.953125,-6.97,,,2008890.0
1675334911.96875,-17.18,,,2009262.0
1675334911.984375,-29.33,,,2006714.0
1675334912.0,-43.12,,,2004674.0
1675334912.015625,-57.81,,,2002236.0
1675334912.03125,-72.16,,,2000111.0
1675334912.046875,-84.62,,,2001359.0
1675334912.0625,-93.59,,,2002904.0
1675334912.078125,-97.86,,,1999118.0
1675334912.09375,-96.89,,,2005704.0
1675334912.109375,-90.96,,,2011241.0
1675334912.125,-81.07,,,2018360.0
1675334912.140625,-68.61,,,2023554.0
1675334912.15625,-54.93,,,2029281.0
1675334912.171875,-41.01,,,2028752.0
1675334912.1875,-27.36,,,2023303.0
1675334912.203125,-14.05,,,2021231.0
1675334912.21875,-1.05,,,2016195.0
1675334912.234375,11.46,,,2020053.0
1675334912.25,22.85,,,2026248.0
1675334912.265625,32.11,,,2033498.0
1675334912.28125,38.25,,,2039983.0
1675334912.296875,40.76,,,2036436.0
1675334912.3125,40.04,,,2037821.0
1675334912.328125,37.38,,,2040595.0
1675334912.34375,34.5,,,2037961.0
1675334912.359375,32.84,,,2034804.0
1675334912.375,32.97,,,2032653.0
1675334912.390625,34.25,,,2035588.0
1675334912.40625,35.27,,,2038881.0
1675334912.421875,34.54,,,2040930.0
1675334912.4375,31.31,,,2040748.0
1675334912.453125,25.89,,,2037506.0
1675334912.46875,19.48,,,2035343.0
1675334912.484375,13.48,,,2033273.0
1675334912.5,8.73,,,2031565.0
1675334912.515625,5.09,,,2030347.0
1675334912.53125,1.49,,,2041072.0
1675334912.546875,-3.39,,,2039250.0
1675334912.5625,-10.45,,,2028804.0
1675334912.578125,-19.69,,,2027961.0
1675334912.59375,-30.27,,,2028335.0
1675334912.609375,-41.08,,,2027791.0
1675334912.625,-51.2,,,2027650.0
1675334912.640625,-60.07,,,2028150.0
1675334912.65625,-67.07,,,2027840.0
1675334912.671875,-71.01,,,2027747.0
1675334912.6875,-70.18,,,2027936.0
1675334912.703125,-63.1,,,2026529.0
1675334912.71875,-49.8,,,2024343.0
1675334912.734375,-32.55,,,2021329.0
1675334912.75,-15.18,,,2018396.0
1675334912.765625,-1.4,,,2015831.0
1675334912.78125,7.29,,,2014406.0
1675334912.796875,12.47,,,2013034.0
1675334912.8125,17.86,,,2012231.0
1675334912.828125,27.04,,,2011589.0
1675334912.84375,41.17,,,2010824.0
1675334912.859375,58.19,,,2009898.0
1675334912.875,74.03,,,2009926.0
1675334912.890625,85.02,,,2010156.0
1675334912.90625,89.88,,,2010228.0
1675334912.921875,90.02,,,2010528.0
1675334912.9375,88.3,,,2010709.0
1675334912.953125,86.96,,,2010440.0
1675334912.96875,86.24,,,2009277.0
1675334912.984375,84.47,,,2007396.0
1675334913.0,79.34,,,2004881.0
1675334913.015625,69.47,,,2002327.0
1675334913.03125,55.21,,,2000307.0
1675334913.046875,38.46,,,1998987.0
1675334913.0625,21.71,,,1998088.0
1675334913.078125,6.97,,,1997065.0
1675334913.09375,-4.83,,,1996449.0
1675334913.109375,-13.82,,,1995994.0
1675334913.125,-20.63,,,1996326.0
1675334913.140625,-25.79,,,1996035.0
1675334913.15625,-29.51,,,1995842.0
1675334913.171875,-31.61,,,1996285.0
1675334913.1875,-31.94,,,1995923.0
1675334913.203125,-30.58,,,1996191.0
1675334913.21875,-28.07,,,1996781.0
1675334913.234375,-25.22,,,1996937.0
1675334913.25,-22.83,,,1995295.0
1675334913.265625,-21.46,,,1992954.0
1675334913.28125,-21.2,,,1990158.0
1675334913.296875,-21.79,,,1987776.0
1675334913.3125,-22.73,,,1985547.0
1675334913.328125,-23.57,,,1984116.0
1675334913.34375,-24.15,,,1983085.0
1675334913.359375,-24.63,,,1981964.0
1675334913.375,-25.45,,,1981235.0
1675334913.390625,-27.13,,,1981171.0
1675334913.40625,-29.99,,,1980695.0
1675334913.421875,-34.07,,,1980563.0
1675334913.4375,-39.03,,,1981005.0
1675334913.453125,-44.33,,,1981321.0
1675334913.46875,-49.44,,,1981727.0
1675334913.484375,-54.12,,,1982845.0
1675334913.5,-58.59,,,1983354.0
1675334913.515625,-63.36,,,1982382.0
1675334913.53125,-69.0,,,1980717.0
1675334913.546875,-75.67,,,1979311.0
1675334913.5625,-82.84,,,1977226.0
1675334913.578125,-89.32,,,1975584.0
1675334913.59375,-93.54,,,1974484.0
1675334913.609375,-94.08,,,1974464.0
1675334913.625,-90.15,,,1974182.0
1675334913.640625,-81.79,,,1974062.0
1675334913.65625,-69.88,,,1974315.0
1675334913.671875,-55.64,,,1974550.0
1675334913.6875,-40.29,,,1975147.0
1675334913.703125,-24.69,,,1975598.0
1675334913.71875,-9.26,,,1976388.0
1675334913.734375,5.97,,,1976838.0
1675334913.75,20.95,,,1977773.0
1675334913.765625,35.5,,,1977718.0
1675334913.78125,49.07,,,1976810.0
1675334913.796875,60.91,,,1974473.0
1675334913.8125,70.26,,,1972042.0
1675334913.828125,76.6,,,1969600.0
1675334913.84375,79.89,,,1967609.0
1675334913.859375,80.51,,,1966707.0
1675334913.875,79.11,,,1966396.0
1675334913.890625,76.44,,,1965612.0
1675334913.90625,73.18,,,1965282.0
1675334913.921875,69.9,,,1965219.0
1675334913.9375,67.02,,,1965215.0
1675334913.953125,64.9,,,1965274.0
1675334913.96875,63.62,,,1965439.0
1675334913.984375,63.0,,,1965753.0
1675334914.0,62.55,,,1966173.0
1675334914.015625,61.57,,,1966690.0
1675334914.03125,59.4,,,1966855.0
1675334914.046875,55.72,,,1965477.0
1675334914.0625,50.68,,,1962625.0
1675334914.078125,44.83,,,1959855.0
1675334914.09375,38.89,,,1956478.0
1675334914.109375,33.44,,,1953574.0
1675334914.125,28.71,,,1951537.0
1675334914.140625,24.55,,,1949923.0
1675334914.15625,20.52,,,1948078.0
1675334914.171875,16.15,,,1946625.0
1675334914.1875,11.16,,,1945397.0
1675334914.203125,5.55,,,1944053.0
1675334914.21875,-0.4,,,1943713.0
1675334914.234375,-6.25,,,1944418.0
1675334914.25,-11.65,,,1944670.0
1675334914.265625,-16.51,,,1944706.0
1675334914.28125,-21.02,,,1945034.0
1675334914.296875,-25.6,,,1945196.0
1675334914.3125,-30.75,,,1944498.0
1675334914.328125,-36.8,,,1942699.0
1675334914.34375,-43.87,,,1940391.0
1675334914.359375,-51.71,,,1937671.0
1675334914.375,-59.79,,,1935340.0
1675334914.390625,-67.36,,,1933520.0
1675334914.40625,-73.53,,,1932733.0
1675334914.421875,-77.45,,,1932080.0
1675334914.4375,-78.46,,,1932173.0
1675334914.453125,-76.19,,,1932161.0
1675334914.46875,-70.68,,,1932339.0
1675334914.484375,-62.34,,,1932940.0
1675334914.5,-51.85,,,1933760.0
1675334914.515625,-40.06,,,1934655.0
1675334914.53125,-27.83,,,1935753.0
1675334914.546875,-16.03,,,1937152.0
1675334914.5625,-5.46,,,1938519.0
1675334914.578125,3.14,,,1938605.0
1675334914.59375,9.26,,,1938147.0
1675334914.609375,12.76,,,1937035.0
1675334914.625,14.0,,,1936761.0
1675334914.640625,13.83,,,1936730.0
1675334914.65625,13.3,,,1939266.0
1675334914.671875,13.24,,,1942749.0
1675334914.6875,13.88,,,1946477.0
1675334914.703125,14.76,,,1950692.0
1675334914.71875,14.9,,,1954713.0
1675334914.734375,13.35,,,1958586.0
1675334914.75,9.78,,,1961339.0
1675334914.765625,4.79,,,1964362.0
1675334914.78125,-0.11,,,1963674.0
1675334914.796875,-2.76,,,1962741.0
1675334914.8125,-0.79,,,1963729.0
1675334914.828125,7.68,,,1967346.0
1675334914.84375,23.2,,,1969783.0
1675334914.859375,44.47,,,1970545.0
1675334914.875,68.15,,,1970305.0
1675334914.890625,89.71,,,1969563.0
1675334914.90625,104.8,,,1968512.0
1675334914.921875,110.82,,,1967924.0
1675334914.9375,107.77,,,1968083.0
1675334914.953125,98.0,,,1967793.0
1675334914.96875,84.94,,,1968210.0
1675334914.984375,71.51,,,1968152.0
1675334915.0,59.07,,,1968625.0
1675334915.015625,47.41,,,1969294.0
1675334915.03125,35.53,,,1969938.0
1675334915.046875,22.65,,,1970422.0
1675334915.0625,8.77,,,1971273.0
1675334915.078125,-5.49,,,1972608.0
1675334915.09375,-19.41,,,1974098.0
1675334915.109375,-32.61,,,1975082.0
1675334915.125,-45.06,,,1974961.0
1675334915.140625,-56.77,,,1974259.0
1675334915.15625,-67.4,,,1973220.0
1675334915.171875,-76.19,,,1972032.0
1675334915.1875,-82.18,,,1971497.0
1675334915.203125,-84.57,,,1971900.0
1675334915.21875,-83.1,,,1972621.0
1675334915.234375,-78.14,,,1973329.0
1675334915.25,-70.62,,,1974068.0
1675334915.265625,-61.62,,,1974813.0
1675334915.28125,-52.0,,,1975562.0
1675334915.296875,-42.27,,,1976326.0
1675334915.3125,-32.6,,,1977353.0
1675334915.328125,-23.06,,,1978289.0
1675334915.34375,-13.88,,,1979131.0
1675334915.359375,-5.51,,,1979996.0
1675334915.375,1.48,,,1981359.0
1675334915.390625,6.66,,,1981695.0
1675334915.40625,9.97,,,1981996.0
1675334915.421875,11.78,,,1981566.0
1675334915.4375,12.65,,,1981080.0
1675334915.453125,13.14,,,1980837.0
1675334915.46875,13.59,,,1980718.0
1675334915.484375,14.09,,,1980887.0
1675334915.5,14.55,,,1981304.0
1675334915.515625,14.83,,,1981885.0
1675334915.53125,14.84,,,1982374.0
1675334915.546875,14.51,,,1983459.0
1675334915.5625,13.79,,,1984345.0
1675334915.578125,12.59,,,1985389.0
1675334915.59375,10.84,,,1986813.0
1675334915.609375,8.51,,,1987495.0
1675334915.625,5.65,,,1989362.0
1675334915.640625,2.38,,,1990674.0
1675334915.65625,-1.14,,,1992426.0
1675334915.671875,-4.76,,,1993368.0
1675334915.6875,-8.36,,,1994144.0
1675334915.703125,-11.85,,,1995000.0
1675334915.71875,-15.23,,,1995603.0
1675334915.734375,-18.52,,,1996302.0
1675334915.75,-21.77,,,1997392.0
1675334915.765625,-25.04,,,1998688.0
1675334915.78125,-28.43,,,1999576.0
1675334915.796875,-32.03,,,2000901.0
1675334915.8125,-36.01,,,2001802.0
1675334915.828125,-40.55,,,2002232.0
1675334915.84375,-45.78,,,2002979.0
1675334915.859375,-51.61,,,2003682.0
1675334915.875,-57.61,,,2004692.0
1675334915.890625,-63.01,,,2005000.0
1675334915.90625,-66.81,,,2005944.0
1675334915.921875,-68.03,,,2006646.0
1675334915.9375,-66.05,,,2006326.0
1675334915.953125,-60.84,,,2005787.0
1675334915.96875,-52.94,,,2005265.0
1675334915.984375,-43.25,,,2004035.0
1675334916.0,-32.75,,,2003007.0
1675334916.015625,-22.18,,,2002384.0
1675334916.03125,-11.91,,,2001725.0
1675334916.046875,-2.06,,,2001493.0
1675334916.0625,7.36,,,2001137.0
1675334916.078125,16.18,,,2001135.0
1675334916.09375,24.05,,,2001098.0
1675334916.109375,30.51,,,2001398.0
1675334916.125,35.18,,,2001680.0
1675334916.140625,37.99,,,2002224.0
1675334916.15625,39.17,,,2003761.0
1675334916.171875,39.22,,,2005060.0
1675334916.1875,38.64,,,2005906.0
1675334916.203125,37.81,,,2006453.0
1675334916.21875,36.87,,,2005647.0
1675334916.234375,35.81,,,2004853.0
1675334916.25,34.6,,,2001002.0
1675334916.265625,33.27,,,2002189.0
1675334916.28125,31.91,,,2000837.0
1675334916.296875,30.68,,,2000553.0
1675334916.3125,29.63,,,2000795.0
1675334916.328125,28.7,,,2000675.0
1675334916.34375,27.69,,,2001249.0
1675334916.359375,26.34,,,2001757.0
1675334916.375,24.47,,,2002563.0
1675334916.390625,22.06,,,2003300.0
1675334916.40625,19.21,,,2004163.0
1675334916.421875,16.11,,,2005693.0
1675334916.4375,12.93,,,2006583.0
1675334916.453125,9.74,,,2007814.0
1675334916.46875,6.52,,,2008030.0
1675334916.484375,3.16,,,2008160.0
1675334916.5,-0.41,,,2007917.0
1675334916.515625,-4.2,,,2007531.0
1675334916.53125,-8.14,,,2007552.0
1675334916.546875,-12.13,,,2007124.0
1675334916.5625,-16.11,,,2008408.0
1675334916.578125,-20.15,,,2009452.0
1675334916.59375,-24.46,,,2010920.0
1675334916.609375,-29.34,,,2012845.0
1675334916.625,-35.04,,,2014478.0
1675334916.640625,-41.63,,,2015388.0
1675334916.65625,-48.83,,,2016025.0
1675334916.671875,-55.92,,,2016676.0
1675334916.6875,-61.92,,,2017959.0
1675334916.703125,-65.74,,,2019277.0
1675334916.71875,-66.57,,,2022142.0
1675334916.734375,-64.14,,,2020325.0
1675334916.75,-58.78,,,2023078.0
1675334916.765625,-51.29,,,2021445.0
1675334916.78125,-42.61,,,2020325.0
1675334916.796875,-33.48,,,2022050.0
1675334916.8125,-24.22,,,2023040.0
1675334916.828125,-14.86,,,2024096.0
1675334916.84375,-5.29,,,2020516.0
1675334916.859375,4.4,,,2019659.0
1675334916.875,13.79,,,2024185.0
1675334916.890625,22.15,,,2023245.0
1675334916.90625,28.74,,,2022529.0
1675334916.921875,33.04,,,2022276.0
1675334916.9375,35.03,,,2021848.0
1675334916.953125,35.09,,,2022133.0
1675334916.96875,33.91,,,2022442.0
1675334916.984375,32.15,,,2021879.0
1675334917.0,30.32,,,2022051.0
1675334917.015625,28.62,,,2021066.0
1675334917.03125,27.07,,,2019480.0
1675334917.046875,25.55,,,2017294.0
1675334917.0625,23.98,,,2015634.0
1675334917.078125,22.32,,,2022496.0
1675334917.09375,20.58,,,2013676.0
1675334917.109375,18.77,,,2012218.0
1675334917.125,16.88,,,2011120.0
1675334917.140625,14.9,,,2008777.0
1675334917.15625,12.78,,,2007576.0
1675334917.171875,10.5,,,2006767.0
1675334917.1875,7.95,,,2010055.0
1675334917.203125,4.98,,,2006242.0
1675334917.21875,1.44,,,2005583.0
1675334917.234375,-2.71,,,2005528.0
1675334917.25,-7.35,,,2005189.0
1675334917.265625,-12.18,,,2004193.0
1675334917.28125,-16.84,,,2003704.0
1675334917.296875,-21.13,,,2003290.0
1675334917.3125,-25.05,,,2002041.0
1675334917.328125,-28.87,,,2004832.0
1675334917.34375,-32.94,,,1998426.0
1675334917.359375,-37.62,,,1996584.0
1675334917.375,-43.15,,,1995330.0
1675334917.390625,-49.57,,,2000560.0
1675334917.40625,-56.72,,,1994562.0
1675334917.421875,-64.22,,,1994084.0
1675334917.4375,-71.39,,,1993476.0
1675334917.453125,-77.32,,,1992996.0
1675334917.46875,-80.93,,,1993863.0
1675334917.484375,-81.33,,,1995147.0
1675334917.5,-78.06,,,1996447.0
1675334917.515625,-71.32,,,1998173.0
1675334917.53125,-61.86,,,2003788.0
1675334917.546875,-50.84,,,2010884.0
1675334917.5625,-39.32,,,2023077.0
1675334917.578125,-28.07,,,2033963.0
1675334917.59375,-17.41,,,2040543.0
1675334917.609375,-7.41,,,2045392.0
1675334917.625,1.93,,,2051137.0
1675334917.640625,10.44,,,2051065.0
1675334917.65625,17.78,,,2049926.0
1675334917.671875,23.61,,,2049535.0
1675334917.6875,27.75,,,2049515.0
1675334917.703125,30.34,,,2052125.0
1675334917.71875,31.8,,,2055511.0
1675334917.734375,32.69,,,2057072.0
1675334917.75,33.44,,,2055373.0
1675334917.765625,34.17,,,2052166.0
1675334917.78125,34.73,,,2047150.0
1675334917.796875,34.88,,,2049467.0
1675334917.8125,34.47,,,2045505.0
1675334917.828125,33.54,,,2046622.0
1675334917.84375,32.36,,,2036777.0
1675334917.859375,31.14,,,2040620.0
1675334917.875,29.93,,,2042990.0
1675334917.890625,28.5,,,2033606.0
1675334917.90625,26.51,,,2031127.0
1675334917.921875,23.67,,,2028921.0
1675334917.9375,19.89,,,2027508.0
1675334917.953125,15.42,,,2024017.0
1675334917.96875,10.67,,,2025834.0
1675334917.984375,6.04,,,2022307.0
1675334918.0,1.79,,,2020623.0
1675334918.015625,-2.13,,,2018751.0
1675334918.03125,-5.93,,,2017893.0
1675334918.046875,-9.91,,,2017426.0
1675334918.0625,-14.29,,,2016681.0
1675334918.078125,-19.17,,,2015444.0
1675334918.09375,-24.57,,,2011444.0
1675334918.109375,-30.37,,,2013553.0
1675334918.125,-36.28,,,2009271.0
1675334918.140625,-41.76,,,2007501.0
1675334918.15625,-45.99,,,2005888.0
1675334918.171875,-48.07,,,2003708.0
1675334918.1875,-47.3,,,2004469.0
1675334918.203125,-43.44,,,2003449.0
1675334918.21875,-36.84,,,2003698.0
1675334918.234375,-28.28,,,2003447.0
1675334918.25,-18.69,,,2006572.0
1675334918.265625,-8.75,,,2004162.0
1675334918.28125,1.24,,,2004801.0
1675334918.296875,11.25,,,2004572.0
1675334918.3125,21.28,,,2003191.0
1675334918.328125,31.06,,,2001621.0
1675334918.34375,40.0,,,2000355.0
1675334918.359375,47.35,,,1999149.0
1675334918.375,52.54,,,1998265.0
1675334918.390625,55.42,,,1998043.0
1675334918.40625,56.3,,,1997757.0
1675334918.421875,55.78,,,1998313.0
1675334918.4375,54.51,,,1998979.0
1675334918.453125,52.92,,,2000149.0
1675334918.46875,51.15,,,2001705.0
1675334918.484375,49.19,,,2003561.0
1675334918.5,46.98,,,2006178.0
1675334918.515625,44.57,,,2008055.0
1675334918.53125,42.15,,,2008406.0
1675334918.546875,39.9,,,2007183.0
1675334918.5625,37.9,,,2005421.0
1675334918.578125,36.0,,,2003447.0
1675334918.59375,33.91,,,2001123.0
1675334918.609375,31.34,,,1999549.0
1675334918.625,28.16,,,1998595.0
1675334918.640625,24.46,,,1997395.0
1675334918.65625,20.57,,,1996055.0
1675334918.671875,16.88,,,1995286.0
1675334918.6875,13.72,,,1994189.0
1675334918.703125,11.19,,,1993773.0
1675334918.71875,9.21,,,1993235.0
1675334918.734375,7.5,,,1992700.0
1675334918.75,5.67,,,1992457.0
1675334918.765625,3.34,,,1991881.0
1675334918.78125,0.31,,,1989758.0
1675334918.796875,-3.4,,,1986909.0
1675334918.8125,-7.4,,,1983164.0
1675334918.828125,-10.97,,,1979648.0
1675334918.84375,-13.2,,,1976357.0
1675334918.859375,-13.25,,,1973800.0
1675334918.875,-10.55,,,1972096.0
1675334918.890625,-5.12,,,1970740.0
1675334918.90625,2.44,,,1969093.0
1675334918.921875,11.04,,,1967719.0
1675334918.9375,19.48,,,1967204.0
1675334918.953125,26.69,,,1966619.0
1675334918.96875,32.11,,,1966353.0
1675334918.984375,35.72,,,1966290.0
1675334919.0,37.91,,,1966332.0
1675334919.015625,39.25,,,1966781.0
1675334919.03125,40.15,,,1966257.0
1675334919.046875,40.68,,,1964226.0
1675334919.0625,40.59,,,1961425.0
1675334919.078125,39.47,,,1958348.0
1675334919.09375,36.98,,,1953021.0
1675334919.109375,33.0,,,1955672.0
1675334919.125,27.77,,,1951458.0
1675334919.140625,21.76,,,1950476.0
1675334919.15625,15.55,,,1949674.0
1675334919.171875,9.61,,,1949863.0
1675334919.1875,4.27,,,1949569.0
1675334919.203125,-0.41,,,1949761.0
1675334919.21875,-4.63,,,1950476.0
1675334919.234375,-8.7,,,1950973.0
1675334919.25,-12.95,,,1951577.0
1675334919.265625,-17.58,,,1952579.0
1675334919.28125,-22.68,,,1953783.0
1675334919.296875,-28.09,,,1955266.0
1675334919.3125,-33.49,,,1956490.0
1675334919.328125,-38.22,,,1956631.0
1675334919.34375,-41.26,,,1955556.0
1675334919.359375,-41.19,,,1954096.0
1675334919.375,-36.73,,,1952858.0
1675334919.390625,-27.39,,,1951481.0
1675334919.40625,-14.01,,,1950657.0
1675334919.421875,1.15,,,1950797.0
1675334919.4375,15.19,,,1950722.0
1675334919.453125,25.64,,,1951028.0
1675334919.46875,31.4,,,1950857.0
1675334919.484375,32.91,,,1951499.0
1675334919.5,31.45,,,1952093.0
1675334919.515625,28.15,,,1952863.0
1675334919.53125,23.24,,,1953655.0
1675334919.546875,16.1,,,1954861.0
1675334919.5625,6.0,,,1955920.0
1675334919.578125,-7.03,,,1957328.0
1675334919.59375,-21.75,,,1958552.0
1675334919.609375,-36.14,,,1960045.0
1675334919.625,-48.2,,,1961160.0
1675334919.640625,-56.79,,,1961468.0
1675334919.65625,-61.88,,,1961494.0
1675334919.671875,-64.28,,,1961856.0
1675334919.6875,-64.96,,,1961750.0
1675334919.703125,-64.51,,,1962198.0
1675334919.71875,-63.02,,,1962980.0
1675334919.734375,-60.2,,,1963929.0
1675334919.75,-55.88,,,1964668.0
1675334919.765625,-50.32,,,1965604.0
1675334919.78125,-44.39,,,1967066.0
1675334919.796875,-39.21,,,1968332.0
1675334919.8125,-35.7,,,1969886.0
1675334919.828125,-34.09,,,1971336.0
1675334919.84375,-33.81,,,1973116.0
1675334919.859375,-33.73,,,1974815.0
1675334919.875,-32.78,,,1977572.0
1675334919.890625,-30.41,,,1980268.0
1675334919.90625,-26.84,,,1985945.0
1675334919.921875,-22.81,,,1995218.0
1675334919.9375,-19.14,,,2004149.0
1675334919.953125,-16.27,,,2010425.0
1675334919.96875,-14.21,,,2017607.0
1675334919.984375,-12.59,,,2021605.0
1675334920.0,-11.08,,,2027324.0
1675334920.015625,-9.53,,,2037831.0
1675334920.03125,-8.15,,,2043119.0
1675334920.046875,-7.27,,,2044881.0
1675334920.0625,-7.19,,,2045196.0
1675334920.078125,-8.01,,,2046144.0
1675334920.09375,-9.53,,,2049150.0
1675334920.109375,-11.39,,,2052639.0
1675334920.125,-13.2,,,2055988.0
1675334920.140625,-14.69,,,2059697.0
1675334920.15625,-15.86,,,2062877.0
1675334920.171875,-16.96,,,2066243.0
1675334920.1875,-18.41,,,2068867.0
1675334920.203125,-20.64,,,2070262.0
1675334920.21875,-23.89,,,2070873.0
1675334920.234375,-28.19,,,2071614.0
1675334920.25,-33.37,,,2071929.0
1675334920.265625,-39.11,,,2072792.0
1675334920.28125,-45.06,,,2073569.0
1675334920.296875,-50.68,,,2074643.0
1675334920.3125,-55.31,,,2076023.0
1675334920.328125,-58.1,,,2076980.0
1675334920.34375,-58.25,,,2077757.0
1675334920.359375,-55.25,,,2078941.0
1675334920.375,-49.12,,,2080085.0
1675334920.390625,-40.42,,,2080733.0
1675334920.40625,-30.09,,,2081455.0
1675334920.421875,-19.06,,,2082280.0
1675334920.4375,-8.01,,,2083274.0
1675334920.453125,2.74,,,2084213.0
1675334920.46875,13.13,,,2084723.0
1675334920.484375,23.07,,,2085149.0
1675334920.5,32.32,,,2084717.0
1675334920.515625,40.43,,,2084538.0
1675334920.53125,46.85,,,2083988.0
1675334920.546875,51.29,,,2083220.0
1675334920.5625,53.75,,,2082362.0
1675334920.578125,54.59,,,2081958.0
1675334920.59375,54.38,,,2081398.0
1675334920.609375,53.62,,,2080577.0
1675334920.625,52.6,,,2080516.0
1675334920.640625,51.33,,,2080392.0
1675334920.65625,49.64,,,2080394.0
1675334920.671875,47.42,,,2080477.0
1675334920.6875,44.74,,,2080126.0
1675334920.703125,41.88,,,2080062.0
1675334920.71875,39.22,,,2080423.0
1675334920.734375,36.98,,,2080607.0
1675334920.75,35.1,,,2081400.0
1675334920.765625,33.21,,,2082004.0
1675334920.78125,30.8,,,2083549.0
1675334920.796875,27.44,,,2082346.0
1675334920.8125,23.01,,,2079851.0
1675334920.828125,17.76,,,2078384.0
1675334920.84375,12.19,,,2078130.0
1675334920.859375,6.83,,,2081049.0
1675334920.875,1.99,,,2086564.0
1675334920.890625,-2.35,,,2090261.0
1675334920.90625,-6.51,,,2090150.0
1675334920.921875,-10.95,,,2090685.0
1675334920.9375,-16.1,,,2094490.0
1675334920.953125,-22.2,,,2098488.0
1675334920.96875,-29.13,,,2099846.0
1675334920.984375,-36.43,,,2101019.0
1675334921.0,-43.29,,,2101915.0
1675334921.015625,-48.7,,,2102579.0
1675334921.03125,-51.68,,,2103070.0
1675334921.046875,-51.54,,,2104535.0
1675334921.0625,-48.06,,,2104188.0
1675334921.078125,-41.67,,,2105053.0
1675334921.09375,-33.23,,,2105134.0
1675334921.109375,-23.8,,,2104581.0
1675334921.125,-14.18,,,2103844.0
1675334921.140625,-4.71,,,2103307.0
1675334921.15625,4.7,,,2103538.0
1675334921.171875,14.26,,,2103346.0
1675334921.1875,23.81,,,2102947.0
1675334921.203125,32.62,,,2103650.0
1675334921.21875,39.5,,,2104205.0
1675334921.234375,43.19,,,2104544.0
1675334921.25,43.06,,,2104320.0
1675334921.265625,39.43,,,2104127.0
1675334921.28125,33.54,,,2104242.0
1675334921.296875,27.01,,,2104186.0
1675334921.3125,21.12,,,2103115.0
1675334921.328125,16.4,,,2103876.0
1675334921.34375,12.57,,,2102054.0
1675334921.359375,8.91,,,2099637.0
1675334921.375,4.87,,,2104874.0
1675334921.390625,0.28,,,2097119.0
1675334921.40625,-4.67,,,2104932.0
1675334921.421875,-9.74,,,2094811.0
1675334921.4375,-14.83,,,2092922.0
1675334921.453125,-19.76,,,2091298.0
1675334921.46875,-23.78,,,2088046.0
1675334921.484375,-25.16,,,2089528.0
1675334921.5,-21.55,,,2086790.0
1675334921.515625,-11.0,,,2085407.0
1675334921.53125,6.66,,,2084007.0
1675334921.546875,29.14,,,2082918.0
1675334921.5625,52.19,,,2081768.0
1675334921.578125,71.37,,,2080778.0
1675334921.59375,83.83,,,2080203.0
1675334921.609375,89.36,,,2079842.0
1675334921.625,89.72,,,2079567.0
1675334921.640625,87.1,,,2078164.0
1675334921.65625,82.51,,,2075380.0
1675334921.671875,75.35,,,2073056.0
1675334921.6875,64.23,,,2069686.0
1675334921.703125,48.65,,,2065914.0
1675334921.71875,29.98,,,2064473.0
1675334921.734375,11.19,,,2065280.0
1675334921.75,-4.46,,,2065231.0
1675334921.765625,-15.02,,,2065741.0
1675334921.78125,-20.66,,,2066136.0
1675334921.796875,-23.18,,,2064286.0
1675334921.8125,-24.76,,,2056376.0
1675334921.828125,-26.68,,,2049830.0
1675334921.84375,-28.84,,,2047056.0
1675334921.859375,-30.07,,,2047363.0
1675334921.875,-29.04,,,2047569.0
1675334921.890625,-25.11,,,2047534.0
1675334921.90625,-18.78,,,2046961.0
1675334921.921875,-11.51,,,2045908.0
1675334921.9375,-5.13,,,2043744.0
1675334921.953125,-1.11,,,2039601.0
1675334921.96875,-0.1,,,2035396.0
1675334921.984375,-1.68,,,2028263.0
1675334922.0,-4.69,,,2016273.0
1675334922.015625,-7.72,,,2019084.0
1675334922.03125,-9.68,,,2013738.0
1675334922.046875,-10.2,,,2024859.0
1675334922.0625,-9.6,,,2032160.0
1675334922.078125,-8.62,,,2021977.0
1675334922.09375,-7.93,,,2009834.0
1675334922.109375,-7.81,,,2011425.0
1675334922.125,-8.05,,,2006007.0
1675334922.140625,-8.27,,,2004440.0
1675334922.15625,-8.15,,,2007964.0
1675334922.171875,-7.76,,,2003190.0
1675334922.1875,-7.49,,,2001787.0
1675334922.203125,-7.8,,,2000594.0
1675334922.21875,-9.01,,,1998443.0
1675334922.234375,-11.09,,,1989129.0
1675334922.25,-13.73,,,1994463.0
1675334922.265625,-16.5,,,1983954.0
1675334922.28125,-19.07,,,1978497.0
1675334922.296875,-21.26,,,1973323.0
1675334922.3125,-23.13,,,1966134.0
1675334922.328125,-24.85,,,1969432.0
1675334922.34375,-26.68,,,1962466.0
1675334922.359375,-28.9,,,1959229.0
1675334922.375,-31.81,,,1956530.0
1675334922.390625,-35.67,,,1954127.0
1675334922.40625,-40.6,,,1952124.0
1675334922.421875,-46.53,,,1950513.0
1675334922.4375,-53.07,,,1950498.0
1675334922.453125,-59.55,,,1952848.0
1675334922.46875,-65.1,,,1953982.0
1675334922.484375,-68.73,,,1952679.0
1675334922.5,-69.61,,,1948826.0
1675334922.515625,-67.21,,,1942587.0
1675334922.53125,-61.51,,,1936317.0
1675334922.546875,-52.99,,,1929457.0
1675334922.5625,-42.51,,,1922413.0
1675334922.578125,-31.03,,,1916602.0
1675334922.59375,-19.43,,,1912013.0
1675334922.609375,-8.28,,,1907744.0
1675334922.625,2.13,,,1903592.0
1675334922.640625,11.66,,,1899491.0
1675334922.65625,20.24,,,1896071.0
1675334922.671875,27.71,,,1893288.0
1675334922.6875,33.9,,,1890717.0
1675334922.703125,38.67,,,1888474.0
1675334922.71875,42.04,,,1886303.0
1675334922.734375,44.25,,,1884361.0
1675334922.75,45.61,,,1882720.0
1675334922.765625,46.47,,,1881315.0
1675334922.78125,47.05,,,1879739.0
1675334922.796875,47.42,,,1876207.0
1675334922.8125,47.48,,,1870604.0
1675334922.828125,47.08,,,1864410.0
1675334922.84375,46.09,,,1858323.0
1675334922.859375,44.53,,,1852642.0
1675334922.875,42.52,,,1848291.0
1675334922.890625,40.24,,,1845079.0
1675334922.90625,37.84,,,1842274.0
1675334922.921875,35.41,,,1839397.0
1675334922.9375,32.92,,,1837112.0
1675334922.953125,30.3,,,1835113.0
1675334922.96875,27.54,,,1833589.0
1675334922.984375,24.6,,,1832464.0
1675334923.0,21.52,,,1831392.0
1675334923.015625,18.29,,,1830936.0
1675334923.03125,14.88,,,1830307.0
1675334923.046875,11.24,,,1830183.0
1675334923.0625,7.38,,,1829812.0
1675334923.078125,3.44,,,1827281.0
1675334923.09375,-0.4,,,1823033.0
1675334923.109375,-3.98,,,1819763.0
1675334923.125,-7.24,,,1817557.0
1675334923.140625,-10.3,,,1819010.0
1675334923.15625,-13.46,,,1819401.0
1675334923.171875,-17.05,,,1822374.0
1675334923.1875,-21.25,,,1827161.0
1675334923.203125,-26.07,,,1832597.0
1675334923.21875,-31.25,,,1837719.0
1675334923.234375,-36.38,,,1843083.0
1675334923.25,-40.84,,,1847404.0
1675334923.265625,-43.99,,,1851658.0
1675334923.28125,-45.14,,,1852104.0
1675334923.296875,-43.72,,,1851553.0
1675334923.3125,-39.49,,,1851628.0
1675334923.328125,-32.63,,,1851616.0
1675334923.34375,-23.86,,,1852374.0
1675334923.359375,-14.26,,,1850813.0
1675334923.375,-4.89,,,1846691.0
1675334923.390625,3.4,,,1841529.0
1675334923.40625,10.24,,,1835998.0
1675334923.421875,15.69,,,1830997.0
1675334923.4375,20.13,,,1827066.0
1675334923.453125,24.08,,,1824587.0
1675334923.46875,28.29,,,1822306.0
1675334923.484375,33.71,,,1820541.0
1675334923.5,41.48,,,1819257.0
1675334923.515625,52.42,,,1818836.0
1675334923.53125,66.5,,,1818780.0
1675334923.546875,82.32,,,1819029.0
1675334923.5625,97.34,,,1819773.0
1675334923.578125,108.68,,,1820337.0
1675334923.59375,114.23,,,1821382.0
1675334923.609375,113.5,,,1822577.0
1675334923.625,107.58,,,1824004.0
1675334923.640625,98.38,,,1824531.0
1675334923.65625,87.54,,,1822458.0
1675334923.671875,75.73,,,1819135.0
1675334923.6875,62.71,,,1815550.0
1675334923.703125,47.96,,,1812265.0
1675334923.71875,31.49,,,1809723.0
1675334923.734375,14.18,,,1808764.0
1675334923.75,-2.49,,,1808468.0
1675334923.765625,-17.05,,,1808881.0
1675334923.78125,-28.72,,,1809595.0
1675334923.796875,-37.59,,,1810619.0
1675334923.8125,-44.35,,,1812335.0
1675334923.828125,-49.88,,,1813877.0
1675334923.84375,-54.84,,,1815897.0
1675334923.859375,-59.6,,,1818205.0
1675334923.875,-64.23,,,1820986.0
1675334923.890625,-68.77,,,1824252.0
1675334923.90625,-73.32,,,1827573.0
1675334923.921875,-78.06,,,1830658.0
1675334923.9375,-83.08,,,1833027.0
1675334923.953125,-88.17,,,1832914.0
1675334923.96875,-92.75,,,1833620.0
1675334923.984375,-95.9,,,1834082.0
1675334924.0,-96.61,,,1838195.0
1675334924.015625,-94.16,,,1847507.0
1675334924.03125,-88.41,,,1856263.0
1675334924.046875,-79.87,,,1863877.0
1675334924.0625,-69.55,,,1869928.0
1675334924.078125,-58.57,,,1875910.0
1675334924.09375,-47.76,,,1882849.0
1675334924.109375,-37.49,,,1884826.0
1675334924.125,-27.72,,,1886586.0
1675334924.140625,-18.29,,,1892384.0
1675334924.15625,-9.13,,,1898784.0
1675334924.171875,-0.48,,,1906567.0
1675334924.1875,7.21,,,1914571.0
1675334924.203125,13.45,,,1922367.0
1675334924.21875,17.96,,,1927184.0
1675334924.234375,20.82,,,1927525.0
1675334924.25,22.42,,,1927372.0
1675334924.265625,23.3,,,1926770.0
1675334924.28125,23.87,,,1926510.0
1675334924.296875,24.37,,,1928444.0
1675334924.3125,24.8,,,1929684.0
1675334924.328125,25.1,,,1930900.0
1675334924.34375,25.21,,,1933099.0
1675334924.359375,25.2,,,1935752.0
1675334924.375,25.13,,,1937105.0
1675334924.390625,24.99,,,1937256.0
1675334924.40625,24.58,,,1938556.0
1675334924.421875,23.49,,,1939417.0
1675334924.4375,21.37,,,1940628.0
1675334924.453125,17.99,,,1941379.0
1675334924.46875,13.45,,,1942785.0
1675334924.484375,8.12,,,1944090.0
1675334924.5,2.51,,,1944716.0
1675334924.515625,-2.88,,,1945374.0
1675334924.53125,-7.73,,,1945895.0
1675334924.546875,-11.94,,,1945552.0
1675334924.5625,-15.57,,,1943546.0
1675334924.578125,-18.83,,,1942001.0
1675334924.59375,-22.03,,,1940700.0
1675334924.609375,-25.54,,,1938820.0
1675334924.625,-29.69,,,1937594.0
1675334924.640625,-34.61,,,1936888.0
1675334924.65625,-40.1,,,1936322.0
1675334924.671875,-45.52,,,1936118.0
1675334924.6875,-49.95,,,1936279.0
1675334924.703125,-52.49,,,1936772.0
1675334924.71875,-52.49,,,1937491.0
1675334924.734375,-49.81,,,1938173.0
1675334924.75,-44.8,,,1938982.0
1675334924.765625,-38.11,,,1939693.0
1675334924.78125,-30.45,,,1940896.0
1675334924.796875,-22.29,,,1942306.0
1675334924.8125,-13.85,,,1944151.0
1675334924.828125,-5.11,,,1944991.0
1675334924.84375,3.92,,,1945262.0
1675334924.859375,13.09,,,1949360.0
1675334924.875,21.95,,,1956228.0
1675334924.890625,29.85,,,1961395.0
1675334924.90625,36.13,,,1968466.0
1675334924.921875,40.39,,,1975198.0
1675334924.9375,42.63,,,1981947.0
1675334924.953125,43.3,,,1987469.0
1675334924.96875,43.12,,,1989777.0
1675334924.984375,42.74,,,1993764.0
1675334925.0,42.49,,,1999987.0
1675334925.015625,42.35,,,2003972.0
1675334925.03125,41.98,,,2006543.0
1675334925.046875,41.06,,,2008794.0
1675334925.0625,39.53,,,2010490.0
1675334925.078125,37.62,,,2013151.0
1675334925.09375,35.82,,,2015141.0
1675334925.109375,34.47,,,2016522.0
1675334925.125,33.61,,,2017021.0
1675334925.140625,32.83,,,2016891.0
1675334925.15625,31.46,,,2016166.0
1675334925.171875,28.91,,,2015667.0
1675334925.1875,24.98,,,2014739.0
1675334925.203125,19.91,,,2014408.0
1675334925.21875,14.37,,,2014244.0
1675334925.234375,9.14,,,2013983.0
1675334925.25,4.83,,,2013889.0
1675334925.265625,1.72,,,2013338.0
1675334925.28125,-0.3,,,2013423.0
1675334925.296875,-1.73,,,2013521.0
1675334925.3125,-3.3,,,2013694.0
1675334925.328125,-5.85,,,2013901.0
1675334925.34375,-10.07,,,2014075.0
1675334925.359375,-16.22,,,2014112.0
1675334925.375,-23.81,,,2014451.0
1675334925.390625,-31.52,,,2014542.0
1675334925.40625,-37.41,,,2013562.0
1675334925.421875,-39.44,,,2011456.0
1675334925.4375,-36.09,,,2009490.0
1675334925.453125,-26.78,,,2007224.0
1675334925.46875,-12.11,,,2005201.0
1675334925.484375,6.27,,,2003970.0
1675334925.5,26.01,,,2003189.0
1675334925.515625,44.6,,,2002298.0
1675334925.53125,59.98,,,2001779.0
1675334925.546875,71.01,,,2001217.0
1675334925.5625,77.58,,,2001193.0
1675334925.578125,80.43,,,2001014.0
1675334925.59375,80.54,,,2001100.0
1675334925.609375,78.52,,,2001144.0
1675334925.625,74.33,,,2001804.0
1675334925.640625,67.4,,,2002292.0
1675334925.65625,57.17,,,2003063.0
1675334925.671875,43.73,,,2004403.0
1675334925.6875,28.07,,,2005989.0
1675334925.703125,11.87,,,2007674.0
1675334925.71875,-3.0,,,2011591.0
1675334925.734375,-15.14,,,2014853.0
1675334925.75,-23.85,,,2015956.0
1675334925.765625,-29.16,,,2015670.0
1675334925.78125,-31.59,,,2016825.0
1675334925.796875,-31.87,,,2018719.0
1675334925.8125,-30.94,,,2021025.0
1675334925.828125,-29.75,,,2022670.0
1675334925.84375,-29.31,,,2024014.0
1675334925.859375,-30.42,,,2024426.0
1675334925.875,-33.5,,,2025253.0
1675334925.890625,-38.43,,,2026519.0
1675334925.90625,-44.61,,,2027529.0
1675334925.921875,-51.15,,,2028931.0
1675334925.9375,-57.15,,,2029943.0
1675334925.953125,-61.97,,,2030670.0
1675334925.96875,-65.3,,,2030855.0
1675334925.984375,-67.21,,,2029806.0
1675334926.0,-68.09,,,2026300.0
1675334926.015625,-68.56,,,2024342.0
1675334926.03125,-69.28,,,2022979.0
1675334926.046875,-70.69,,,2022561.0
1675334926.0625,-72.82,,,2021582.0
1675334926.078125,-75.13,,,2020793.0
1675334926.09375,-76.62,,,2020115.0
1675334926.109375,-76.1,,,2019711.0
1675334926.125,-72.68,,,2019494.0
1675334926.140625,-66.09,,,2019782.0
1675334926.15625,-56.82,,,2027932.0
1675334926.171875,-45.84,,,2019376.0
1675334926.1875,-34.26,,,2020106.0
1675334926.203125,-22.8,,,2020382.0
1675334926.21875,-11.77,,,2020935.0
1675334926.234375,-1.15,,,2021266.0
1675334926.25,9.06,,,2021298.0
1675334926.265625,18.6,,,2020257.0
1675334926.28125,26.92,,,2018090.0
1675334926.296875,33.41,,,2016009.0
1675334926.3125,37.71,,,2013604.0
1675334926.328125,39.88,,,2011826.0
1675334926.34375,40.43,,,2010476.0
1675334926.359375,40.05,,,2009255.0
1675334926.375,39.35,,,2008254.0
1675334926.390625,38.72,,,2007497.0
1675334926.40625,38.31,,,2007347.0
1675334926.421875,38.08,,,2007098.0
1675334926.4375,37.88,,,2007432.0
1675334926.453125,37.54,,,2007782.0
1675334926.46875,36.8,,,2007953.0
1675334926.484375,35.38,,,2010155.0
1675334926.5,33.04,,,2008754.0
1675334926.515625,29.65,,,2009781.0
1675334926.53125,25.3,,,2009706.0
1675334926.546875,20.21,,,2008487.0
1675334926.5625,14.72,,,2009049.0
1675334926.578125,9.13,,,2006828.0
1675334926.59375,3.73,,,2004521.0
1675334926.609375,-1.34,,,2002188.0
1675334926.625,-6.02,,,1999713.0
1675334926.640625,-10.41,,,1996660.0
1675334926.65625,-14.78,,,1995487.0
1675334926.671875,-19.5,,,1994655.0
1675334926.6875,-24.87,,,1994225.0
1675334926.703125,-30.85,,,1993743.0
1675334926.71875,-36.95,,,1993795.0
1675334926.734375,-42.22,,,1993625.0
1675334926.75,-45.54,,,1993544.0
1675334926.765625,-46.02,,,1993767.0
1675334926.78125,-43.31,,,1994409.0
1675334926.796875,-37.66,,,1997848.0
1675334926.8125,-29.77,,,1994889.0
1675334926.828125,-20.48,,,1995533.0
1675334926.84375,-10.54,,,1996399.0
1675334926.859375,-0.46,,,1997007.0
1675334926.875,9.44,,,1996377.0
1675334926.890625,18.89,,,1994812.0
1675334926.90625,27.56,,,1992897.0
1675334926.921875,35.12,,,1991237.0
1675334926.9375,41.23,,,1989599.0
1675334926.953125,45.68,,,1988734.0
1675334926.96875,48.46,,,1988692.0
1675334926.984375,49.77,,,1988463.0
1675334927.0,49.96,,,1988147.0
1675334927.015625,49.46,,,1988289.0
1675334927.03125,48.67,,,1988710.0
1675334927.046875,47.89,,,1989612.0
1675334927.0625,47.28,,,1990404.0
1675334927.078125,46.85,,,1991378.0
1675334927.09375,46.55,,,1992374.0
1675334927.109375,46.37,,,1993189.0
1675334927.125,46.34,,,1994598.0
1675334927.140625,46.56,,,1996386.0
1675334927.15625,47.07,,,1998006.0
1675334927.171875,47.84,,,1998386.0
1675334927.1875,48.72,,,1997868.0
1675334927.203125,49.48,,,1996863.0
1675334927.21875,49.94,,,1997188.0
1675334927.234375,49.98,,,1997252.0
1675334927.25,49.54,,,1998503.0
1675334927.265625,48.51,,,2001770.0
1675334927.28125,46.69,,,2005383.0
1675334927.296875,43.78,,,2008499.0
1675334927.3125,39.51,,,2014200.0
1675334927.328125,33.77,,,2016949.0
1675334927.34375,26.64,,,2015866.0
1675334927.359375,18.48,,,2010363.0
1675334927.375,9.74,,,2006724.0
1675334927.390625,0.86,,,2007335.0
1675334927.40625,-7.75,,,2009836.0
1675334927.421875,-15.74,,,2011475.0
1675334927.4375,-22.75,,,2012685.0
1675334927.453125,-28.37,,,2013874.0
1675334927.46875,-32.21,,,2014613.0
1675334927.484375,-34.0,,,2014548.0
1675334927.5,-33.71,,,2013989.0
1675334927.515625,-31.57,,,2012575.0
1675334927.53125,-28.05,,,2010918.0
1675334927.546875,-23.63,,,2009803.0
1675334927.5625,-18.77,,,2008843.0
1675334927.578125,-13.7,,,2007815.0
1675334927.59375,-8.49,,,2007011.0
1675334927.609375,-3.24,,,2006053.0
1675334927.625,1.86,,,2005552.0
1675334927.640625,6.38,,,2005443.0
1675334927.65625,9.68,,,2005273.0
1675334927.671875,11.21,,,2004789.0
1675334927.6875,10.68,,,2004668.0
1675334927.703125,8.29,,,2005198.0
1675334927.71875,4.67,,,2005333.0
1675334927.734375,0.69,,,2005447.0
1675334927.75,-2.84,,,2005888.0
1675334927.765625,-5.36,,,2005753.0
1675334927.78125,-6.42,,,2004609.0
1675334927.796875,-5.38,,,2002354.0
1675334927.8125,-1.25,,,2000253.0
1675334927.828125,6.89,,,1997702.0
1675334927.84375,19.21,,,1995672.0
1675334927.859375,34.38,,,1994141.0
1675334927.875,49.64,,,1993254.0
1675334927.890625,61.68,,,1992062.0
1675334927.90625,68.01,,,1991441.0
1675334927.921875,68.11,,,1991059.0
1675334927.9375,63.38,,,1991200.0
1675334927.953125,56.18,,,1992205.0
1675334927.96875,48.28,,,1993303.0
1675334927.984375,39.94,,,1994697.0
1675334928.0,29.96,,,1996488.0
1675334928.015625,16.73,,,1997766.0
1675334928.03125,-0.53,,,1999562.0
1675334928.046875,-21.17,,,2001825.0
1675334928.0625,-43.35,,,2005262.0
1675334928.078125,-64.8,,,2007543.0
1675334928.09375,-83.66,,,2010173.0
1675334928.109375,-98.8,,,2010897.0
1675334928.125,-109.75,,,2010223.0
1675334928.140625,-116.43,,,2007968.0
1675334928.15625,-119.01,,,2005547.0
1675334928.171875,-117.89,,,2004248.0
1675334928.1875,-113.6,,,2003547.0
1675334928.203125,-106.75,,,2002644.0
1675334928.21875,-97.92,,,2002327.0
1675334928.234375,-87.65,,,2001942.0
1675334928.25,-76.48,,,2001738.0
1675334928.265625,-65.0,,,2001521.0
1675334928.28125,-53.88,,,2001577.0
1675334928.296875,-43.58,,,2001952.0
1675334928.3125,-34.26,,,2002129.0
1675334928.328125,-25.78,,,2002216.0
1675334928.34375,-17.84,,,2002957.0
1675334928.359375,-10.32,,,2003942.0
1675334928.375,-3.37,,,2003968.0
1675334928.390625,2.55,,,2002780.0
1675334928.40625,6.98,,,2001013.0
1675334928.421875,9.68,,,1999038.0
1675334928.4375,10.84,,,1997539.0
1675334928.453125,10.99,,,1996553.0
1675334928.46875,10.88,,,1995696.0
1675334928.484375,11.11,,,1995334.0
1675334928.5,11.98,,,1994568.0
1675334928.515625,13.43,,,1994001.0
1675334928.53125,15.0,,,1993792.0
1675334928.546875,16.12,,,1993690.0
1675334928.5625,16.34,,,1994213.0
1675334928.578125,15.44,,,1994769.0
1675334928.59375,13.53,,,1995222.0
1675334928.609375,10.98,,,1996097.0
1675334928.625,8.18,,,1996458.0
1675334928.640625,5.41,,,1997546.0
1675334928.65625,2.8,,,1997303.0
1675334928.671875,0.31,,,1994392.0
1675334928.6875,-2.18,,,1996151.0
1675334928.703125,-4.8,,,1992251.0
1675334928.71875,-7.69,,,1990341.0
1675334928.734375,-11.0,,,1989080.0
1675334928.75,-14.91,,,1987021.0
1675334928.765625,-19.52,,,1987650.0
1675334928.78125,-24.73,,,1995605.0
1675334928.796875,-30.17,,,2003984.0
1675334928.8125,-35.14,,,2009915.0
1675334928.828125,-38.75,,,2014796.0
1675334928.84375,-40.15,,,2017336.0
1675334928.859375,-38.79,,,2025744.0
1675334928.875,-34.57,,,2020675.0
1675334928.890625,-27.9,,,2029816.0
1675334928.90625,-19.52,,,2034187.0
1675334928.921875,-10.26,,,2041547.0
1675334928.9375,-0.82,,,2046233.0
1675334928.953125,8.31,,,2048474.0
1675334928.96875,16.92,,,2045580.0
1675334928.984375,24.83,,,2040936.0
1675334929.0,31.87,,,2036855.0
1675334929.015625,37.81,,,2033811.0
1675334929.03125,42.42,,,2029356.0
1675334929.046875,45.57,,,2031544.0
1675334929.0625,47.38,,,2027444.0
1675334929.078125,48.17,,,2025372.0
1675334929.09375,48.37,,,2023039.0
1675334929.109375,48.37,,,2021390.0
1675334929.125,48.39,,,2020550.0
1675334929.140625,48.44,,,2019900.0
1675334929.15625,48.41,,,2019375.0
1675334929.171875,48.14,,,2019225.0
1675334929.1875,47.53,,,2018476.0
1675334929.203125,46.59,,,2018100.0
1675334929.21875,45.37,,,2017915.0
1675334929.234375,43.88,,,2018010.0
1675334929.25,42.06,,,2017290.0
1675334929.265625,39.78,,,2012415.0
1675334929.28125,36.96,,,2002151.0
1675334929.296875,33.65,,,2008790.0
1675334929.3125,30.06,,,2015113.0
1675334929.328125,26.48,,,1999853.0
1675334929.34375,23.18,,,1997611.0
1675334929.359375,20.23,,,1995221.0
1675334929.375,17.49,,,1992881.0
1675334929.390625,14.69,,,1990768.0
1675334929.40625,11.55,,,1988663.0
1675334929.421875,7.98,,,1986572.0
1675334929.4375,4.19,,,1985193.0
1675334929.453125,0.65,,,1983804.0
1675334929.46875,-1.98,,,1982811.0
1675334929.484375,-2.96,,,1982303.0
1675334929.5,-1.7,,,1981998.0
1675334929.515625,2.12,,,1981687.0
1675334929.53125,8.38,,,1980952.0
1675334929.546875,16.41,,,1980109.0
1675334929.5625,25.16,,,1977836.0
1675334929.578125,33.35,,,1978081.0
1675334929.59375,39.92,,,1983500.0
1675334929.609375,44.34,,,1991702.0
1675334929.625,46.6,,,1998934.0
1675334929.640625,47.17,,,2003388.0
1675334929.65625,46.57,,,2009275.0
1675334929.671875,45.09,,,2013106.0
1675334929.6875,42.7,,,2016721.0
1675334929.703125,39.2,,,2020239.0
1675334929.71875,34.57,,,2024225.0
1675334929.734375,29.18,,,2025165.0
1675334929.75,23.82,,,2023959.0
1675334929.765625,19.38,,,2023801.0
1675334929.78125,16.44,,,2025330.0
1675334929.796875,15.0,,,2026294.0
1675334929.8125,14.45,,,2027608.0
1675334929.828125,13.88,,,2027070.0
1675334929.84375,12.48,,,2025554.0
1675334929.859375,9.9,,,2023683.0
1675334929.875,6.32,,,2021599.0
1675334929.890625,2.26,,,2020270.0
1675334929.90625,-1.73,,,2020206.0
1675334929.921875,-5.39,,,2020410.0
1675334929.9375,-8.85,,,2020249.0
1675334929.953125,-12.47,,,2020459.0
1675334929.96875,-16.67,,,2020389.0
1675334929.984375,-21.62,,,2020716.0
1675334930.0,-27.13,,,2021384.0
1675334930.015625,-32.71,,,2022246.0
1675334930.03125,-37.81,,,2023054.0
1675334930.046875,-42.06,,,2024266.0
1675334930.0625,-45.49,,,2025061.0
1675334930.078125,-48.51,,,2026232.0
1675334930.09375,-51.7,,,2027136.0
1675334930.109375,-55.52,,,2028127.0
1675334930.125,-59.96,,,2027653.0
1675334930.140625,-64.56,,,2027084.0
1675334930.15625,-68.49,,,2025906.0
1675334930.171875,-70.86,,,2024978.0
1675334930.1875,-70.87,,,2023924.0
1675334930.203125,-67.95,,,2023294.0
1675334930.21875,-61.58,,,2023545.0
1675334930.234375,-51.29,,,2023711.0
1675334930.25,-36.71,,,2024000.0
1675334930.265625,-18.09,,,2023931.0
1675334930.28125,3.35,,,2024790.0
1675334930.296875,25.5,,,2025438.0
1675334930.3125,45.96,,,2026174.0
1675334930.328125,62.98,,,2026361.0
1675334930.34375,76.13,,,2027803.0
1675334930.359375,86.19,,,2031878.0
1675334930.375,94.29,,,2035759.0
1675334930.390625,100.82,,,2037062.0
1675334930.40625,104.87,,,2038790.0
1675334930.421875,104.65,,,2042990.0
1675334930.4375,98.66,,,2047073.0
1675334930.453125,86.82,,,2050667.0
1675334930.46875,70.85,,,2054489.0
1675334930.484375,53.52,,,2052283.0
1675334930.5,37.41,,,2044810.0
1675334930.515625,23.79,,,2040909.0
1675334930.53125,12.43,,,2043770.0
1675334930.546875,2.35,,,2052503.0
1675334930.5625,-7.23,,,2054924.0
1675334930.578125,-16.32,,,2047342.0
1675334930.59375,-24.31,,,2041740.0
1675334930.609375,-30.75,,,2042207.0
1675334930.625,-35.81,,,2044401.0
1675334930.640625,-40.47,,,2046698.0
1675334930.65625,-45.97,,,2048545.0
1675334930.671875,-53.2,,,2050397.0
1675334930.6875,-62.09,,,2052324.0
1675334930.703125,-71.73,,,2053788.0
1675334930.71875,-80.77,,,2055611.0
1675334930.734375,-88.09,,,2056656.0
1675334930.75,-93.25,,,2056847.0
1675334930.765625,-96.53,,,2056726.0
1675334930.78125,-98.7,,,2056616.0
1675334930.796875,-100.56,,,2056521.0
1675334930.8125,-102.51,,,2056598.0
1675334930.828125,-104.38,,,2057543.0
1675334930.84375,-105.49,,,2058586.0
1675334930.859375,-104.94,,,2059413.0
1675334930.875,-101.97,,,2060380.0
1675334930.890625,-96.29,,,2060859.0
1675334930.90625,-88.14,,,2061847.0
1675334930.921875,-78.25,,,2062903.0
1675334930.9375,-67.48,,,2064315.0
1675334930.953125,-56.5,,,2065325.0
1675334930.96875,-45.63,,,2066390.0
1675334930.984375,-34.82,,,2067712.0
1675334931.0,-23.98,,,2068780.0
1675334931.015625,-13.14,,,2069882.0
1675334931.03125,-2.67,,,2070711.0
1675334931.046875,6.86,,,2070683.0
1675334931.0625,14.87,,,2069982.0
1675334931.078125,21.03,,,2068874.0
1675334931.09375,25.36,,,2067906.0
1675334931.109375,28.22,,,2066767.0
1675334931.125,30.1,,,2066025.0
1675334931.140625,31.36,,,2065541.0
1675334931.15625,32.16,,,2065161.0
1675334931.171875,32.45,,,2064783.0
1675334931.1875,32.16,,,2064268.0
1675334931.203125,31.34,,,2064118.0
1675334931.21875,30.25,,,2064376.0
1675334931.234375,29.23,,,2064887.0
1675334931.25,28.59,,,2065289.0
1675334931.265625,28.32,,,2065838.0
1675334931.28125,28.14,,,2066107.0
1675334931.296875,27.52,,,2066631.0
1675334931.3125,26.0,,,2066889.0
1675334931.328125,23.39,,,2066742.0
1675334931.34375,19.83,,,2065865.0
1675334931.359375,15.79,,,2064203.0
1675334931.375,11.79,,,2062316.0
1675334931.390625,8.23,,,2060340.0
1675334931.40625,5.26,,,2058304.0
1675334931.421875,2.76,,,2056986.0
1675334931.4375,0.5,,,2055851.0
1675334931.453125,-1.87,,,2054969.0
1675334931.46875,-4.65,,,2054037.0
1675334931.484375,-8.07,,,2053370.0
1675334931.5,-12.25,,,2052674.0
1675334931.515625,-17.07,,,2052541.0
1675334931.53125,-22.18,,,2052506.0
1675334931.546875,-26.94,,,2052236.0
1675334931.5625,-30.55,,,2052162.0
1675334931.578125,-32.26,,,2052436.0
1675334931.59375,-31.49,,,2052450.0
1675334931.609375,-28.13,,,2052347.0
1675334931.625,-22.46,,,2051624.0
1675334931.640625,-15.12,,,2049569.0
1675334931.65625,-6.88,,,2047762.0
1675334931.671875,1.62,,,2045537.0
1675334931.6875,9.97,,,2043766.0
1675334931.703125,18.01,,,2042051.0
1675334931.71875,25.67,,,2041085.0
1675334931.734375,32.8,,,2039813.0
1675334931.75,39.04,,,2039212.0
1675334931.765625,43.91,,,2038516.0
1675334931.78125,46.93,,,2037890.0
1675334931.796875,48.02,,,2037660.0
1675334931.8125,47.47,,,2037504.0
1675334931.828125,46.03,,,2037285.0
1675334931.84375,44.53,,,2037291.0
1675334931.859375,43.65,,,2037371.0
1675334931.875,43.66,,,2037216.0
1675334931.890625,44.41,,,2036500.0
1675334931.90625,45.47,,,2034567.0
1675334931.921875,46.29,,,2032326.0
1675334931.9375,46.36,,,2030413.0
1675334931.953125,45.3,,,2028424.0
1675334931.96875,42.89,,,2027818.0
1675334931.984375,39.07,,,2030962.0
1675334932.0,33.92,,,2034697.0
1675334932.015625,27.63,,,2039217.0
1675334932.03125,20.31,,,2044115.0
1675334932.046875,12.13,,,2049347.0
1675334932.0625,3.22,,,2053125.0
1675334932.078125,-6.11,,,2053637.0
1675334932.09375,-15.36,,,2053122.0
1675334932.109375,-23.8,,,2052261.0
1675334932.125,-30.72,,,2050987.0
1675334932.140625,-35.62,,,2050163.0
1675334932.15625,-38.22,,,2049147.0
1675334932.171875,-38.39,,,2045251.0
1675334932.1875,-36.01,,,2040898.0
1675334932.203125,-31.07,,,2037080.0
1675334932.21875,-23.88,,,2033336.0
1675334932.234375,-15.33,,,2029290.0
1675334932.25,-6.58,,,2025784.0
1675334932.265625,1.31,,,2022748.0
1675334932.28125,8.02,,,2020344.0
1675334932.296875,14.09,,,2017603.0
1675334932.3125,20.39,,,2015533.0
1675334932.328125,27.35,,,2013773.0
1675334932.34375,34.25,,,2012126.0
1675334932.359375,39.4,,,2010464.0
1675334932.375,40.92,,,2009406.0
1675334932.390625,37.91,,,2008199.0
1675334932.40625,30.95,,,2007496.0
1675334932.421875,21.95,,,2006739.0
1675334932.4375,13.2,,,2006083.0
1675334932.453125,6.33,,,2005053.0
1675334932.46875,1.85,,,2002224.0
1675334932.484375,-0.82,,,1998845.0
1675334932.5,-2.65,,,1994914.0
1675334932.515625,-4.45,,,1990726.0
1675334932.53125,-6.69,,,1987082.0
1675334932.546875,-9.47,,,1984387.0
1675334932.5625,-12.74,,,1982553.0
1675334932.578125,-16.44,,,1981187.0
1675334932.59375,-20.59,,,1979700.0
1675334932.609375,-25.12,,,1978767.0
1675334932.625,-29.93,,,1978254.0
1675334932.640625,-34.81,,,1978165.0
1675334932.65625,-39.43,,,1978049.0
1675334932.671875,-43.43,,,1977176.0
1675334932.6875,-46.51,,,1975875.0
1675334932.703125,-48.47,,,1975163.0
1675334932.71875,-49.44,,,1975247.0
1675334932.734375,-49.76,,,1975716.0
1675334932.75,-49.9,,,1975110.0
1675334932.765625,-50.3,,,1975140.0
1675334932.78125,-51.16,,,1975445.0
1675334932.796875,-52.52,,,1976957.0
1675334932.8125,-54.31,,,1978198.0
1675334932.828125,-56.52,,,1981178.0
1675334932.84375,-59.17,,,1982669.0
1675334932.859375,-62.22,,,1982524.0
1675334932.875,-65.41,,,1978676.0
1675334932.890625,-68.12,,,1975388.0
1675334932.90625,-69.52,,,1974238.0
1675334932.921875,-68.82,,,1975935.0
1675334932.9375,-65.52,,,1978066.0
1675334932.953125,-59.65,,,1980260.0
1675334932.96875,-51.69,,,1982103.0
1675334932.984375,-42.34,,,1983899.0
1675334933.0,-32.29,,,1985474.0
1675334933.015625,-22.07,,,1987096.0
1675334933.03125,-12.02,,,1988153.0
1675334933.046875,-2.42,,,1988006.0
1675334933.0625,6.41,,,1987569.0
1675334933.078125,14.2,,,1987016.0
1675334933.09375,20.64,,,1986180.0
1675334933.109375,25.57,,,1985560.0
1675334933.125,29.04,,,1985195.0
1675334933.140625,31.21,,,1985537.0
1675334933.15625,32.37,,,1985850.0
1675334933.171875,32.73,,,1986630.0
1675334933.1875,32.48,,,1987618.0
1675334933.203125,31.69,,,1988819.0
1675334933.21875,30.41,,,1990093.0
1675334933.234375,28.71,,,1991106.0
1675334933.25,26.77,,,1992874.0
1675334933.265625,24.79,,,1994565.0
1675334933.28125,22.89,,,1996798.0
1675334933.296875,21.06,,,1998541.0
1675334933.3125,19.09,,,2000124.0
1675334933.328125,16.7,,,2001670.0
1675334933.34375,13.69,,,2002484.0
1675334933.359375,10.02,,,2002680.0
1675334933.375,5.86,,,2002223.0
1675334933.390625,1.44,,,2001940.0
1675334933.40625,-3.01,,,2001995.0
1675334933.421875,-7.4,,,2002001.0
1675334933.4375,-11.74,,,2002739.0
1675334933.453125,-16.13,,,2003951.0
1675334933.46875,-20.73,,,2005325.0
1675334933.484375,-25.71,,,2006303.0
1675334933.5,-31.28,,,2006954.0
1675334933.515625,-37.56,,,2008835.0
1675334933.53125,-44.4,,,2011622.0
1675334933.546875,-51.19,,,2013172.0
1675334933.5625,-56.91,,,2015738.0
1675334933.578125,-60.38,,,2022353.0
1675334933.59375,-60.6,,,2031878.0
1675334933.609375,-57.22,,,2041953.0
1675334933.625,-50.61,,,2051100.0
1675334933.640625,-41.73,,,2057885.0
1675334933.65625,-31.73,,,2066055.0
1675334933.671875,-21.54,,,2067703.0
1675334933.6875,-11.67,,,2065585.0
1675334933.703125,-2.25,,,2062622.0
1675334933.71875,6.7,,,2060119.0
1675334933.734375,15.04,,,2061395.0
1675334933.75,22.45,,,2063993.0
1675334933.765625,28.47,,,2067371.0
1675334933.78125,32.74,,,2070954.0
1675334933.796875,35.16,,,2073864.0
1675334933.8125,35.91,,,2075881.0
1675334933.828125,35.33,,,2078126.0
1675334933.84375,33.78,,,2080948.0
1675334933.859375,31.55,,,2083105.0
1675334933.875,28.89,,,2085279.0
1675334933.890625,26.02,,,2087839.0
1675334933.90625,23.19,,,2090940.0
1675334933.921875,20.66,,,2094455.0
1675334933.9375,18.65,,,2097982.0
1675334933.953125,17.21,,,2101106.0
1675334933.96875,16.21,,,2104253.0
1675334933.984375,15.31,,,2106344.0
1675334934.0,14.14,,,2108000.0
1675334934.015625,12.31,,,2109366.0
1675334934.03125,9.64,,,2111052.0
1675334934.046875,6.15,,,2111904.0
1675334934.0625,2.14,,,2112576.0
1675334934.078125,-1.99,,,2113428.0
1675334934.09375,-5.8,,,2114201.0
1675334934.109375,-9.06,,,2115541.0
1675334934.125,-11.86,,,2117340.0
1675334934.140625,-14.62,,,2119248.0
1675334934.15625,-18.0,,,2120903.0
1675334934.171875,-22.64,,,2122344.0
1675334934.1875,-28.84,,,2123866.0
1675334934.203125,-36.33,,,2124640.0
1675334934.21875,-44.31,,,2126044.0
1675334934.234375,-51.57,,,2126848.0
1675334934.25,-56.82,,,2126568.0
1675334934.265625,-59.05,,,2126374.0
1675334934.28125,-57.82,,,2125772.0
1675334934.296875,-53.28,,,2125529.0
1675334934.3125,-46.04,,,2125048.0
1675334934.328125,-36.95,,,2124279.0
1675334934.34375,-26.79,,,2123171.0
1675334934.359375,-16.17,,,2122154.0
1675334934.375,-5.5,,,2121634.0
1675334934.390625,4.91,,,2123813.0
1675334934.40625,14.73,,,2125540.0
1675334934.421875,23.58,,,2126425.0
1675334934.4375,31.05,,,2128124.0
1675334934.453125,36.85,,,2129807.0
1675334934.46875,40.91,,,2130747.0
1675334934.484375,43.42,,,2131212.0
1675334934.5,44.68,,,2131790.0
1675334934.515625,45.02,,,2133406.0
1675334934.53125,44.66,,,2134647.0
1675334934.546875,43.63,,,2135788.0
1675334934.5625,41.88,,,2136121.0
1675334934.578125,39.44,,,2135775.0
1675334934.59375,36.48,,,2134558.0
1675334934.609375,33.3,,,2133972.0
1675334934.625,30.22,,,2133510.0
1675334934.640625,27.39,,,2132981.0
1675334934.65625,24.73,,,2132622.0
1675334934.671875,21.98,,,2132429.0
1675334934.6875,18.84,,,2132698.0
1675334934.703125,15.15,,,2132661.0
1675334934.71875,10.95,,,2132546.0
1675334934.734375,6.46,,,2132809.0
1675334934.75,1.94,,,2133529.0
1675334934.765625,-2.39,,,2133806.0
1675334934.78125,-6.45,,,2134319.0
1675334934.796875,-10.26,,,2134790.0
1675334934.8125,-13.96,,,2135649.0
1675334934.828125,-17.78,,,2135954.0
1675334934.84375,-22.04,,,2135382.0
1675334934.859375,-27.08,,,2133863.0
1675334934.875,-33.12,,,2132309.0
1675334934.890625,-40.06,,,2129899.0
1675334934.90625,-47.26,,,2128102.0
1675334934.921875,-53.63,,,2126605.0
1675334934.9375,-57.8,,,2126005.0
1675334934.953125,-58.57,,,2125279.0
1675334934.96875,-55.28,,,2124328.0
1675334934.984375,-48.04,,,2123851.0
1675334935.0,-37.71,,,2122896.0
1675334935.015625,-25.6,,,2122334.0
1675334935.03125,-13.06,,,2122526.0
1675334935.046875,-1.11,,,2123102.0
1675334935.0625,9.65,,,2124028.0
1675334935.078125,19.1,,,2124865.0
1675334935.09375,27.28,,,2125614.0
1675334935.109375,34.28,,,2126053.0
1675334935.125,40.03,,,2125680.0
1675334935.140625,44.35,,,2123518.0
1675334935.15625,47.06,,,2120175.0
1675334935.171875,48.15,,,2117060.0
1675334935.1875,47.9,,,2115790.0
1675334935.203125,46.79,,,2116261.0
1675334935.21875,45.35,,,2118854.0
1675334935.234375,43.98,,,2118938.0
1675334935.25,42.85,,,2117813.0
1675334935.265625,41.87,,,2116213.0
1675334935.28125,40.88,,,2112642.0
1675334935.296875,39.75,,,2112329.0
1675334935.3125,38.41,,,2110089.0
1675334935.328125,36.91,,,2111766.0
1675334935.34375,35.25,,,2106823.0
1675334935.359375,33.34,,,2102775.0
1675334935.375,30.98,,,2111459.0
1675334935.390625,27.97,,,2098637.0
1675334935.40625,24.2,,,2093793.0
1675334935.421875,19.74,,,2111450.0
1675334935.4375,14.88,,,2114510.0
1675334935.453125,9.88,,,2111348.0
1675334935.46875,4.9,,,2112793.0
1675334935.484375,-0.21,,,2089919.0
1675334935.5,-5.87,,,2086435.0
1675334935.515625,-12.56,,,2082684.0
1675334935.53125,-20.45,,,2079433.0
1675334935.546875,-29.14,,,2076685.0
1675334935.5625,-37.56,,,2074596.0
1675334935.578125,-44.2,,,2072561.0
1675334935.59375,-47.55,,,2070702.0
1675334935.609375,-46.6,,,2068618.0
1675334935.625,-41.14,,,2066949.0
1675334935.640625,-31.79,,,2065432.0
1675334935.65625,-19.74,,,2064112.0
1675334935.671875,-6.5,,,2062803.0
1675334935.6875,6.51,,,2059812.0
1675334935.703125,18.17,,,2055419.0
1675334935.71875,27.8,,,2049783.0
1675334935.734375,35.2,,,2043713.0
1675334935.75,40.54,,,2037794.0
1675334935.765625,44.2,,,2032422.0
1675334935.78125,46.57,,,2028158.0
1675334935.796875,47.9,,,2024555.0
1675334935.8125,48.27,,,2021273.0
1675334935.828125,47.7,,,2018284.0
1675334935.84375,46.32,,,2015733.0
1675334935.859375,44.43,,,2013843.0
1675334935.875,42.45,,,2012073.0
1675334935.890625,40.76,,,2010238.0
1675334935.90625,39.52,,,2008468.0
1675334935.921875,38.61,,,2007362.0
1675334935.9375,37.66,,,2008999.0
1675334935.953125,36.29,,,2010822.0
1675334935.96875,34.23,,,2007556.0
1675334935.984375,31.47,,,1995689.0
1675334936.0,28.25,,,1986249.0
1675334936.015625,24.9,,,1981111.0
1675334936.03125,21.78,,,2001896.0
1675334936.046875,19.04,,,1979055.0
1675334936.0625,16.63,,,2011612.0
1675334936.078125,14.24,,,1977118.0
1675334936.09375,11.46,,,1983281.0
1675334936.109375,7.85,,,1990445.0
1675334936.125,3.18,,,1975714.0
1675334936.140625,-2.42,,,1975408.0
1675334936.15625,-8.41,,,1975242.0
1675334936.171875,-13.8,,,1975685.0
1675334936.1875,-17.4,,,1976230.0
1675334936.203125,-18.09,,,1976919.0
1675334936.21875,-15.14,,,1975436.0
1675334936.234375,-8.56,,,1977908.0
1675334936.25,0.85,,,1979010.0
1675334936.265625,11.67,,,1977736.0
1675334936.28125,22.33,,,1974645.0
1675334936.296875,31.66,,,1970430.0
1675334936.3125,39.23,,,1966473.0
1675334936.328125,45.34,,,1963075.0
1675334936.34375,50.69,,,1960637.0
1675334936.359375,55.78,,,1959541.0
1675334936.375,60.57,,,1958714.0
1675334936.390625,64.37,,,1958074.0
1675334936.40625,66.28,,,1957705.0
1675334936.421875,65.59,,,1958169.0
1675334936.4375,62.25,,,1959038.0
1675334936.453125,56.87,,,1960326.0
1675334936.46875,50.56,,,1962655.0
1675334936.484375,44.65,,,1965593.0
1675334936.5,40.46,,,1968819.0
1675334936.515625,39.16,,,1971840.0
1675334936.53125,41.52,,,1974310.0
1675334936.546875,47.47,,,1976841.0
1675334936.5625,55.86,,,1977207.0
1675334936.578125,64.5,,,1976211.0
1675334936.59375,70.89,,,1974537.0
1675334936.609375,73.28,,,1972950.0
1675334936.625,71.41,,,1971387.0
1675334936.640625,66.51,,,1970306.0
1675334936.65625,60.46,,,1970097.0
1675334936.671875,54.47,,,1970177.0
1675334936.6875,48.26,,,1970531.0
1675334936.703125,40.17,,,1971262.0
1675334936.71875,28.19,,,1972566.0
1675334936.734375,11.33,,,1974236.0
1675334936.75,-9.73,,,1976055.0
1675334936.765625,-32.91,,,1978242.0
1675334936.78125,-55.75,,,1980118.0
1675334936.796875,-76.38,,,1987829.0
1675334936.8125,-93.99,,,1994014.0
1675334936.828125,-108.42,,,1998581.0
1675334936.84375,-119.59,,,2000675.0
1675334936.859375,-127.04,,,2004020.0
1675334936.875,-130.21,,,2007888.0
1675334936.890625,-128.8,,,2014137.0
1675334936.90625,-123.34,,,2017033.0
1675334936.921875,-115.11,,,2017898.0
1675334936.9375,-105.82,,,2015619.0
1675334936.953125,-96.81,,,2011101.0
1675334936.96875,-88.65,,,2004056.0
1675334936.984375,-81.02,,,2000142.0
1675334937.0,-73.16,,,1999546.0
1675334937.015625,-64.35,,,1999456.0
1675334937.03125,-54.39,,,2000312.0
1675334937.046875,-43.7,,,2000508.0
1675334937.0625,-33.11,,,2001813.0
1675334937.078125,-23.52,,,2003171.0
1675334937.09375,-15.61,,,2003956.0
1675334937.109375,-9.66,,,2005431.0
1675334937.125,-5.63,,,2007341.0
1675334937.140625,-3.25,,,2009031.0
1675334937.15625,-2.11,,,2010513.0
1675334937.171875,-1.76,,,2011567.0
1675334937.1875,-1.76,,,2011771.0
1675334937.203125,-1.67,,,2012123.0
1675334937.21875,-1.26,,,2012343.0
1675334937.234375,-0.5,,,2012789.0
1675334937.25,0.28,,,2013317.0
1675334937.265625,0.65,,,2014737.0
1675334937.28125,0.14,,,2015893.0
1675334937.296875,-1.48,,,2017049.0
1675334937.3125,-4.11,,,2018438.0
1675334937.328125,-7.38,,,2019975.0
1675334937.34375,-10.77,,,2021990.0
1675334937.359375,-13.84,,,2024305.0
1675334937.375,-16.41,,,2026420.0
1675334937.390625,-18.57,,,2028869.0
1675334937.40625,-20.7,,,2030325.0
1675334937.421875,-23.32,,,2032177.0
1675334937.4375,-27.0,,,2034076.0
1675334937.453125,-32.12,,,2035308.0
1675334937.46875,-38.71,,,2036137.0
1675334937.484375,-46.25,,,2036206.0
1675334937.5,-53.71,,,2036100.0
1675334937.515625,-59.61,,,2036062.0
1675334937.53125,-62.51,,,2036252.0
1675334937.546875,-61.37,,,2037582.0
1675334937.5625,-55.87,,,2041372.0
1675334937.578125,-46.52,,,2049203.0
1675334937.59375,-34.39,,,2055709.0
1675334937.609375,-20.74,,,2060127.0
1675334937.625,-6.63,,,2064662.0
1675334937.640625,7.22,,,2066727.0
1675334937.65625,20.47,,,2065617.0
1675334937.671875,32.92,,,2068400.0
1675334937.6875,44.31,,,2075877.0
1675334937.703125,54.27,,,2080879.0
1675334937.71875,62.34,,,2079879.0
1675334937.734375,68.18,,,2074461.0
1675334937.75,71.66,,,2069153.0
1675334937.765625,72.97,,,2068102.0
1675334937.78125,72.57,,,2067794.0
1675334937.796875,71.03,,,2067124.0
1675334937.8125,68.89,,,2064834.0
1675334937.828125,66.47,,,2065561.0
1675334937.84375,63.92,,,2065464.0
1675334937.859375,61.24,,,2065656.0
1675334937.875,58.4,,,2065547.0
1675334937.890625,55.47,,,2066128.0
1675334937.90625,52.57,,,2066553.0
1675334937.921875,49.69,,,2066988.0
1675334937.9375,46.75,,,2067533.0
1675334937.953125,43.49,,,2068006.0
1675334937.96875,39.68,,,2068850.0
1675334937.984375,35.19,,,2069812.0
1675334938.0,30.1,,,2070849.0
1675334938.015625,24.68,,,2071176.0
1675334938.03125,19.17,,,2070360.0
1675334938.046875,13.71,,,2069525.0
1675334938.0625,8.25,,,2068676.0
1675334938.078125,2.65,,,2067620.0
1675334938.09375,-3.31,,,2066941.0
1675334938.109375,-9.9,,,2066962.0
1675334938.125,-17.29,,,2066940.0
1675334938.140625,-25.56,,,2066935.0
1675334938.15625,-34.47,,,2067032.0
1675334938.171875,-43.35,,,2067301.0
1675334938.1875,-51.08,,,2067705.0
1675334938.203125,-56.33,,,2068222.0
1675334938.21875,-57.93,,,2068690.0
1675334938.234375,-55.3,,,2069152.0
1675334938.25,-48.67,,,2070019.0
1675334938.265625,-38.96,,,2070777.0
1675334938.28125,-27.44,,,2071941.0
1675334938.296875,-15.33,,,2072547.0
1675334938.3125,-3.54,,,2071287.0
1675334938.328125,7.38,,,2069639.0
1675334938.34375,17.09,,,2067908.0
1675334938.359375,25.34,,,2071572.0
1675334938.375,31.91,,,2078034.0
1675334938.390625,36.59,,,2086115.0
1675334938.40625,39.33,,,2092675.0
1675334938.421875,40.27,,,2093144.0
1675334938.4375,39.73,,,2092820.0
1675334938.453125,38.19,,,2094162.0
1675334938.46875,36.08,,,2094011.0
1675334938.484375,33.82,,,2094435.0
1675334938.5,31.6,,,2097677.0
1675334938.515625,29.5,,,2100546.0
1675334938.53125,27.42,,,2102663.0
1675334938.546875,25.24,,,2103767.0
1675334938.5625,22.8,,,2105920.0
1675334938.578125,19.99,,,2104748.0
1675334938.59375,16.77,,,2104751.0
1675334938.609375,13.08,,,2102800.0
1675334938.625,8.9,,,2100889.0
1675334938.640625,4.21,,,2101553.0
1675334938.65625,-0.99,,,2102312.0
1675334938.671875,-6.57,,,2103490.0
1675334938.6875,-12.37,,,2104846.0
1675334938.703125,-18.2,,,2106656.0
1675334938.71875,-23.94,,,2107645.0
1675334938.734375,-29.53,,,2108202.0
1675334938.75,-35.01,,,2108716.0
1675334938.765625,-40.59,,,2109521.0
1675334938.78125,-46.56,,,2109483.0
1675334938.796875,-53.25,,,2109692.0
1675334938.8125,-60.79,,,2110175.0
1675334938.828125,-68.86,,,2110861.0
1675334938.84375,-76.63,,,2109955.0
1675334938.859375,-82.78,,,2107815.0
1675334938.875,-85.86,,,2105356.0
1675334938.890625,-84.76,,,2102396.0
1675334938.90625,-79.11,,,2099090.0
1675334938.921875,-69.36,,,2097312.0
1675334938.9375,-56.63,,,2096419.0
1675334938.953125,-42.23,,,2095620.0
1675334938.96875,-27.38,,,2095031.0
1675334938.984375,-12.87,,,2094317.0
1675334939.0,0.78,,,2093710.0
1675334939.015625,13.23,,,2093883.0
1675334939.03125,24.1,,,2093590.0
1675334939.046875,33.01,,,2093665.0
1675334939.0625,39.62,,,2093810.0
1675334939.078125,43.85,,,2093868.0
1675334939.09375,45.91,,,2094516.0
1675334939.109375,46.3,,,2094561.0
1675334939.125,45.61,,,2093162.0
1675334939.140625,44.34,,,2090773.0
1675334939.15625,42.8,,,2088213.0
1675334939.171875,41.1,,,2085785.0
1675334939.1875,39.31,,,2083240.0
1675334939.203125,37.48,,,2080620.0
1675334939.21875,35.78,,,2085670.0
1675334939.234375,34.34,,,2093607.0
1675334939.25,33.15,,,2099606.0
1675334939.265625,31.99,,,2103522.0
1675334939.28125,30.43,,,2102780.0
1675334939.296875,28.0,,,2103822.0
1675334939.3125,24.41,,,2105011.0
1675334939.328125,19.66,,,2108325.0
1675334939.34375,14.08,,,2110687.0
1675334939.359375,8.18,,,2111483.0
1675334939.375,2.51,,,2109074.0
1675334939.390625,-2.56,,,2102853.0
1675334939.40625,-6.95,,,2095377.0
1675334939.421875,-10.88,,,2088462.0
1675334939.4375,-14.78,,,2083427.0
1675334939.453125,-19.23,,,2080285.0
1675334939.46875,-24.73,,,2076878.0
1675334939.484375,-31.51,,,2073438.0
1675334939.5,-39.41,,,2070426.0
1675334939.515625,-47.71,,,2067778.0
1675334939.53125,-55.24,,,2065367.0
1675334939.546875,-60.58,,,2063086.0
1675334939.5625,-62.52,,,2061350.0
1675334939.578125,-60.31,,,2060038.0
1675334939.59375,-53.95,,,2058840.0
1675334939.609375,-44.15,,,2057833.0
1675334939.625,-32.01,,,2057105.0
1675334939.640625,-18.7,,,2056330.0
1675334939.65625,-5.15,,,2056007.0
1675334939.671875,8.04,,,2055854.0
1675334939.6875,20.52,,,2055818.0
1675334939.703125,31.97,,,2054803.0
1675334939.71875,41.99,,,2052514.0
1675334939.734375,50.09,,,2049730.0
1675334939.75,55.9,,,2046418.0
1675334939.765625,59.28,,,2042761.0
1675334939.78125,60.46,,,2039660.0
1675334939.796875,59.98,,,2035532.0
1675334939.8125,58.5,,,2034168.0
1675334939.828125,56.59,,,2037155.0
1675334939.84375,54.61,,,2032861.0
1675334939.859375,52.64,,,2031446.0
1675334939.875,50.59,,,2030618.0
1675334939.890625,48.4,,,2029960.0
1675334939.90625,46.05,,,2029696.0
1675334939.921875,43.63,,,2029181.0
1675334939.9375,41.27,,,2029161.0
1675334939.953125,39.04,,,2029525.0
1675334939.96875,36.79,,,2029779.0
1675334939.984375,34.24,,,2031246.0
1675334940.0,31.02,,,2032970.0
1675334940.015625,26.91,,,2032146.0
1675334940.03125,21.93,,,2031490.0
1675334940.046875,16.43,,,2029932.0
