timestamp,bvp,eda,temp,PPG GREEN
1778927104.59375,0.77,0.256189,35.27,2003859.0
1778927104.609375,-3.13,0.427836,35.27,2004534.0
1778927104.625,-7.18,0.301022,35.23,2005246.0
1778927104.640625,-11.83,0.289494,35.23,2006194.0
1778927104.65625,-17.72,0.286932,35.23,2006800.0
1778927104.671875,-25.43,0.283089,35.23,2008099.0
1778927104.6875,-35.18,0.277965,35.25,2009369.0
1778927104.703125,-46.58,0.272841,35.25,2010936.0
1778927104.71875,-58.53,0.272841,35.25,2011967.0
1778927104.734375,-69.36,0.272841,35.25,2009459.0
1778927104.75,-77.31,0.272841,35.25,2005000.0
1778927104.765625,-81.08,0.270279,35.25,2001311.0
1778927104.78125,-80.28,0.270279,35.25,1998122.0
1778927104.796875,-75.63,0.274122,35.25,1994288.0
1778927104.8125,-68.62,0.275403,35.25,1992274.0
1778927104.828125,-60.93,0.274122,35.25,1993103.0
1778927104.84375,-53.8,0.274122,35.25,1995105.0
1778927104.859375,-47.7,0.27156,35.25,1993988.0
1778927104.875,-42.44,0.274122,35.27,1989794.0
1778927104.890625,-37.58,0.275403,35.27,1984271.0
1778927104.90625,-33.02,0.275403,35.27,1975695.0
1778927104.921875,-29.18,0.272841,35.27,1968599.0
1778927104.9375,-27.07,0.27156,35.25,1965417.0
1778927104.953125,-27.95,0.274122,35.25,1962296.0
1778927104.96875,-32.96,0.276684,35.25,1956096.0
1778927104.984375,-42.67,0.276684,35.25,1950535.0
1778927105.0,-56.87,0.272841,35.25,1946580.0
1778927105.015625,-74.52,0.274122,35.25,1945785.0
1778927105.03125,-93.72,0.275403,35.25,1946844.0
1778927105.046875,-111.8,0.279246,35.25,1949951.0
1778927105.0625,-125.67,0.275403,35.27,1952627.0
1778927105.078125,-132.55,0.272841,35.27,1954588.0
1778927105.09375,-131.01,0.275403,35.27,1957450.0
1778927105.109375,-121.5,0.276684,35.27,1959999.0
1778927105.125,-106.22,0.277965,35.25,1962695.0
1778927105.140625,-88.15,0.274122,35.25,1968343.0
1778927105.15625,-69.76,0.275403,35.25,1972219.0
1778927105.171875,-51.96,0.277965,35.25,1972133.0
1778927105.1875,-34.15,0.275403,35.25,1970540.0
1778927105.203125,-15.04,0.276684,35.25,1969202.0
1778927105.21875,5.87,0.272841,35.25,1965040.0
1778927105.234375,27.42,0.272841,35.25,1959596.0
1778927105.25,46.85,0.272841,35.27,1956150.0
1778927105.265625,60.84,0.277965,35.27,1953446.0
1778927105.28125,66.98,0.277965,35.27,1950643.0
1778927105.296875,64.86,0.277965,35.27,1948335.0
1778927105.3125,56.27,0.277965,35.25,1946864.0
1778927105.328125,44.57,0.277965,35.25,1949117.0
1778927105.34375,33.37,0.277965,35.25,1949393.0
1778927105.359375,25.52,0.277965,35.25,1947819.0
1778927105.375,22.37,0.275403,35.27,1942428.0
1778927105.390625,23.54,0.274122,35.27,1938402.0
1778927105.40625,27.13,0.277965,35.27,1935023.0
1778927105.421875,30.47,0.280527,35.27,1931145.0
1778927105.4375,31.13,0.280527,35.23,1927621.0
1778927105.453125,27.84,0.276684,35.23,1924676.0
1778927105.46875,20.81,0.276684,35.23,1920764.0
1778927105.484375,11.64,0.280527,35.23,1917007.0
1778927105.5,2.59,0.277965,35.25,1913378.0
1778927105.515625,-4.19,0.279246,35.25,1909501.0
1778927105.53125,-7.29,0.276684,35.25,1907241.0
1778927105.546875,-6.2,0.277965,35.25,1907287.0
1778927105.5625,-0.86,0.280527,35.25,1906155.0
1778927105.578125,8.72,0.281808,35.25,1901962.0
1778927105.59375,22.47,0.277965,35.25,1896903.0
1778927105.609375,39.7,0.279246,35.25,1891009.0
1778927105.625,58.54,0.279246,35.23,1885628.0
1778927105.640625,76.13,0.280527,35.23,1881758.0
1778927105.65625,89.83,0.280527,35.23,1878291.0
1778927105.671875,99.17,0.280527,35.23,1875441.0
1778927105.6875,107.18,0.277965,35.25,1872579.0
1778927105.703125,120.14,0.280527,35.25,1870140.0
1778927105.71875,145.37,0.28437,35.25,1867720.0
1778927105.734375,187.74,0.283089,35.25,1865708.0
1778927105.75,246.98,0.280527,35.23,1865834.0
1778927105.765625,317.14,0.277965,35.23,1866834.0
1778927105.78125,388.51,0.28437,35.23,1870271.0
1778927105.796875,450.89,0.28437,35.23,1874677.0
1778927105.8125,496.5,0.28437,35.23,1877358.0
1778927105.828125,521.15,0.280527,35.23,1880091.0
1778927105.84375,523.31,0.283089,35.23,1881507.0
1778927105.859375,502.86,0.283089,35.23,1881022.0
1778927105.875,460.89,0.285651,35.23,1880172.0
1778927105.890625,401.05,0.285651,35.23,1877460.0
1778927105.90625,330.98,0.281808,35.23,1873746.0
1778927105.921875,261.99,0.281808,35.23,1869521.0
1778927105.9375,205.9,0.28437,35.23,1865015.0
1778927105.953125,170.06,0.28437,35.23,1860671.0
1778927105.96875,153.58,0.28437,35.23,1857587.0
1778927105.984375,147.06,0.28437,35.23,1852440.0
1778927106.0,136.84,0.28437,35.23,1844464.0
1778927106.015625,111.55,0.286932,35.23,1835889.0
1778927106.03125,67.52,0.286932,35.23,1828504.0
1778927106.046875,10.07,0.283089,35.23,1823155.0
1778927106.0625,-49.82,0.283089,35.21,1819651.0
1778927106.078125,-101.32,0.285651,35.21,1817762.0
1778927106.09375,-138.5,0.288213,35.21,1816455.0
1778927106.109375,-161.68,0.285651,35.21,1815386.0
1778927106.125,-175.23,0.283089,35.23,1814365.0
1778927106.140625,-183.83,0.283089,35.23,1814035.0
1778927106.15625,-189.66,0.288213,35.23,1813834.0
1778927106.171875,-192.12,0.286932,35.23,1812927.0
1778927106.1875,-189.46,0.286932,35.23,1821006.0
1778927106.203125,-181.04,0.28437,35.23,1834875.0
1778927106.21875,-168.35,0.283089,35.23,1842930.0
1778927106.234375,-154.54,0.289494,35.23,1859325.0
1778927106.25,-143.03,0.288213,35.21,1878879.0
1778927106.265625,-135.92,0.28437,35.21,1892988.0
1778927106.28125,-133.23,0.285651,35.21,1900737.0
1778927106.296875,-133.25,0.288213,35.21,1909100.0
1778927106.3125,-133.65,0.290775,35.21,1915508.0
1778927106.328125,-132.57,0.289494,35.21,1917945.0
1778927106.34375,-129.25,0.290775,35.21,1918927.0
1778927106.359375,-124.02,0.288213,35.21,1920778.0
1778927106.375,-117.67,0.292055,35.18,1920929.0
1778927106.390625,-110.7,0.290775,35.18,1922946.0
1778927106.40625,-102.88,0.290775,35.18,1926456.0
1778927106.421875,-93.31,0.290775,35.18,1929753.0
1778927106.4375,-80.9,0.286932,35.18,1927831.0
1778927106.453125,-65.02,0.288213,35.18,1924260.0
1778927106.46875,-45.92,0.290775,35.18,1919865.0
1778927106.484375,-24.84,0.292055,35.18,1915199.0
1778927106.5,-3.54,0.288213,35.18,1911749.0
1778927106.515625,16.24,0.289494,35.18,1908193.0
1778927106.53125,33.35,0.293336,35.18,1902064.0
1778927106.546875,47.46,0.293336,35.18,1896923.0
1778927106.5625,58.95,0.293336,35.18,1892888.0
1778927106.578125,68.45,0.289494,35.18,1889639.0
1778927106.59375,76.39,0.292055,35.18,1888015.0
1778927106.609375,82.61,0.294617,35.18,1887010.0
1778927106.625,86.3,0.292055,35.18,1886068.0
1778927106.640625,86.24,0.292055,35.18,1885395.0
1778927106.65625,81.24,0.293336,35.18,1884599.0
1778927106.671875,70.74,0.289494,35.18,1884830.0
1778927106.6875,55.2,0.289494,35.16,1885587.0
1778927106.703125,36.19,0.292055,35.16,1887126.0
1778927106.71875,15.88,0.294617,35.16,1888374.0
1778927106.734375,-3.55,0.290775,35.16,1889662.0
1778927106.75,-20.56,0.293336,35.16,1890774.0
1778927106.765625,-34.63,0.289494,35.16,1889445.0
1778927106.78125,-46.08,0.294617,35.16,1887699.0
1778927106.796875,-55.68,0.292055,35.16,1886776.0
1778927106.8125,-64.07,0.292055,35.18,1886751.0
1778927106.828125,-71.48,0.292055,35.18,1887870.0
1778927106.84375,-77.67,0.294617,35.18,1889758.0
1778927106.859375,-82.12,0.293336,35.18,1891385.0
1778927106.875,-84.17,0.294617,35.16,1893026.0
1778927106.890625,-83.13,0.293336,35.16,1894901.0
1778927106.90625,-78.4,0.293336,35.16,1896837.0
1778927106.921875,-69.53,0.297179,35.16,1898980.0
1778927106.9375,-56.55,0.297179,35.18,1901325.0
1778927106.953125,-40.12,0.295898,35.18,1903483.0
1778927106.96875,-21.7,0.295898,35.18,1905698.0
1778927106.984375,-3.16,0.293336,35.18,1907060.0
1778927107.0,13.68,0.29846,35.18,1906070.0
1778927107.015625,27.73,0.297179,35.18,1904641.0
1778927107.03125,38.87,0.297179,35.18,1903517.0
1778927107.046875,47.84,0.295898,35.18,1902842.0
1778927107.0625,55.67,0.294617,35.18,1902183.0
1778927107.078125,63.07,0.295898,35.18,1902066.0
1778927107.09375,70.11,0.29846,35.18,1902477.0
1778927107.109375,76.26,0.29846,35.18,1904124.0
1778927107.125,80.88,0.295898,35.16,1906283.0
1778927107.140625,83.65,0.295898,35.16,1908296.0
1778927107.15625,84.81,0.295898,35.16,1910607.0
1778927107.171875,85.04,0.29846,35.16,1913130.0
1778927107.1875,85.05,0.299741,35.15,1915846.0
1778927107.203125,85.37,0.297179,35.15,1918697.0
1778927107.21875,86.49,0.299741,35.15,1920823.0
1778927107.234375,89.1,0.301022,35.15,1920673.0
1778927107.25,94.18,0.301022,35.16,1920584.0
1778927107.265625,102.49,0.302303,35.16,1920388.0
1778927107.28125,113.66,0.29846,35.16,1920889.0
1778927107.296875,125.44,0.301022,35.16,1921830.0
1778927107.3125,133.69,0.304865,35.16,1923272.0
1778927107.328125,133.42,0.304865,35.16,1925313.0
1778927107.34375,120.5,0.304865,35.16,1926814.0
1778927107.359375,93.08,0.301022,35.16,1928723.0
1778927107.375,52.16,0.302303,35.18,1929749.0
1778927107.390625,1.15,0.303584,35.18,1930282.0
1778927107.40625,-55.21,0.303584,35.18,1931083.0
1778927107.421875,-111.99,0.306146,35.18,1932074.0
1778927107.4375,-164.69,0.301022,35.16,1934324.0
1778927107.453125,-209.4,0.301022,35.16,1933145.0
1778927107.46875,-242.84,0.313832,35.16,1934514.0
1778927107.484375,-262.5,0.303584,35.16,1933222.0
1778927107.5,-267.07,0.303584,35.13,1932376.0
1778927107.515625,-256.81,0.302303,35.13,1932168.0
1778927107.53125,-233.78,0.301022,35.13,1932305.0
1778927107.546875,-201.54,0.304865,35.13,1933256.0
1778927107.5625,-164.4,0.303584,35.15,1934819.0
1778927107.578125,-126.6,0.301022,35.15,1936279.0
1778927107.59375,-91.49,0.301022,35.15,1937691.0
1778927107.609375,-61.25,0.303584,35.15,1938872.0
1778927107.625,-36.87,0.306146,35.15,1940695.0
1778927107.640625,-18.73,0.306146,35.15,1942359.0
1778927107.65625,-7.18,0.302303,35.15,1944026.0
1778927107.671875,-2.73,0.301022,35.15,1945864.0
1778927107.6875,-5.87,0.304865,35.15,1947619.0
1778927107.703125,-16.31,0.306146,35.15,1949536.0
1778927107.71875,-32.47,0.304865,35.15,1950594.0
1778927107.734375,-51.39,0.303584,35.15,1950439.0
1778927107.75,-69.44,0.303584,35.15,1951278.0
1778927107.765625,-83.39,0.304865,35.15,1951940.0
1778927107.78125,-91.35,0.307427,35.15,1953530.0
1778927107.796875,-93.11,0.303584,35.15,1955285.0
1778927107.8125,-89.9,0.304865,35.15,1957577.0
1778927107.828125,-83.61,0.308708,35.15,1959545.0
1778927107.84375,-76.23,0.309989,35.15,1961551.0
1778927107.859375,-69.39,0.307427,35.15,1964142.0
1778927107.875,-64.33,0.304865,35.15,1967741.0
1778927107.890625,-61.9,0.304865,35.15,1970710.0
1778927107.90625,-62.51,0.307427,35.15,1972205.0
1778927107.921875,-65.97,0.308708,35.15,1976205.0
1778927107.9375,-71.34,0.309989,35.15,1981582.0
1778927107.953125,-76.98,0.306146,35.15,1988767.0
1778927107.96875,-80.77,0.306146,35.15,1993400.0
1778927107.984375,-80.6,0.303584,35.15,1995641.0
1778927108.0,-75.03,0.307427,35.11,1996539.0
1778927108.015625,-63.63,0.308708,35.11,1997755.0
1778927108.03125,-47.22,0.308708,35.11,1999472.0
1778927108.046875,-27.57,0.304865,35.11,2000637.0
1778927108.0625,-6.81,0.304865,35.13,2000843.0
1778927108.078125,13.11,0.307427,35.13,2001388.0
1778927108.09375,30.99,0.31127,35.13,2002152.0
1778927108.109375,46.47,0.309989,35.13,2003726.0
1778927108.125,59.92,0.306146,35.13,2005237.0
1778927108.140625,72.09,0.304865,35.13,2007336.0
1778927108.15625,83.79,0.308708,35.13,2008814.0
1778927108.171875,95.64,0.309989,35.13,2010672.0
1778927108.1875,107.92,0.306146,35.13,2012246.0
1778927108.203125,120.44,0.306146,35.13,2013978.0
1778927108.21875,132.57,0.306146,35.13,2015496.0
1778927108.234375,143.46,0.309989,35.13,2016196.0
1778927108.25,152.24,0.31127,35.11,2015591.0
1778927108.265625,158.37,0.307427,35.11,2014980.0
1778927108.28125,161.8,0.307427,35.11,2014816.0
1778927108.296875,162.94,0.307427,35.11,2015138.0
1778927108.3125,162.5,0.312551,35.11,2015724.0
1778927108.328125,161.13,0.312551,35.11,2016649.0
1778927108.34375,159.27,0.309989,35.11,2018196.0
1778927108.359375,157.11,0.308708,35.11,2017437.0
1778927108.375,154.7,0.308708,35.11,2018883.0
1778927108.390625,152.09,0.31127,35.11,2019828.0
1778927108.40625,149.34,0.316393,35.11,2020712.0
1778927108.421875,146.49,0.313832,35.11,2021718.0
1778927108.4375,143.4,0.308708,35.11,2022962.0
1778927108.453125,139.69,0.308708,35.11,2024058.0
1778927108.46875,134.81,0.313832,35.11,2025067.0
1778927108.484375,128.17,0.316393,35.11,2026404.0
1778927108.5,119.34,0.313832,35.09,2027886.0
1778927108.515625,108.24,0.309989,35.09,2028178.0
1778927108.53125,95.17,0.309989,35.09,2027795.0
1778927108.546875,80.77,0.312551,35.09,2027553.0
1778927108.5625,65.91,0.316393,35.11,2028048.0
1778927108.578125,51.54,0.312551,35.11,2028891.0
1778927108.59375,38.55,0.309989,35.11,2030329.0
1778927108.609375,27.68,0.309989,35.11,2031401.0
1778927108.625,19.46,0.313832,35.09,2032547.0
1778927108.640625,14.25,0.315113,35.09,2033673.0
1778927108.65625,12.31,0.313832,35.09,2034509.0
1778927108.671875,13.81,0.31127,35.09,2036164.0
1778927108.6875,18.74,0.313832,35.09,2037797.0
1778927108.703125,26.79,0.316393,35.09,2039814.0
1778927108.71875,37.13,0.316393,35.09,2041636.0
1778927108.734375,48.58,0.315113,35.09,2043303.0
1778927108.75,59.79,0.315113,35.09,2045019.0
1778927108.765625,69.68,0.313832,35.09,2046441.0
1778927108.78125,77.59,0.317674,35.09,2047785.0
1778927108.796875,83.19,0.317674,35.09,2049024.0
1778927108.8125,86.14,0.315113,35.11,2048391.0
1778927108.828125,85.75,0.315113,35.11,2047970.0
1778927108.84375,81.03,0.316393,35.11,2047953.0
1778927108.859375,71.12,0.318955,35.11,2048575.0
1778927108.875,55.88,0.318955,35.09,2049403.0
1778927108.890625,36.29,0.317674,35.09,2050135.0
1778927108.90625,14.24,0.317674,35.09,2051181.0
1778927108.921875,-7.99,0.316393,35.09,2051812.0
1778927108.9375,-28.52,0.318955,35.09,2052421.0
1778927108.953125,-46.27,0.317674,35.09,2053376.0
1778927108.96875,-60.86,0.317674,35.09,2054414.0
1778927108.984375,-72.22,0.315113,35.09,2055436.0
1778927109.0,-80.2,0.317674,35.09,2056475.0
1778927109.015625,-84.65,0.320236,35.09,2057550.0
1778927109.03125,-85.61,0.321517,35.09,2058529.0
1778927109.046875,-83.69,0.317674,35.09,2059728.0
1778927109.0625,-79.98,0.316393,35.07,2060921.0
1778927109.078125,-75.74,0.318955,35.07,2062241.0
1778927109.09375,-71.87,0.320236,35.07,2062558.0
1778927109.109375,-68.71,0.321517,35.07,2061989.0
1778927109.125,-66.14,0.317674,35.07,2060898.0
1778927109.140625,-64.01,0.317674,35.07,2060600.0
1778927109.15625,-62.55,0.320236,35.07,2060361.0
1778927109.171875,-62.51,0.321517,35.07,2060535.0
1778927109.1875,-64.92,0.320236,35.07,2061011.0
1778927109.203125,-70.62,0.317674,35.07,2061469.0
1778927109.21875,-79.91,0.320236,35.07,2061984.0
1778927109.234375,-92.37,0.320236,35.07,2062134.0
1778927109.25,-106.96,0.321517,35.07,2062676.0
1778927109.265625,-122.16,0.322798,35.07,2062947.0
1778927109.28125,-136.25,0.318955,35.07,2064221.0
1778927109.296875,-147.39,0.318955,35.07,2063994.0
1778927109.3125,-153.81,0.321517,35.07,2065403.0
1778927109.328125,-154.11,0.320236,35.07,2065744.0
1778927109.34375,-147.5,0.321517,35.07,2066237.0
1778927109.359375,-134.1,0.322798,35.07,2067152.0
1778927109.375,-114.94,0.318955,35.07,2067868.0
1778927109.390625,-91.75,0.317674,35.07,2068275.0
1778927109.40625,-66.61,0.320236,35.07,2069044.0
1778927109.421875,-41.44,0.324079,35.07,2068224.0
1778927109.4375,-17.65,0.320236,35.05,2067127.0
1778927109.453125,3.98,0.318955,35.05,2066096.0
1778927109.46875,23.21,0.321517,35.05,2065381.0
1778927109.484375,40.09,0.321517,35.05,2065397.0
1778927109.5,54.73,0.32536,35.07,2065731.0
1778927109.515625,67.08,0.320236,35.07,2065798.0
1778927109.53125,77.0,0.321517,35.07,2065579.0
1778927109.546875,84.41,0.322798,35.07,2065740.0
1778927109.5625,89.57,0.322798,35.05,2065851.0
1778927109.578125,93.14,0.32536,35.05,2066321.0
1778927109.59375,96.18,0.321517,35.05,2067255.0
1778927109.609375,99.75,0.320236,35.05,2067888.0
1778927109.625,104.58,0.321517,35.05,2069004.0
1778927109.640625,110.7,0.324079,35.05,2070144.0
1778927109.65625,117.43,0.324079,35.05,2071329.0
1778927109.671875,123.63,0.324079,35.05,2071800.0
1778927109.6875,128.04,0.321517,35.05,2072325.0
1778927109.703125,129.78,0.321517,35.05,2071890.0
1778927109.71875,128.58,0.326641,35.05,2069884.0
1778927109.734375,124.81,0.32536,35.05,2067266.0
1778927109.75,119.34,0.322798,35.07,2065470.0
1778927109.765625,113.2,0.322798,35.07,2064065.0
1778927109.78125,107.28,0.32536,35.07,2062893.0
1778927109.796875,102.03,0.32536,35.07,2062338.0
1778927109.8125,97.45,0.326641,35.05,2062037.0
1778927109.828125,93.12,0.324079,35.05,2061800.0
1778927109.84375,88.53,0.322798,35.05,2061040.0
1778927109.859375,83.45,0.32536,35.05,2060929.0
1778927109.875,78.23,0.327922,35.05,2060922.0
1778927109.890625,73.89,0.327922,35.05,2061091.0
1778927109.90625,71.94,0.327922,35.05,2061119.0
1778927109.921875,74.1,0.32536,35.05,2061874.0
1778927109.9375,81.75,0.326641,35.05,2062077.0
1778927109.953125,95.28,0.329203,35.05,2060586.0
1778927109.96875,113.57,0.327922,35.05,2057302.0
1778927109.984375,133.66,0.327922,35.05,2053578.0
1778927110.0,151.07,0.326641,35.03,2050550.0
1778927110.015625,160.91,0.326641,35.03,2047975.0
1778927110.03125,159.34,0.329203,35.03,2046504.0
1778927110.046875,144.83,0.330484,35.03,2045138.0
1778927110.0625,118.69,0.32536,35.03,2044343.0
1778927110.078125,84.48,0.32536,35.03,2043331.0
1778927110.09375,46.45,0.326641,35.03,2042537.0
1778927110.109375,8.07,0.329203,35.03,2040688.0
1778927110.125,-29.09,0.329203,35.05,2041472.0
1778927110.140625,-65.42,0.326641,35.05,2040124.0
1778927110.15625,-102.57,0.329203,35.05,2040128.0
1778927110.171875,-142.45,0.327922,35.05,2040235.0
1778927110.1875,-186.08,0.330484,35.05,2040019.0
1778927110.203125,-232.76,0.331765,35.05,2039953.0
1778927110.21875,-279.68,0.327922,35.05,2037301.0
1778927110.234375,-322.23,0.326641,35.05,2032585.0
1778927110.25,-354.94,0.327922,35.07,2028381.0
1778927110.265625,-373.09,0.330484,35.07,2024344.0
1778927110.28125,-374.18,0.330484,35.07,2021442.0
1778927110.296875,-358.99,0.327922,35.07,2018731.0
1778927110.3125,-331.25,0.330484,35.03,2017417.0
1778927110.328125,-296.4,0.329203,35.03,2015852.0
1778927110.34375,-259.87,0.333046,35.03,2014498.0
1778927110.359375,-225.76,0.333046,35.03,2012716.0
1778927110.375,-196.37,0.329203,35.07,2011663.0
1778927110.390625,-172.53,0.329203,35.07,2010707.0
1778927110.40625,-154.22,0.331765,35.07,2009813.0
1778927110.421875,-141.05,0.331765,35.07,2009532.0
1778927110.4375,-132.35,0.334327,35.05,2008976.0
1778927110.453125,-126.98,0.330484,35.05,2008342.0
1778927110.46875,-123.43,0.329203,35.05,2005195.0
1778927110.484375,-119.99,0.331765,35.05,2000177.0
1778927110.5,-115.25,0.335608,35.03,1995308.0
1778927110.515625,-108.37,0.334327,35.03,1991209.0
1778927110.53125,-99.16,0.330484,35.03,1988381.0
1778927110.546875,-88.0,0.330484,35.03,1986466.0
1778927110.5625,-75.58,0.331765,35.03,1985186.0
1778927110.578125,-62.62,0.333046,35.03,1983879.0
1778927110.59375,-49.6,0.334327,35.03,1982804.0
1778927110.609375,-36.68,0.331765,35.03,1981229.0
1778927110.625,-23.73,0.330484,35.0,1979974.0
1778927110.640625,-10.49,0.331765,35.0,1979341.0
1778927110.65625,3.12,0.334327,35.0,1978862.0
1778927110.671875,16.84,0.335608,35.0,1978597.0
1778927110.6875,29.94,0.333046,35.03,1978209.0
1778927110.703125,41.44,0.335608,35.03,1975073.0
1778927110.71875,50.42,0.333046,35.03,1969600.0
1778927110.734375,56.39,0.344574,35.03,1964405.0
1778927110.75,59.46,0.33817,35.03,1959824.0
1778927110.765625,60.23,0.333046,35.03,1956090.0
1778927110.78125,59.57,0.334327,35.03,1953489.0
1778927110.796875,58.26,0.333046,35.03,1952279.0
1778927110.8125,56.79,0.33945,35.03,1951210.0
1778927110.828125,55.3,0.336889,35.03,1950132.0
1778927110.84375,53.7,0.334327,35.03,1949083.0
1778927110.859375,51.83,0.334327,35.03,1948133.0
1778927110.875,49.58,0.33817,34.99,1947939.0
1778927110.890625,46.88,0.33945,34.99,1947659.0
1778927110.90625,43.78,0.33817,34.99,1947764.0
1778927110.921875,40.34,0.33817,34.99,1948209.0
1778927110.9375,36.7,0.334327,35.03,1948625.0
1778927110.953125,33.01,0.334327,35.03,1947050.0
1778927110.96875,29.4,0.336889,35.03,1942603.0
1778927110.984375,25.94,0.33945,35.03,1937538.0
1778927111.0,22.63,0.336889,35.03,1933243.0
1778927111.015625,19.39,0.335608,35.03,1929377.0
1778927111.03125,16.14,0.33817,35.03,1926755.0
1778927111.046875,12.84,0.33817,35.03,1925335.0
1778927111.0625,9.44,0.33945,35.0,1924248.0
1778927111.078125,5.88,0.335608,35.0,1923569.0
1778927111.09375,2.09,0.335608,35.0,1922364.0
1778927111.109375,-1.92,0.33817,35.0,1922013.0
1778927111.125,-5.9,0.340731,35.0,1922231.0
1778927111.140625,-9.3,0.340731,35.0,1922238.0
1778927111.15625,-11.28,0.335608,35.0,1922752.0
1778927111.171875,-11.04,0.335608,35.0,1923416.0
1778927111.1875,-8.11,0.33945,34.99,1924268.0
1778927111.203125,-2.59,0.33945,34.99,1924887.0
1778927111.21875,4.88,0.33945,34.99,1925071.0
1778927111.234375,13.41,0.336889,34.99,1924656.0
1778927111.25,22.22,0.336889,35.0,1920908.0
1778927111.265625,30.88,0.33817,35.0,1916064.0
1778927111.28125,39.28,0.340731,35.0,1912340.0
1778927111.296875,47.42,0.340731,35.0,1909158.0
1778927111.3125,55.21,0.336889,35.0,1907209.0
1778927111.328125,62.33,0.335608,35.0,1906337.0
1778927111.34375,68.36,0.33817,35.0,1905979.0
1778927111.359375,72.96,0.340731,35.0,1905669.0
1778927111.375,76.06,0.340731,34.99,1904743.0
1778927111.390625,77.84,0.336889,34.99,1904137.0
1778927111.40625,78.72,0.33817,34.99,1903836.0
1778927111.421875,79.18,0.33817,34.99,1903742.0
1778927111.4375,79.66,0.340731,34.99,1903720.0
1778927111.453125,80.56,0.342012,34.99,1904171.0
1778927111.46875,82.13,0.33817,34.99,1904871.0
1778927111.484375,84.49,0.336889,34.99,1905422.0
1778927111.5,87.57,0.33945,35.0,1905943.0
1778927111.515625,91.09,0.342012,35.0,1904468.0
1778927111.53125,94.6,0.342012,35.0,1901197.0
1778927111.546875,97.59,0.33817,35.0,1897631.0
1778927111.5625,99.65,0.33817,34.99,1895524.0
1778927111.578125,100.53,0.340731,34.99,1893803.0
1778927111.59375,100.13,0.342012,34.99,1893269.0
1778927111.609375,98.51,0.344574,34.99,1893101.0
1778927111.625,95.81,0.340731,35.0,1893201.0
1778927111.640625,92.31,0.343293,35.0,1893116.0
1778927111.65625,88.31,0.349698,35.0,1893274.0
1778927111.671875,84.13,0.349698,35.0,1893422.0
1778927111.6875,79.95,0.347136,34.99,1894704.0
1778927111.703125,75.77,0.343293,34.99,1893791.0
1778927111.71875,71.35,0.345855,34.99,1895529.0
1778927111.734375,66.44,0.344574,34.99,1896776.0
1778927111.75,60.91,0.347136,34.99,1897693.0
1778927111.765625,54.98,0.347136,34.99,1898436.0
1778927111.78125,49.12,0.344574,34.99,1896744.0
1778927111.796875,43.82,0.345855,34.99,1894521.0
1778927111.8125,39.23,0.344574,34.97,1892895.0
1778927111.828125,35.05,0.345855,34.97,1892107.0
1778927111.84375,30.6,0.344574,34.97,1891860.0
1778927111.859375,25.11,0.340731,34.97,1892315.0
1778927111.875,18.12,0.340731,34.99,1893091.0
1778927111.890625,9.59,0.343293,34.99,1893978.0
1778927111.90625,-0.05,0.345855,34.99,1895102.0
1778927111.921875,-10.12,0.344574,34.99,1895942.0
1778927111.9375,-19.91,0.343293,34.99,1897381.0
1778927111.953125,-28.76,0.342012,34.99,1898776.0
1778927111.96875,-36.08,0.344574,34.99,1900440.0
1778927111.984375,-41.34,0.348417,34.99,1902213.0
1778927112.0,-44.2,0.345855,34.97,1903886.0
1778927112.015625,-44.66,0.342012,34.97,1905686.0
1778927112.03125,-43.22,0.343293,34.97,1905448.0
1778927112.046875,-40.75,0.343293,34.97,1903710.0
1778927112.0625,-38.06,0.349698,34.95,1902443.0
1778927112.078125,-35.52,0.347136,34.95,1901516.0
1778927112.09375,-32.69,0.343293,34.95,1901775.0
1778927112.109375,-28.55,0.342012,34.95,1901718.0
1778927112.125,-21.98,0.347136,34.97,1902956.0
1778927112.140625,-12.48,0.345855,34.97,1903768.0
1778927112.15625,-0.47,0.345855,34.97,1904748.0
1778927112.171875,12.73,0.343293,34.97,1905703.0
1778927112.1875,25.5,0.342012,34.95,1907029.0
1778927112.203125,36.59,0.344574,34.95,1908397.0
1778927112.21875,45.59,0.347136,34.95,1910098.0
1778927112.234375,53.05,0.348417,34.95,1912155.0
1778927112.25,60.14,0.344574,34.97,1914039.0
1778927112.265625,68.32,0.344574,34.97,1915881.0
1778927112.28125,78.79,0.347136,34.97,1917367.0
1778927112.296875,92.02,0.349698,34.97,1916761.0
1778927112.3125,107.39,0.348417,34.97,1915410.0
1778927112.328125,122.83,0.344574,34.97,1914302.0
1778927112.34375,135.13,0.344574,34.97,1913574.0
1778927112.359375,140.68,0.347136,34.97,1913353.0
1778927112.375,136.66,0.349698,34.97,1913809.0
1778927112.390625,122.05,0.347136,34.97,1914612.0
1778927112.40625,98.05,0.344574,34.97,1915192.0
1778927112.421875,67.56,0.347136,34.97,1916027.0
1778927112.4375,33.87,0.347136,34.95,1916647.0
1778927112.453125,-0.5,0.349698,34.95,1917203.0
1778927112.46875,-34.63,0.348417,34.95,1918158.0
1778927112.484375,-69.11,0.345855,34.95,1918852.0
1778927112.5,-105.58,0.345855,34.97,1920206.0
1778927112.515625,-145.65,0.348417,34.97,1921244.0
1778927112.53125,-189.98,0.350979,34.97,1922155.0
1778927112.546875,-237.48,0.349698,34.97,1922701.0
1778927112.5625,-284.82,0.347136,34.95,1921329.0
1778927112.578125,-327.03,0.347136,34.95,1920087.0
1778927112.59375,-358.71,0.35226,34.95,1918770.0
1778927112.609375,-375.86,0.35226,34.95,1918392.0
1778927112.625,-377.32,0.348417,34.97,1918169.0
1778927112.640625,-365.2,0.347136,34.97,1918624.0
1778927112.65625,-343.88,0.349698,34.97,1918780.0
1778927112.671875,-318.15,0.349698,34.97,1918937.0
1778927112.6875,-291.49,0.349698,34.97,1919118.0
1778927112.703125,-265.44,0.347136,34.97,1918954.0
1778927112.71875,-240.12,0.347136,34.97,1918968.0
1778927112.734375,-215.49,0.345855,34.97,1919574.0
1778927112.75,-192.23,0.349698,34.95,1919921.0
1778927112.765625,-171.69,0.354822,34.95,1920544.0
1778927112.78125,-155.16,0.35226,34.95,1921296.0
1778927112.796875,-142.94,0.348417,34.95,1922121.0
1778927112.8125,-134.12,0.348417,34.95,1921310.0
1778927112.828125,-127.02,0.349698,34.95,1920358.0
1778927112.84375,-120.1,0.35226,34.95,1919610.0
1778927112.859375,-112.63,0.35226,34.95,1919994.0
1778927112.875,-104.76,0.348417,34.97,1920100.0
1778927112.890625,-97.22,0.349698,34.97,1920976.0
1778927112.90625,-90.76,0.350979,34.97,1921715.0
1778927112.921875,-85.69,0.35226,34.97,1922482.0
1778927112.9375,-81.85,0.35226,34.95,1923122.0
1778927112.953125,-78.65,0.348417,34.95,1923945.0
1778927112.96875,-75.43,0.348417,34.95,1924725.0
1778927112.984375,-71.61,0.35226,34.95,1926071.0
1778927113.0,-66.82,0.350979,34.95,1927229.0
1778927113.015625,-61.01,0.35226,34.95,1928214.0
1778927113.03125,-54.32,0.353541,34.95,1929567.0
1778927113.046875,-47.02,0.350979,34.95,1929496.0
1778927113.0625,-39.27,0.349698,34.93,1928614.0
1778927113.078125,-31.05,0.35226,34.93,1927529.0
1778927113.09375,-22.11,0.353541,34.93,1926789.0
1778927113.109375,-12.2,0.354822,34.93,1926721.0
1778927113.125,-1.18,0.350979,34.95,1927093.0
1778927113.140625,10.72,0.350979,34.95,1927483.0
1778927113.15625,22.91,0.353541,34.95,1928528.0
1778927113.171875,34.55,0.354822,34.95,1928808.0
1778927113.1875,44.85,0.354822,34.93,1929647.0
1778927113.203125,53.33,0.35226,34.93,1929942.0
1778927113.21875,59.9,0.35226,34.93,1930696.0
1778927113.234375,64.81,0.354822,34.93,1931329.0
1778927113.25,68.44,0.357384,34.93,1932306.0
1778927113.265625,71.11,0.357384,34.93,1933380.0
1778927113.28125,72.95,0.358665,34.93,1933975.0
1778927113.296875,73.9,0.354822,34.93,1933216.0
1778927113.3125,73.83,0.354822,34.95,1932002.0
1778927113.328125,72.64,0.356103,34.95,1931668.0
1778927113.34375,70.41,0.357384,34.95,1931426.0
1778927113.359375,67.4,0.358665,34.95,1931589.0
1778927113.375,64.02,0.358665,34.95,1932206.0
1778927113.390625,60.73,0.356103,34.95,1932974.0
1778927113.40625,57.89,0.357384,34.95,1933766.0
1778927113.421875,55.7,0.359946,34.95,1934480.0
1778927113.4375,54.12,0.359946,34.95,1934894.0
1778927113.453125,52.98,0.356103,34.95,1935911.0
1778927113.46875,51.96,0.356103,34.95,1936265.0
1778927113.484375,50.77,0.354822,34.95,1937216.0
1778927113.5,49.18,0.36635,34.93,1937996.0
1778927113.515625,47.09,0.361227,34.93,1938733.0
1778927113.53125,44.58,0.357384,34.93,1939058.0
1778927113.546875,41.82,0.359946,34.93,1937548.0
1778927113.5625,39.1,0.357384,34.93,1936042.0
1778927113.578125,36.69,0.358665,34.93,1935121.0
1778927113.59375,34.76,0.359946,34.93,1934535.0
1778927113.609375,33.34,0.358665,34.93,1934295.0
1778927113.625,32.22,0.357384,34.95,1934574.0
1778927113.640625,31.05,0.357384,34.95,1934520.0
1778927113.65625,29.49,0.362507,34.95,1934738.0
1778927113.671875,27.29,0.361227,34.95,1934936.0
1778927113.6875,24.51,0.361227,34.93,1935396.0
1778927113.703125,21.54,0.362507,34.93,1936038.0
1778927113.71875,19.1,0.358665,34.93,1936721.0
1778927113.734375,18.04,0.358665,34.93,1937564.0
1778927113.75,19.2,0.362507,34.93,1938130.0
1778927113.765625,23.09,0.363788,34.93,1938938.0
1778927113.78125,29.69,0.362507,34.93,1938972.0
1778927113.796875,38.41,0.358665,34.93,1937807.0
1778927113.8125,48.16,0.358665,34.91,1937020.0
1778927113.828125,57.79,0.361227,34.91,1936675.0
1778927113.84375,66.39,0.363788,34.91,1936798.0
1778927113.859375,73.6,0.363788,34.91,1936893.0
1778927113.875,79.66,0.359946,34.93,1937431.0
1778927113.890625,85.1,0.358665,34.93,1938181.0
1778927113.90625,90.47,0.363788,34.93,1938544.0
1778927113.921875,96.02,0.363788,34.93,1939430.0
1778927113.9375,101.64,0.363788,34.93,1939977.0
1778927113.953125,107.05,0.362507,34.93,1941034.0
1778927113.96875,112.02,0.359946,34.93,1942136.0
1778927113.984375,116.44,0.359946,34.93,1943637.0
1778927114.0,120.24,0.361227,34.93,1943097.0
1778927114.015625,123.27,0.363788,34.93,1942938.0
1778927114.03125,125.14,0.362507,34.93,1941844.0
1778927114.046875,125.36,0.359946,34.93,1940933.0
1778927114.0625,123.61,0.362507,34.91,1940533.0
1778927114.078125,120.02,0.363788,34.91,1940728.0
1778927114.09375,115.28,0.363788,34.91,1941448.0
1778927114.109375,110.39,0.363788,34.91,1941865.0
1778927114.125,106.29,0.361227,34.89,1942698.0
1778927114.140625,103.38,0.361227,34.89,1943184.0
1778927114.15625,101.46,0.362507,34.89,1943946.0
1778927114.171875,99.82,0.365069,34.89,1944712.0
1778927114.1875,97.6,0.36635,34.91,1945695.0
1778927114.203125,94.29,0.365069,34.91,1946714.0
1778927114.21875,89.89,0.362507,34.91,1946816.0
1778927114.234375,84.88,0.362507,34.91,1946030.0
1778927114.25,80.08,0.367631,34.91,1944467.0
1778927114.265625,76.18,0.36635,34.91,1943147.0
1778927114.28125,73.5,0.36635,34.91,1942466.0
1778927114.296875,71.79,0.362507,34.91,1941995.0
1778927114.3125,70.26,0.362507,34.89,1941847.0
1778927114.328125,67.87,0.365069,34.89,1942322.0
1778927114.34375,63.77,0.36635,34.89,1942632.0
1778927114.359375,57.62,0.367631,34.89,1942695.0
1778927114.375,49.88,0.367631,34.91,1942922.0
1778927114.390625,41.67,0.363788,34.91,1943020.0
1778927114.40625,34.4,0.367631,34.91,1943457.0
1778927114.421875,29.63,0.368912,34.91,1943651.0
1778927114.4375,28.75,0.368912,34.89,1943925.0
1778927114.453125,32.87,0.365069,34.89,1942571.0
1778927114.46875,42.41,0.365069,34.89,1940668.0
1778927114.484375,56.56,0.365069,34.89,1938710.0
1778927114.5,72.83,0.368912,34.91,1937235.0
1778927114.515625,87.17,0.368912,34.91,1936041.0
1778927114.53125,94.84,0.363788,34.91,1935805.0
1778927114.546875,91.91,0.36635,34.91,1935103.0
1778927114.5625,76.51,0.36635,34.87,1934594.0
1778927114.578125,49.42,0.367631,34.87,1934417.0
1778927114.59375,13.34,0.370193,34.87,1934255.0
1778927114.609375,-28.52,0.367631,34.87,1934034.0
1778927114.625,-73.7,0.36635,34.89,1934155.0
1778927114.640625,-120.83,0.365069,34.89,1934364.0
1778927114.65625,-168.89,0.370193,34.89,1934289.0
1778927114.671875,-216.02,0.371474,34.89,1932600.0
1778927114.6875,-258.93,0.370193,34.89,1930033.0
1778927114.703125,-293.41,0.36635,34.89,1927927.0
1778927114.71875,-315.74,0.36635,34.89,1926108.0
1778927114.734375,-324.34,0.371474,34.89,1925263.0
1778927114.75,-320.42,0.371474,34.91,1924827.0
1778927114.765625,-307.49,0.371474,34.91,1924655.0
1778927114.78125,-289.89,0.370193,34.91,1924754.0
1778927114.796875,-271.1,0.370193,34.91,1924651.0
1778927114.8125,-252.83,0.370193,34.89,1924571.0
1778927114.828125,-234.99,0.370193,34.89,1925055.0
1778927114.84375,-216.56,0.372755,34.89,1925080.0
1778927114.859375,-196.65,0.372755,34.89,1925637.0
1778927114.875,-175.2,0.371474,34.87,1924401.0
1778927114.890625,-153.04,0.367631,34.87,1921768.0
1778927114.90625,-131.45,0.368912,34.87,1918855.0
1778927114.921875,-111.56,0.371474,34.87,1916370.0
1778927114.9375,-93.92,0.375317,34.87,1914764.0
1778927114.953125,-78.47,0.372755,34.87,1913672.0
1778927114.96875,-64.93,0.367631,34.87,1913124.0
1778927114.984375,-53.13,0.367631,34.87,1912760.0
1778927115.0,-43.35,0.371474,34.87,1912125.0
1778927115.015625,-36.11,0.370193,34.87,1911343.0
1778927115.03125,-31.88,0.372755,34.87,1910536.0
1778927115.046875,-30.66,0.370193,34.87,1909761.0
1778927115.0625,-31.85,0.368912,34.87,1909415.0
1778927115.078125,-34.47,0.367631,34.87,1909126.0
1778927115.09375,-37.52,0.370193,34.87,1906523.0
1778927115.109375,-40.42,0.371474,34.87,1903698.0
1778927115.125,-43.15,0.372755,34.87,1900544.0
1778927115.140625,-46.0,0.368912,34.87,1898361.0
1778927115.15625,-49.2,0.370193,34.87,1896498.0
1778927115.171875,-52.5,0.368912,34.87,1895338.0
1778927115.1875,-55.08,0.371474,34.87,1894540.0
1778927115.203125,-55.8,0.371474,34.87,1894020.0
1778927115.21875,-53.65,0.368912,34.87,1893498.0
1778927115.234375,-48.13,0.368912,34.87,1892524.0
1778927115.25,-39.5,0.368912,34.87,1891833.0
1778927115.265625,-28.65,0.371474,34.87,1892037.0
1778927115.28125,-16.77,0.374036,34.87,1892067.0
1778927115.296875,-4.97,0.374036,34.87,1890673.0
1778927115.3125,5.9,0.370193,34.87,1884129.0
1778927115.328125,15.42,0.367631,34.87,1880837.0
1778927115.34375,23.48,0.368912,34.87,1887671.0
1778927115.359375,30.16,0.372755,34.87,1878337.0
1778927115.375,35.59,0.372755,34.84,1877084.0
1778927115.390625,39.88,0.368912,34.84,1891808.0
1778927115.40625,43.1,0.372755,34.84,1893707.0
1778927115.421875,45.33,0.371474,34.84,1905822.0
1778927115.4375,46.71,0.374036,34.83,1890173.0
1778927115.453125,47.46,0.372755,34.83,1961664.0
1778927115.46875,47.87,0.370193,34.83,1935614.0
1778927115.484375,48.26,0.368912,34.83,1975344.0
1778927115.5,48.81,0.371474,34.84,1982224.0
1778927115.515625,49.58,0.372755,34.84,1986494.0
1778927115.53125,50.4,0.372755,34.84,1989748.0
1778927115.546875,51.05,0.370193,34.84,1992724.0
1778927115.5625,51.33,0.372755,34.84,1995505.0
1778927115.578125,51.19,0.372755,34.84,1998297.0
1778927115.59375,50.76,0.375317,34.84,2000239.0
1778927115.609375,50.24,0.375317,34.84,2001250.0
1778927115.625,49.81,0.371474,34.84,2003278.0
1778927115.640625,49.53,0.370193,34.84,2007076.0
1778927115.65625,49.35,0.372755,34.84,2011556.0
1778927115.671875,49.12,0.375317,34.84,2014670.0
1778927115.6875,48.7,0.375317,34.87,2011769.0
1778927115.703125,47.97,0.371474,34.87,1998162.0
1778927115.71875,46.87,0.375317,34.87,2008140.0
1778927115.734375,45.37,0.374036,34.87,2004109.0
1778927115.75,43.44,0.375317,34.84,1989227.0
1778927115.765625,41.18,0.376598,34.84,1978958.0
1778927115.78125,38.77,0.371474,34.84,1964528.0
1778927115.796875,36.47,0.374036,34.84,1970639.0
1778927115.8125,34.52,0.375317,34.84,1959567.0
1778927115.828125,32.99,0.375317,34.84,1942969.0
1778927115.84375,31.81,0.375317,34.84,1938152.0
1778927115.859375,30.73,0.371474,34.84,1954764.0
1778927115.875,29.49,0.375317,34.83,1948728.0
1778927115.890625,27.93,0.374036,34.83,1934925.0
1778927115.90625,26.17,0.376598,34.83,1932345.0
1778927115.921875,24.66,0.376598,34.83,1930766.0
1778927115.9375,24.15,0.372755,34.83,1928231.0
1778927115.953125,25.55,0.371474,34.83,1923670.0
1778927115.96875,29.66,0.372755,34.83,1926734.0
1778927115.984375,37.0,0.375317,34.83,1918026.0
1778927116.0,47.51,0.376598,34.84,1920774.0
1778927116.015625,60.6,0.372755,34.84,1916306.0
1778927116.03125,75.36,0.375317,34.84,1913703.0
1778927116.046875,90.8,0.374036,34.84,1914847.0
1778927116.0625,106.17,0.375317,34.83,1912204.0
1778927116.078125,120.97,0.376598,34.83,1909974.0
1778927116.09375,134.93,0.376598,34.83,1906946.0
1778927116.109375,147.76,0.376598,34.83,1904661.0
1778927116.125,159.02,0.37916,34.83,1902344.0
1778927116.140625,168.16,0.376598,34.83,1900916.0
1778927116.15625,174.64,0.377879,34.83,1897509.0
1778927116.171875,178.15,0.375317,34.83,1892612.0
1778927116.1875,178.58,0.377879,34.83,1887797.0
1778927116.203125,175.99,0.376598,34.83,1883907.0
1778927116.21875,170.55,0.377879,34.83,1881335.0
1778927116.234375,162.48,0.376598,34.83,1879467.0
1778927116.25,152.11,0.374036,34.83,1878336.0
1778927116.265625,139.91,0.374036,34.83,1877274.0
1778927116.28125,126.46,0.376598,34.83,1876079.0
1778927116.296875,112.27,0.377879,34.83,1874968.0
1778927116.3125,97.66,0.37916,34.81,1874002.0
1778927116.328125,82.74,0.376598,34.81,1873506.0
1778927116.34375,67.56,0.377879,34.81,1872964.0
1778927116.359375,52.27,0.375317,34.81,1872139.0
1778927116.375,37.29,0.377879,34.84,1868649.0
1778927116.390625,23.16,0.37916,34.84,1864789.0
1778927116.40625,10.37,0.375317,34.84,1861343.0
1778927116.421875,-0.85,0.375317,34.84,1858728.0
1778927116.4375,-10.56,0.376598,34.83,1857063.0
1778927116.453125,-19.09,0.380441,34.83,1856592.0
1778927116.46875,-26.77,0.37916,34.83,1856027.0
1778927116.484375,-33.82,0.375317,34.83,1855434.0
1778927116.5,-40.27,0.375317,34.84,1854557.0
1778927116.515625,-46.14,0.375317,34.84,1854054.0
1778927116.53125,-51.54,0.377879,34.84,1853525.0
1778927116.546875,-56.67,0.37916,34.84,1853612.0
1778927116.5625,-61.73,0.380441,34.84,1852962.0
1778927116.578125,-66.72,0.377879,34.84,1850247.0
1778927116.59375,-71.27,0.376598,34.84,1846515.0
1778927116.609375,-74.64,0.37916,34.84,1843347.0
1778927116.625,-76.02,0.37916,34.83,1841086.0
1778927116.640625,-74.93,0.380441,34.83,1839998.0
1778927116.65625,-71.61,0.376598,34.83,1839493.0
1778927116.671875,-66.97,0.37916,34.83,1839135.0
1778927116.6875,-62.4,0.381722,34.83,1839132.0
1778927116.703125,-59.13,0.381722,34.83,1839087.0
1778927116.71875,-57.6,0.381722,34.83,1839088.0
1778927116.734375,-57.12,0.377879,34.83,1839273.0
1778927116.75,-55.93,0.377879,34.83,1839975.0
1778927116.765625,-51.59,0.380441,34.83,1840805.0
1778927116.78125,-41.61,0.383003,34.83,1839696.0
1778927116.796875,-24.25,0.383003,34.83,1836843.0
1778927116.8125,0.82,0.37916,34.81,1834485.0
1778927116.828125,31.77,0.377879,34.81,1832832.0
1778927116.84375,64.57,0.37916,34.81,1831835.0
1778927116.859375,93.55,0.381722,34.81,1831762.0
1778927116.875,112.71,0.383003,34.83,1832548.0
1778927116.890625,117.57,0.37916,34.83,1832779.0
1778927116.90625,106.23,0.37916,34.83,1833250.0
1778927116.921875,79.86,0.377879,34.83,1833694.0
1778927116.9375,41.68,0.380441,34.83,1834138.0
1778927116.953125,-4.31,0.385565,34.83,1834957.0
1778927116.96875,-54.5,0.384284,34.83,1836026.0
1778927116.984375,-106.0,0.37916,34.83,1836590.0
1778927117.0,-156.22,0.37916,34.83,1835358.0
1778927117.015625,-202.25,0.381722,34.83,1832995.0
1778927117.03125,-240.73,0.383003,34.83,1831112.0
1778927117.046875,-268.46,0.383003,34.83,1829844.0
1778927117.0625,-283.41,0.380441,34.84,1829217.0
1778927117.078125,-285.46,0.37916,34.84,1829498.0
1778927117.09375,-276.53,0.383003,34.84,1830526.0
1778927117.109375,-259.75,0.384284,34.84,1831280.0
1778927117.125,-238.47,0.383003,34.83,1831855.0
1778927117.140625,-215.35,0.380441,34.83,1832520.0
1778927117.15625,-192.13,0.380441,34.83,1833361.0
1778927117.171875,-169.79,0.380441,34.83,1834340.0
1778927117.1875,-148.98,0.384284,34.81,1835509.0
1778927117.203125,-130.2,0.384284,34.81,1836409.0
1778927117.21875,-113.94,0.381722,34.81,1835084.0
1778927117.234375,-100.43,0.380441,34.81,1833611.0
1778927117.25,-89.58,0.385565,34.81,1832460.0
1778927117.265625,-81.02,0.385565,34.81,1832302.0
1778927117.28125,-74.19,0.385565,34.81,1833156.0
1778927117.296875,-68.52,0.384284,34.81,1833910.0
1778927117.3125,-63.51,0.381722,34.81,1834988.0
1778927117.328125,-58.84,0.383003,34.81,1836329.0
1778927117.34375,-54.29,0.384284,34.81,1837148.0
1778927117.359375,-49.83,0.384284,34.81,1838511.0
1778927117.375,-45.69,0.381722,34.81,1839752.0
1778927117.390625,-42.38,0.381722,34.81,1842058.0
1778927117.40625,-40.57,0.381722,34.81,1844037.0
1778927117.421875,-40.84,0.385565,34.81,1847433.0
1778927117.4375,-43.29,0.384284,34.81,1849742.0
1778927117.453125,-47.41,0.385565,34.81,1850580.0
1778927117.46875,-52.13,0.380441,34.81,1850626.0
1778927117.484375,-56.16,0.380441,34.81,1849734.0
1778927117.5,-58.39,0.383003,34.83,1848718.0
1778927117.515625,-58.15,0.385565,34.83,1848222.0
1778927117.53125,-55.22,0.386845,34.83,1847495.0
1778927117.546875,-49.69,0.385565,34.83,1846703.0
1778927117.5625,-41.78,0.381722,34.81,1846796.0
1778927117.578125,-31.86,0.381722,34.81,1847189.0
1778927117.59375,-20.42,0.385565,34.81,1848306.0
1778927117.609375,-8.18,0.385565,34.81,1849775.0
1778927117.625,4.0,0.381722,34.83,1850176.0
1778927117.640625,15.3,0.381722,34.83,1848850.0
1778927117.65625,25.1,0.381722,34.83,1847248.0
1778927117.671875,33.09,0.386845,34.83,1846589.0
1778927117.6875,39.2,0.385565,34.83,1846480.0
1778927117.703125,43.51,0.384284,34.83,1847143.0
1778927117.71875,46.02,0.383003,34.83,1848328.0
1778927117.734375,46.74,0.383003,34.83,1849987.0
1778927117.75,45.79,0.385565,34.81,1851511.0
1778927117.765625,43.43,0.388126,34.81,1853082.0
1778927117.78125,40.15,0.388126,34.81,1854304.0
1778927117.796875,36.57,0.386845,34.81,1856125.0
1778927117.8125,33.21,0.386845,34.83,1857912.0
1778927117.828125,30.4,0.390688,34.83,1859523.0
1778927117.84375,28.19,0.386845,34.83,1859411.0
1778927117.859375,26.4,0.388126,34.83,1859051.0
1778927117.875,24.79,0.384284,34.81,1858945.0
1778927117.890625,23.14,0.384284,34.81,1859534.0
1778927117.90625,21.3,0.384284,34.81,1861008.0
1778927117.921875,19.22,0.388126,34.81,1863052.0
1778927117.9375,16.89,0.389407,34.81,1864464.0
1778927117.953125,14.32,0.388126,34.81,1866201.0
1778927117.96875,11.51,0.385565,34.81,1867186.0
1778927117.984375,8.51,0.388126,34.81,1868155.0
1778927118.0,5.33,0.389407,34.79,1869395.0
1778927118.015625,1.98,0.388126,34.79,1870228.0
1778927118.03125,-1.61,0.389407,34.79,1871318.0
1778927118.046875,-5.66,0.388126,34.79,1871953.0
1778927118.0625,-10.48,0.388126,34.81,1870407.0
1778927118.078125,-16.33,0.385565,34.81,1868556.0
1778927118.09375,-23.15,0.389407,34.81,1867053.0
1778927118.109375,-30.38,0.391969,34.81,1866671.0
1778927118.125,-36.84,0.390688,34.81,1867047.0
1778927118.140625,-40.98,0.386845,34.81,1867789.0
1778927118.15625,-41.2,0.385565,34.81,1868476.0
1778927118.171875,-36.43,0.386845,34.81,1868703.0
1778927118.1875,-26.44,0.390688,34.79,1869078.0
1778927118.203125,-11.86,0.390688,34.79,1869511.0
1778927118.21875,5.95,0.389407,34.79,1870411.0
1778927118.234375,25.41,0.389407,34.79,1871507.0
1778927118.25,45.16,0.389407,34.79,1872352.0
1778927118.265625,64.34,0.389407,34.79,1872831.0
1778927118.28125,82.58,0.391969,34.79,1871618.0
1778927118.296875,99.8,0.399655,34.79,1870494.0
1778927118.3125,115.98,0.390688,34.79,1870138.0
1778927118.328125,130.93,0.386845,34.79,1870500.0
1778927118.34375,144.27,0.390688,34.79,1871472.0
1778927118.359375,155.58,0.391969,34.79,1872999.0
1778927118.375,164.64,0.39325,34.81,1874442.0
1778927118.390625,171.58,0.391969,34.81,1875648.0
1778927118.40625,176.93,0.388126,34.81,1876704.0
1778927118.421875,181.42,0.390688,34.81,1877876.0
1778927118.4375,185.71,0.388126,34.79,1879094.0
1778927118.453125,190.19,0.390688,34.79,1880365.0
1778927118.46875,195.06,0.391969,34.79,1881220.0
1778927118.484375,200.43,0.389407,34.79,1880280.0
1778927118.5,206.48,0.388126,34.79,1879149.0
1778927118.515625,213.22,0.389407,34.79,1878565.0
1778927118.53125,220.13,0.390688,34.79,1878680.0
1778927118.546875,225.8,0.39325,34.79,1879650.0
1778927118.5625,228.1,0.391969,34.79,1881275.0
1778927118.578125,224.85,0.388126,34.79,1883214.0
1778927118.59375,214.86,0.390688,34.79,1885281.0
1778927118.609375,198.69,0.390688,34.79,1886288.0
1778927118.625,178.56,0.391969,34.79,1887624.0
1778927118.640625,157.37,0.39325,34.79,1888457.0
1778927118.65625,137.37,0.389407,34.79,1888917.0
1778927118.671875,119.22,0.389407,34.79,1888316.0
1778927118.6875,102.0,0.39325,34.77,1886096.0
1778927118.703125,84.12,0.390688,34.77,1884295.0
1778927118.71875,64.44,0.39325,34.77,1883603.0
1778927118.734375,42.96,0.39325,34.77,1886999.0
1778927118.75,20.8,0.389407,34.79,1894527.0
1778927118.765625,-0.47,0.389407,34.79,1910491.0
1778927118.78125,-19.42,0.389407,34.79,1912915.0
1778927118.796875,-35.0,0.391969,34.79,1915363.0
1778927118.8125,-46.26,0.403498,34.77,1949364.0
1778927118.828125,-51.89,0.394531,34.77,1972675.0
1778927118.84375,-50.21,0.39325,34.77,1978181.0
1778927118.859375,-39.7,0.389407,34.77,1979528.0
1778927118.875,-20.08,0.391969,34.75,1974898.0
1778927118.890625,6.7,0.390688,34.75,1995833.0
1778927118.90625,36.07,0.39325,34.75,2038991.0
1778927118.921875,61.74,0.394531,34.75,2019926.0
1778927118.9375,77.3,0.39325,34.77,2023683.0
1778927118.953125,78.21,0.389407,34.77,2034972.0
1778927118.96875,63.1,0.39325,34.77,2059156.0
1778927118.984375,33.69,0.39325,34.77,2060614.0
1778927119.0,-6.34,0.39325,34.75,2052255.0
1778927119.015625,-53.03,0.39325,34.75,2046995.0
1778927119.03125,-103.3,0.390688,34.75,2043666.0
1778927119.046875,-155.01,0.390688,34.75,2040001.0
1778927119.0625,-206.02,0.39325,34.77,2036569.0
1778927119.078125,-253.34,0.394531,34.77,2032826.0
1778927119.09375,-292.86,0.394531,34.77,2029183.0
1778927119.109375,-320.46,0.394531,34.77,2026641.0
1778927119.125,-333.63,0.394531,34.75,2025665.0
1778927119.140625,-332.71,0.390688,34.75,2025146.0
1778927119.15625,-321.01,0.391969,34.75,2025339.0
1778927119.171875,-303.43,0.39325,34.75,2026912.0
1778927119.1875,-284.71,0.39325,34.77,2028679.0
1778927119.203125,-267.91,0.390688,34.77,2030516.0
1778927119.21875,-254.07,0.390688,34.77,2031996.0
1778927119.234375,-242.79,0.391969,34.77,2032925.0
1778927119.25,-233.25,0.394531,34.75,2034315.0
1778927119.265625,-224.98,0.395812,34.75,2036141.0
1778927119.28125,-217.89,0.394531,34.75,2036986.0
1778927119.296875,-212.02,0.391969,34.75,2037396.0
1778927119.3125,-207.09,0.390688,34.75,2035802.0
1778927119.328125,-202.39,0.39325,34.75,2034323.0
1778927119.34375,-197.12,0.394531,34.75,2033107.0
1778927119.359375,-190.8,0.395812,34.75,2032663.0
1778927119.375,-183.61,0.395812,34.75,2033164.0
1778927119.390625,-176.26,0.39325,34.75,2033582.0
1778927119.40625,-169.5,0.39325,34.75,2034551.0
1778927119.421875,-163.49,0.394531,34.75,2035555.0
1778927119.4375,-157.49,0.397093,34.77,2036265.0
1778927119.453125,-149.9,0.397093,34.77,2036978.0
1778927119.46875,-138.75,0.39325,34.77,2037603.0
1778927119.484375,-122.56,0.39325,34.77,2038911.0
1778927119.5,-100.98,0.394531,34.77,2039472.0
1778927119.515625,-74.97,0.398374,34.77,2038739.0
1778927119.53125,-46.65,0.398374,34.77,2035214.0
1778927119.546875,-18.49,0.394531,34.77,2037196.0
1778927119.5625,7.38,0.39325,34.75,2035425.0
1778927119.578125,29.73,0.39325,34.75,2035282.0
1778927119.59375,48.21,0.395812,34.75,2035753.0
1778927119.609375,63.08,0.398374,34.75,2036736.0
1778927119.625,74.75,0.398374,34.75,2036966.0
1778927119.640625,83.46,0.394531,34.75,2037615.0
1778927119.65625,89.26,0.397093,34.75,2039053.0
1778927119.671875,92.21,0.39325,34.75,2038622.0
1778927119.6875,92.57,0.395812,34.75,2040414.0
1778927119.703125,90.93,0.398374,34.75,2039966.0
1778927119.71875,88.12,0.399655,34.75,2039601.0
1778927119.734375,84.98,0.395812,34.75,2037876.0
1778927119.75,82.07,0.394531,34.77,2035087.0
1778927119.765625,79.55,0.395812,34.77,2033776.0
1778927119.78125,77.21,0.397093,34.77,2033314.0
1778927119.796875,74.67,0.397093,34.77,2033269.0
1778927119.8125,71.62,0.398374,34.75,2033893.0
1778927119.828125,67.93,0.399655,34.75,2034078.0
1778927119.84375,63.74,0.395812,34.75,2034647.0
1778927119.859375,59.27,0.395812,34.75,2035239.0
1778927119.875,54.7,0.395812,34.77,2035834.0
1778927119.890625,50.01,0.400936,34.77,2036434.0
1778927119.90625,45.02,0.398374,34.77,2037238.0
1778927119.921875,39.43,0.399655,34.77,2037540.0
1778927119.9375,32.91,0.397093,34.75,2035398.0
1778927119.953125,25.2,0.395812,34.75,2032758.0
1778927119.96875,16.07,0.395812,34.75,2031465.0
1778927119.984375,5.46,0.398374,34.75,2030633.0
1778927120.0,-6.44,0.398374,34.75,2030340.0
1778927120.015625,-18.88,0.395812,34.75,2030815.0
1778927120.03125,-30.5,0.395812,34.75,2030953.0
1778927120.046875,-39.41,0.395812,34.75,2030845.0
1778927120.0625,-43.66,0.402217,34.75,2031082.0
1778927120.078125,-41.82,0.400936,34.75,2031095.0
1778927120.09375,-33.49,0.399655,34.75,2031313.0
1778927120.109375,-19.42,0.397093,34.75,2031679.0
1778927120.125,-1.28,0.399655,34.75,2031899.0
1778927120.140625,18.98,0.398374,34.75,2030306.0
1778927120.15625,39.72,0.402217,34.75,2027689.0
1778927120.171875,59.87,0.399655,34.75,2024924.0
1778927120.1875,78.94,0.397093,34.73,2023094.0
1778927120.203125,96.8,0.397093,34.73,2022329.0
1778927120.21875,113.25,0.399655,34.73,2022582.0
1778927120.234375,127.94,0.402217,34.73,2022575.0
1778927120.25,140.41,0.403498,34.73,2022896.0
1778927120.265625,150.22,0.402217,34.73,2023328.0
1778927120.28125,157.22,0.398374,34.73,2023754.0
1778927120.296875,161.63,0.400936,34.73,2023936.0
1778927120.3125,163.95,0.403498,34.75,2024826.0
1778927120.328125,164.92,0.403498,34.75,2025319.0
1778927120.34375,165.4,0.402217,34.75,2025460.0
1778927120.359375,166.14,0.403498,34.75,2023728.0
1778927120.375,167.79,0.399655,34.75,2020850.0
1778927120.390625,170.67,0.399655,34.75,2018636.0
1778927120.40625,174.61,0.399655,34.75,2017519.0
1778927120.421875,178.87,0.403498,34.75,2017058.0
1778927120.4375,182.27,0.407341,34.75,2017242.0
1778927120.453125,183.48,0.404779,34.75,2017657.0
1778927120.46875,181.53,0.400936,34.75,2018010.0
1778927120.484375,176.14,0.403498,34.75,2018110.0
1778927120.5,167.89,0.400936,34.73,2018429.0
1778927120.515625,157.92,0.404779,34.73,2019181.0
1778927120.53125,147.47,0.40606,34.73,2019796.0
1778927120.546875,137.41,0.40606,34.73,2020413.0
1778927120.5625,127.88,0.402217,34.75,2020839.0
1778927120.578125,118.41,0.402217,34.75,2018677.0
1778927120.59375,108.02,0.40606,34.75,2015853.0
1778927120.609375,95.64,0.40606,34.75,2013895.0
1778927120.625,80.36,0.404779,34.73,2012944.0
1778927120.640625,61.71,0.402217,34.73,2012738.0
1778927120.65625,39.98,0.40606,34.73,2013097.0
1778927120.671875,16.34,0.408622,34.73,2013713.0
1778927120.6875,-7.23,0.408622,34.73,2013988.0
1778927120.703125,-28.3,0.411183,34.73,2014498.0
1778927120.71875,-44.78,0.409902,34.73,2015084.0
1778927120.734375,-55.5,0.415026,34.73,2015613.0
1778927120.75,-60.52,0.416307,34.71,2016098.0
1778927120.765625,-60.85,0.417588,34.71,2016668.0
1778927120.78125,-57.79,0.417588,34.71,2015117.0
1778927120.796875,-52.28,0.415026,34.71,2012207.0
1778927120.8125,-44.65,0.416307,34.73,2009277.0
1778927120.828125,-34.84,0.416307,34.73,2007473.0
1778927120.84375,-22.98,0.42015,34.73,2006549.0
1778927120.859375,-9.8,0.421431,34.73,2006619.0
1778927120.875,3.42,0.42015,34.73,2006760.0
1778927120.890625,15.32,0.416307,34.73,2006977.0
1778927120.90625,24.99,0.416307,34.73,2007086.0
1778927120.921875,32.51,0.417588,34.73,2007496.0
1778927120.9375,38.88,0.417588,34.73,2007924.0
1778927120.953125,45.58,0.421431,34.73,2008464.0
1778927120.96875,54.05,0.42015,34.73,2009224.0
1778927120.984375,65.06,0.417588,34.73,2008828.0
1778927121.0,78.45,0.416307,34.71,2005735.0
1778927121.015625,92.99,0.416307,34.71,2002014.0
1778927121.03125,106.6,0.417588,34.71,1999264.0
1778927121.046875,116.82,0.421431,34.71,1997103.0
1778927121.0625,121.52,0.421431,34.71,1996177.0
1778927121.078125,119.62,0.418869,34.71,1995817.0
1778927121.09375,111.57,0.417588,34.71,1995864.0
1778927121.109375,99.31,0.416307,34.71,1995937.0
1778927121.125,85.6,0.418869,34.71,1995889.0
1778927121.140625,72.96,0.421431,34.71,1996121.0
1778927121.15625,62.81,0.421431,34.71,1996540.0
1778927121.171875,55.03,0.418869,34.71,1996801.0
1778927121.1875,48.43,0.421431,34.73,1997242.0
1778927121.203125,41.66,0.418869,34.73,1995505.0
1778927121.21875,33.99,0.42015,34.73,1991968.0
1778927121.234375,25.71,0.42015,34.73,1987966.0
1778927121.25,17.85,0.421431,34.73,1985477.0
1778927121.265625,11.66,0.417588,34.73,1983708.0
1778927121.28125,8.16,0.416307,34.73,1983014.0
1778927121.296875,8.04,0.418869,34.73,1983154.0
1778927121.3125,11.74,0.421431,34.68,1983164.0
1778927121.328125,19.23,0.422712,34.68,1983758.0
1778927121.34375,29.62,0.421431,34.68,1983649.0
1778927121.359375,40.55,0.42015,34.68,1984000.0
1778927121.375,48.19,0.417588,34.71,1984545.0
1778927121.390625,48.04,0.418869,34.71,1985006.0
1778927121.40625,36.41,0.421431,34.71,1985415.0
1778927121.421875,11.96,0.421431,34.71,1982846.0
1778927121.4375,-23.51,0.42015,34.71,1978753.0
1778927121.453125,-65.65,0.416307,34.71,1974424.0
1778927121.46875,-109.07,0.418869,34.71,1971769.0
1778927121.484375,-148.9,0.42015,34.71,1970395.0
1778927121.5,-181.91,0.423993,34.71,1969578.0
1778927121.515625,-206.49,0.423993,34.71,1969650.0
1778927121.53125,-222.14,0.418869,34.71,1969560.0
1778927121.546875,-228.87,0.421431,34.71,1969378.0
1778927121.5625,-227.06,0.418869,34.68,1969415.0
1778927121.578125,-217.8,0.42015,34.68,1969717.0
1778927121.59375,-203.13,0.422712,34.68,1970026.0
1778927121.609375,-185.89,0.425274,34.68,1970511.0
1778927121.625,-169.0,0.425274,34.68,1970881.0
1778927121.640625,-154.56,0.421431,34.68,1968619.0
1778927121.65625,-143.19,0.426555,34.68,1964712.0
1778927121.671875,-134.11,0.423993,34.68,1960830.0
1778927121.6875,-125.74,0.423993,34.71,1957633.0
1778927121.703125,-116.73,0.423993,34.71,1956496.0
1778927121.71875,-106.61,0.421431,34.71,1955856.0
1778927121.734375,-95.83,0.423993,34.71,1955498.0
1778927121.75,-85.41,0.427836,34.68,1955387.0
1778927121.765625,-76.2,0.426555,34.68,1955254.0
1778927121.78125,-68.34,0.426555,34.68,1955162.0
1778927121.796875,-61.26,0.423993,34.68,1955488.0
1778927121.8125,-54.0,0.425274,34.68,1955661.0
1778927121.828125,-45.86,0.422712,34.68,1956075.0
1778927121.84375,-36.8,0.426555,34.68,1957056.0
1778927121.859375,-27.52,0.427836,34.68,1955946.0
1778927121.875,-19.04,0.426555,34.68,1952545.0
1778927121.890625,-12.32,0.422712,34.68,1948939.0
1778927121.90625,-7.78,0.426555,34.68,1946416.0
1778927121.921875,-5.26,0.426555,34.68,1945392.0
1778927121.9375,-4.19,0.429117,34.68,1945228.0
1778927121.953125,-3.95,0.429117,34.68,1945822.0
1778927121.96875,-4.09,0.427836,34.68,1946412.0
1778927121.984375,-4.43,0.426555,34.68,1947034.0
1778927122.0,-5.04,0.422712,34.66,1947809.0
1778927122.015625,-6.08,0.422712,34.66,1948421.0
1778927122.03125,-7.8,0.425274,34.66,1949682.0
1778927122.046875,-10.49,0.426555,34.66,1950634.0
1778927122.0625,-14.45,0.427836,34.66,1951898.0
1778927122.078125,-19.79,0.425274,34.66,1952013.0
1778927122.09375,-26.28,0.427836,34.66,1948988.0
1778927122.109375,-33.11,0.425274,34.66,1945158.0
1778927122.125,-38.92,0.426555,34.66,1942829.0
1778927122.140625,-42.18,0.429117,34.66,1941770.0
1778927122.15625,-41.55,0.427836,34.66,1941552.0
1778927122.171875,-36.36,0.425274,34.66,1942007.0
1778927122.1875,-26.77,0.425274,34.66,1942362.0
1778927122.203125,-13.71,0.427836,34.66,1942935.0
1778927122.21875,1.49,0.430398,34.66,1943058.0
1778927122.234375,17.4,0.430398,34.66,1943119.0
1778927122.25,32.83,0.427836,34.66,1943654.0
1778927122.265625,46.87,0.426555,34.66,1944527.0
1778927122.28125,58.88,0.427836,34.66,1945339.0
1778927122.296875,68.46,0.427836,34.66,1943957.0
1778927122.3125,75.28,0.429117,34.66,1940136.0
1778927122.328125,79.25,0.432959,34.66,1936773.0
1778927122.34375,80.48,0.427836,34.66,1934867.0
1778927122.359375,79.32,0.426555,34.66,1934115.0
1778927122.375,76.32,0.425274,34.66,1934290.0
1778927122.390625,72.1,0.427836,34.66,1934968.0
1778927122.40625,67.25,0.430398,34.66,1935642.0
1778927122.421875,62.15,0.431679,34.66,1935878.0
1778927122.4375,57.04,0.427836,34.66,1935906.0
1778927122.453125,52.05,0.427836,34.66,1936461.0
1778927122.46875,47.3,0.430398,34.66,1936905.0
1778927122.484375,43.01,0.432959,34.66,1937752.0
1778927122.5,39.51,0.432959,34.66,1936738.0
1778927122.515625,37.07,0.43424,34.66,1932630.0
1778927122.53125,35.7,0.430398,34.66,1927935.0
1778927122.546875,35.1,0.429117,34.66,1924545.0
1778927122.5625,34.67,0.430398,34.66,1922842.0
1778927122.578125,33.71,0.431679,34.66,1921925.0
1778927122.59375,31.76,0.432959,34.66,1921775.0
1778927122.609375,28.77,0.43424,34.66,1922026.0
1778927122.625,25.07,0.43424,34.66,1922504.0
1778927122.640625,21.17,0.438083,34.66,1922274.0
1778927122.65625,17.54,0.431679,34.66,1922714.0
1778927122.671875,14.33,0.43424,34.66,1922976.0
1778927122.6875,11.35,0.43424,34.66,1923829.0
1778927122.703125,8.15,0.43424,34.66,1923894.0
1778927122.71875,4.26,0.430398,34.66,1915346.0
1778927122.734375,-0.56,0.43424,34.66,1911656.0
1778927122.75,-6.13,0.43424,34.65,1909074.0
1778927122.765625,-11.73,0.440645,34.65,1907936.0
1778927122.78125,-16.22,0.436802,34.65,1907637.0
1778927122.796875,-18.26,0.432959,34.65,1920073.0
1778927122.8125,-16.75,0.431679,34.66,1908284.0
1778927122.828125,-11.06,0.432959,34.66,1908313.0
1778927122.84375,-1.3,0.431679,34.66,1908178.0
1778927122.859375,11.81,0.649439,34.66,1908275.0
1778927122.875,27.17,0.657125,34.65,1908324.0
1778927122.890625,43.61,0.630225,34.65,1908970.0
1778927122.90625,60.11,0.612292,34.65,1909844.0
1778927122.921875,75.84,0.591797,34.65,1908705.0
1778927122.9375,90.15,0.55593,34.65,1904727.0
1778927122.953125,102.48,0.532873,34.65,1900045.0
1778927122.96875,112.32,0.518783,34.65,1894250.0
1778927122.984375,119.34,0.505973,34.65,1896961.0
1778927123.0,123.46,0.498288,34.63,1894884.0
1778927123.015625,124.88,0.48804,34.63,1894279.0
1778927123.03125,124.0,0.479074,34.63,1894650.0
1778927123.046875,121.27,0.475231,34.63,1894727.0
1778927123.0625,117.07,0.466264,34.65,1895222.0
1778927123.078125,111.61,0.458578,34.65,1895628.0
1778927123.09375,105.01,0.454736,34.65,1895989.0
1778927123.109375,97.47,0.453455,34.65,1897047.0
1778927123.125,89.36,0.454736,34.61,1897956.0
1778927123.140625,81.23,0.453455,34.61,1898580.0
1778927123.15625,73.69,0.452174,34.61,1895102.0
1778927123.171875,67.2,,,1890860.0
1778927123.1875,61.83,,,1887735.0
1778927123.203125,57.2,,,1885626.0
1778927123.21875,52.58,,,1885058.0
1778927123.234375,47.08,,,1885701.0
1778927123.25,39.98,,,1886562.0
1778927123.265625,30.91,,,1887226.0
1778927123.28125,20.01,,,1887693.0
1778927123.296875,7.93,,,1888522.0
1778927123.3125,-4.22,,,1889186.0
1778927123.328125,-15.06,,,1890232.0
1778927123.34375,-23.26,,,1891675.0
1778927123.359375,-27.84,,,1893050.0
1778927123.375,-28.58,,,1893641.0
1778927123.390625,-26.07,,,1890418.0
1778927123.40625,-21.49,,,1886412.0
1778927123.421875,-16.09,,,1883673.0
1778927123.4375,-10.59,,,1882415.0
1778927123.453125,-4.9,,,1882297.0
1778927123.46875,1.9,,,1883318.0
1778927123.484375,11.09,,,1883920.0
1778927123.5,23.89,,,1884603.0
1778927123.515625,40.94,,,1885348.0
1778927123.53125,61.91,,,1886019.0
1778927123.546875,85.13,,,1886801.0
1778927123.5625,107.65,,,1888114.0
1778927123.578125,125.55,,,1890355.0
1778927123.59375,134.8,,,1889693.0
1778927123.609375,132.4,,,1887909.0
1778927123.625,117.28,,,1884190.0
1778927123.640625,90.5,,,1880787.0
1778927123.65625,54.63,,,1878809.0
1778927123.671875,12.61,,,1878062.0
1778927123.6875,-33.18,,,1878512.0
1778927123.703125,-80.97,,,1879291.0
1778927123.71875,-129.04,,,1879696.0
1778927123.734375,-174.93,,,1880652.0
1778927123.75,-215.25,,,1881432.0
1778927123.765625,-246.46,,,1880236.0
1778927123.78125,-266.15,,,1882462.0
1778927123.796875,-274.15,,,1883771.0
1778927123.8125,-272.52,,,1885362.0
1778927123.828125,-264.69,,,1883576.0
1778927123.84375,-253.92,,,1879459.0
1778927123.859375,-242.32,,,1875596.0
1778927123.875,-230.51,,,1873041.0
1778927123.890625,-218.16,,,1871953.0
1778927123.90625,-204.8,,,1871365.0
1778927123.921875,-190.44,,,1871830.0
1778927123.9375,-175.64,,,1872855.0
1778927123.953125,-161.15,,,1873163.0
1778927123.96875,-147.55,,,1873475.0
1778927123.984375,-134.96,,,1874278.0
1778927124.0,-123.18,,,1874832.0
1778927124.015625,-111.9,,,1876048.0
1778927124.03125,-101.01,,,1877455.0
1778927124.046875,-90.82,,,1878138.0
1778927124.0625,-81.85,,,1875317.0
1778927124.078125,-74.61,,,1870849.0
1778927124.09375,-69.16,,,1867359.0
1778927124.109375,-64.94,,,1864497.0
1778927124.125,-60.68,,,1865463.0
1778927124.140625,-54.84,,,1865196.0
1778927124.15625,-46.14,,,1865904.0
1778927124.171875,-34.09,,,1866504.0
1778927124.1875,-19.2,,,1867532.0
1778927124.203125,-2.74,,,1867162.0
1778927124.21875,13.74,,,1869236.0
1778927124.234375,28.93,,,1868480.0
1778927124.25,42.07,,,1870104.0
1778927124.265625,52.95,,,1871465.0
1778927124.28125,61.73,,,1870793.0
1778927124.296875,68.62,,,1866957.0
1778927124.3125,73.8,,,1862401.0
1778927124.328125,77.33,,,1859670.0
1778927124.34375,79.26,,,1857665.0
1778927124.359375,79.71,,,1856456.0
1778927124.375,78.84,,,1856245.0
1778927124.390625,76.9,,,1855824.0
1778927124.40625,74.15,,,1855852.0
1778927124.421875,70.82,,,1854848.0
1778927124.4375,67.12,,,1854377.0
1778927124.453125,63.2,,,1853093.0
1778927124.46875,59.17,,,1851055.0
1778927124.484375,55.1,,,1849129.0
1778927124.5,51.08,,,1847879.0
1778927124.515625,47.17,,,1846773.0
1778927124.53125,43.41,,,1843050.0
1778927124.546875,39.75,,,1838911.0
1778927124.5625,36.1,,,1836334.0
1778927124.578125,32.33,,,1835407.0
1778927124.59375,28.43,,,1836753.0
1778927124.609375,24.51,,,1835736.0
1778927124.625,20.78,,,1837780.0
1778927124.640625,17.5,,,1838608.0
1778927124.65625,14.77,,,1839501.0
1778927124.671875,12.47,,,1840261.0
1778927124.6875,10.26,,,1841502.0
1778927124.703125,7.67,,,1842877.0
1778927124.71875,4.33,,,1844802.0
1778927124.734375,0.14,,,1846963.0
1778927124.75,-4.66,,,1848968.0
1778927124.765625,-9.45,,,1849618.0
1778927124.78125,-13.39,,,1849753.0
1778927124.796875,-15.64,,,1849167.0
1778927124.8125,-15.52,,,1859194.0
1778927124.828125,-12.7,,,1876005.0
1778927124.84375,-7.3,,,1882678.0
1778927124.859375,0.29,,,1881543.0
1778927124.875,9.42,,,1887922.0
1778927124.890625,19.36,,,1893748.0
1778927124.90625,29.44,,,1912085.0
1778927124.921875,39.06,,,1932179.0
1778927124.9375,47.71,,,1948920.0
1778927124.953125,54.99,,,1962669.0
1778927124.96875,60.68,,,1973322.0
1778927124.984375,64.68,,,1980623.0
1778927125.0,67.12,,,1994285.0
1778927125.015625,68.23,,,2010593.0
1778927125.03125,68.32,,,2020726.0
1778927125.046875,67.67,,,2017804.0
1778927125.0625,66.47,,,2006811.0
1778927125.078125,64.91,,,1992418.0
1778927125.09375,63.19,,,1978449.0
1778927125.109375,61.54,,,1969293.0
1778927125.125,60.13,,,1962734.0
1778927125.140625,59.1,,,1956573.0
1778927125.15625,58.41,,,1956888.0
1778927125.171875,57.98,,,1956626.0
1778927125.1875,57.56,,,1954827.0
1778927125.203125,57.0,,,1945676.0
1778927125.21875,56.11,,,1939083.0
1778927125.234375,54.78,,,1937636.0
1778927125.25,52.95,,,1930784.0
1778927125.265625,50.58,,,1919332.0
1778927125.28125,47.7,,,1910077.0
1778927125.296875,44.3,,,1902941.0
1778927125.3125,40.42,,,1895796.0
1778927125.328125,36.07,,,1886397.0
1778927125.34375,31.23,,,1877929.0
1778927125.359375,25.76,,,1870315.0
1778927125.375,19.54,,,1863879.0
1778927125.390625,12.51,,,1858557.0
1778927125.40625,4.9,,,1853339.0
1778927125.421875,-2.62,,,1847636.0
1778927125.4375,-8.99,,,1837905.0
1778927125.453125,-12.95,,,1826916.0
1778927125.46875,-13.59,,,1816980.0
1778927125.484375,-10.7,,,1809473.0
1778927125.5,-5.04,,,1798147.0
1778927125.515625,1.89,,,1793381.0
1778927125.53125,8.4,,,1789290.0
1778927125.546875,13.25,,,1802865.0
1778927125.5625,16.06,,,1784830.0
1778927125.578125,17.28,,,1780790.0
1778927125.59375,17.77,,,1777117.0
1778927125.609375,18.24,,,1773769.0
1778927125.625,18.83,,,1770909.0
1778927125.640625,19.19,,,1767704.0
1778927125.65625,18.79,,,1761382.0
1778927125.671875,17.4,,,1753610.0
1778927125.6875,15.29,,,1746794.0
1778927125.703125,13.18,,,1741062.0
1778927125.71875,11.82,,,1737071.0
1778927125.734375,11.66,,,1733962.0
1778927125.75,12.8,,,1731411.0
1778927125.765625,15.32,,,1728861.0
1778927125.78125,19.62,,,1726052.0
1778927125.796875,26.56,,,1723469.0
1778927125.8125,36.77,,,1721151.0
1778927125.828125,49.85,,,1718836.0
1778927125.84375,63.65,,,1717368.0
1778927125.859375,74.41,,,1713563.0
1778927125.875,77.78,,,1707472.0
1778927125.890625,70.42,,,1701435.0
1778927125.90625,51.08,,,1695807.0
1778927125.921875,20.71,,,1691254.0
1778927125.9375,-18.26,,,1688509.0
1778927125.953125,-63.05,,,1686382.0
1778927125.96875,-111.07,,,1685301.0
1778927125.984375,-159.7,,,1684200.0
1778927126.0,-205.77,,,1682674.0
1778927126.015625,-245.26,,,1681079.0
1778927126.03125,-273.92,,,1680300.0
1778927126.046875,-288.58,,,1679613.0
1778927126.0625,-288.4,,,1678687.0
1778927126.078125,-275.33,,,1674759.0
1778927126.09375,-253.5,,,1669510.0
1778927126.109375,-227.73,,,1665228.0
1778927126.125,-202.11,,,1662109.0
1778927126.140625,-178.99,,,1660090.0
1778927126.15625,-158.99,,,1659029.0
1778927126.171875,-141.54,,,1658269.0
1778927126.1875,-125.63,,,1657354.0
1778927126.203125,-110.47,,,1656313.0
1778927126.21875,-95.75,,,1655652.0
1778927126.234375,-81.59,,,1655164.0
1778927126.25,-68.31,,,1654790.0
1778927126.265625,-56.14,,,1654210.0
1778927126.28125,-45.12,,,1650923.0
1778927126.296875,-35.0,,,1646062.0
1778927126.3125,-25.51,,,1641166.0
1778927126.328125,-16.47,,,1638079.0
1778927126.34375,-7.94,,,1635645.0
1778927126.359375,-0.21,,,1634405.0
1778927126.375,6.36,,,1633935.0
1778927126.390625,11.52,,,1633576.0
1778927126.40625,15.25,,,1632955.0
1778927126.421875,17.86,,,1632621.0
1778927126.4375,19.71,,,1632061.0
1778927126.453125,21.19,,,1631859.0
1778927126.46875,22.44,,,1631754.0
1778927126.484375,23.34,,,1631161.0
1778927126.5,23.63,,,1627955.0
1778927126.515625,23.1,,,1623400.0
1778927126.53125,21.7,,,1619279.0
1778927126.546875,19.56,,,1616358.0
1778927126.5625,16.94,,,1614655.0
1778927126.578125,13.99,,,1613651.0
1778927126.59375,10.6,,,1613416.0
1778927126.609375,6.53,,,1612738.0
1778927126.625,1.57,,,1612452.0
1778927126.640625,-4.16,,,1611768.0
1778927126.65625,-10.03,,,1611443.0
1778927126.671875,-15.01,,,1611475.0
1778927126.6875,-17.93,,,1611730.0
1778927126.703125,-17.88,,,1611793.0
1778927126.71875,-14.55,,,1608180.0
1778927126.734375,-8.31,,,1611470.0
1778927126.75,-0.02,,,1601818.0
1778927126.765625,9.23,,,1604737.0
1778927126.78125,18.46,,,1599962.0
1778927126.796875,27.01,,,1599034.0
1778927126.8125,34.5,,,1598670.0
1778927126.828125,40.74,,,1598470.0
1778927126.84375,45.66,,,1598259.0
1778927126.859375,49.25,,,1598041.0
1778927126.875,51.54,,,1597654.0
1778927126.890625,52.67,,,1597791.0
1778927126.90625,52.8,,,1597885.0
1778927126.921875,52.11,,,1598424.0
1778927126.9375,50.73,,,1598918.0
1778927126.953125,48.76,,,1599565.0
1778927126.96875,46.3,,,1600020.0
1778927126.984375,43.55,,,1600304.0
1778927127.0,40.78,,,1598613.0
1778927127.015625,38.27,,,1595408.0
1778927127.03125,36.17,,,1592249.0
1778927127.046875,34.51,,,1589923.0
1778927127.0625,33.14,,,1588494.0
1778927127.078125,31.86,,,1587621.0
1778927127.09375,30.54,,,1587241.0
1778927127.109375,29.11,,,1586940.0
1778927127.125,27.6,,,1586404.0
1778927127.140625,26.01,,,1585928.0
1778927127.15625,24.3,,,1585583.0
1778927127.171875,22.4,,,1585367.0
1778927127.1875,20.22,,,1585133.0
1778927127.203125,17.69,,,1585198.0
1778927127.21875,14.77,,,1585551.0
1778927127.234375,11.37,,,1585604.0
1778927127.25,7.43,,,1585968.0
1778927127.265625,3.04,,,1585349.0
1778927127.28125,-1.4,,,1582903.0
1778927127.296875,-5.12,,,1580297.0
1778927127.3125,-7.0,,,1578646.0
1778927127.328125,-5.97,,,1577747.0
1778927127.34375,-1.34,,,1577341.0
1778927127.359375,6.89,,,1577375.0
1778927127.375,17.96,,,1577286.0
1778927127.390625,30.73,,,1577066.0
1778927127.40625,43.99,,,1577079.0
1778927127.421875,56.88,,,1576730.0
1778927127.4375,68.93,,,1576964.0
1778927127.453125,79.98,,,1577246.0
1778927127.46875,89.95,,,1577841.0
1778927127.484375,98.73,,,1578359.0
1778927127.5,106.14,,,1578943.0
1778927127.515625,112.11,,,1578525.0
1778927127.53125,116.69,,,1576872.0
1778927127.546875,119.99,,,1575063.0
1778927127.5625,122.05,,,1573385.0
1778927127.578125,122.62,,,1572826.0
1778927127.59375,121.14,,,1572302.0
1778927127.609375,116.86,,,1572753.0
1778927127.625,109.16,,,1573489.0
1778927127.640625,97.86,,,1574265.0
1778927127.65625,83.4,,,1574798.0
1778927127.671875,66.9,,,1574832.0
1778927127.6875,49.87,,,1575011.0
1778927127.703125,33.94,,,1575099.0
1778927127.71875,20.34,,,1575475.0
1778927127.734375,9.6,,,1576331.0
1778927127.75,1.41,,,1576637.0
1778927127.765625,-5.13,,,1575623.0
1778927127.78125,-11.09,,,1574197.0
1778927127.796875,-17.12,,,1572862.0
1778927127.8125,-23.22,,,1572016.0
1778927127.828125,-28.69,,,1571145.0
1778927127.84375,-32.48,,,1570944.0
1778927127.859375,-33.58,,,1571024.0
1778927127.875,-31.23,,,1571097.0
1778927127.890625,-25.13,,,1570897.0
1778927127.90625,-15.69,,,1570961.0
1778927127.921875,-4.32,,,1570947.0
1778927127.9375,6.4,,,1571104.0
1778927127.953125,12.99,,,1571313.0
1778927127.96875,12.05,,,1571501.0
1778927127.984375,1.61,,,1571093.0
1778927128.0,-17.93,,,1569208.0
1778927128.015625,-43.66,,,1567211.0
1778927128.03125,-71.13,,,1565599.0
1778927128.046875,-96.03,,,1564469.0
1778927128.0625,-115.57,,,1563383.0
1778927128.078125,-129.1,,,1563102.0
1778927128.09375,-137.54,,,1562441.0
1778927128.109375,-142.4,,,1561630.0
1778927128.125,-144.87,,,1560791.0
1778927128.140625,-145.48,,,1560032.0
1778927128.15625,-144.42,,,1559289.0
1778927128.171875,-141.94,,,1558671.0
1778927128.1875,-138.63,,,1558299.0
1778927128.203125,-135.19,,,1557561.0
1778927128.21875,-132.08,,,1557352.0
1778927128.234375,-129.23,,,1553591.0
1778927128.25,-126.1,,,1556062.0
1778927128.265625,-121.9,,,1550847.0
1778927128.28125,-116.02,,,1548939.0
1778927128.296875,-108.36,,,1547283.0
1778927128.3125,-99.42,,,1546141.0
1778927128.328125,-90.09,,,1545457.0
1778927128.34375,-81.31,,,1544511.0
1778927128.359375,-73.73,,,1543850.0
1778927128.375,-67.44,,,1543275.0
1778927128.390625,-62.04,,,1542586.0
1778927128.40625,-56.89,,,1542157.0
1778927128.421875,-51.5,,,1541669.0
1778927128.4375,-45.78,,,1541325.0
1778927128.453125,-40.08,,,1541016.0
1778927128.46875,-35.0,,,1540969.0
1778927128.484375,-30.84,,,1540501.0
1778927128.5,-27.42,,,1538278.0
1778927128.515625,-23.93,,,1535977.0
1778927128.53125,-19.23,,,1533939.0
1778927128.546875,-12.32,,,1532556.0
1778927128.5625,-2.83,,,1531325.0
1778927128.578125,8.86,,,1530899.0
1778927128.59375,21.77,,,1530669.0
1778927128.609375,34.74,,,1530517.0
1778927128.625,46.89,,,1530349.0
1778927128.640625,57.78,,,1530256.0
1778927128.65625,67.31,,,1530372.0
1778927128.671875,75.52,,,1530791.0
1778927128.6875,82.29,,,1531073.0
1778927128.703125,87.27,,,1531538.0
1778927128.71875,90.08,,,1532063.0
1778927128.734375,90.5,,,1531324.0
1778927128.75,88.73,,,1529323.0
1778927128.765625,85.29,,,1527060.0
1778927128.78125,80.9,,,1525617.0
1778927128.796875,76.16,,,1524281.0
1778927128.8125,71.38,,,1523179.0
1778927128.828125,66.48,,,1521211.0
1778927128.84375,61.22,,,1522184.0
1778927128.859375,55.38,,,1520249.0
1778927128.875,48.96,,,1519451.0
1778927128.890625,42.22,,,1518802.0
1778927128.90625,35.58,,,1518032.0
1778927128.921875,29.37,,,1517280.0
1778927128.9375,23.72,,,1516789.0
1778927128.953125,18.56,,,1516463.0
1778927128.96875,13.57,,,1516051.0
1778927128.984375,8.37,,,1514926.0
1778927129.0,2.59,,,1512559.0
1778927129.015625,-3.98,,,1509497.0
1778927129.03125,-11.26,,,1506721.0
1778927129.046875,-18.79,,,1504896.0
1778927129.0625,-25.7,,,1503490.0
1778927129.078125,-30.97,,,1502522.0
1778927129.09375,-33.6,,,1501577.0
1778927129.109375,-33.04,,,1500754.0
1778927129.125,-29.27,,,1499817.0
1778927129.140625,-22.83,,,1498800.0
1778927129.15625,-14.55,,,1497963.0
1778927129.171875,-5.28,,,1497260.0
1778927129.1875,4.23,,,1496810.0
1778927129.203125,13.46,,,1496191.0
1778927129.21875,21.99,,,1495669.0
1778927129.234375,29.42,,,1495329.0
1778927129.25,35.35,,,1494133.0
1778927129.265625,39.45,,,1491523.0
1778927129.28125,41.58,,,1488672.0
1778927129.296875,41.86,,,1486305.0
1778927129.3125,40.7,,,1484441.0
1778927129.328125,38.65,,,1483158.0
1778927129.34375,36.29,,,1482450.0
1778927129.359375,34.06,,,1481540.0
1778927129.375,32.13,,,1480394.0
1778927129.390625,30.44,,,1479727.0
1778927129.40625,28.77,,,1479006.0
1778927129.421875,26.91,,,1478197.0
1778927129.4375,24.82,,,1477845.0
1778927129.453125,22.64,,,1477752.0
1778927129.46875,20.68,,,1477630.0
1778927129.484375,19.13,,,1477822.0
1778927129.5,18.05,,,1478242.0
1778927129.515625,17.22,,,1477509.0
1778927129.53125,16.18,,,1476210.0
1778927129.546875,14.41,,,1474976.0
1778927129.5625,11.43,,,1473715.0
1778927129.578125,6.95,,,1472142.0
1778927129.59375,1.02,,,1471292.0
1778927129.609375,-5.96,,,1470225.0
1778927129.625,-13.24,,,1469823.0
1778927129.640625,-19.84,,,1469452.0
1778927129.65625,-24.84,,,1469500.0
1778927129.671875,-27.58,,,1469266.0
1778927129.6875,-27.87,,,1469436.0
1778927129.703125,-26.0,,,1469850.0
1778927129.71875,-22.63,,,1469680.0
1778927129.734375,-18.56,,,1469443.0
1778927129.75,-14.51,,,1469179.0
1778927129.765625,-10.97,,,1467240.0
1778927129.78125,-8.12,,,1464714.0
1778927129.796875,-5.99,,,1462276.0
1778927129.8125,-4.38,,,1460241.0
1778927129.828125,-3.03,,,1458825.0
1778927129.84375,-1.69,,,1457728.0
1778927129.859375,-0.21,,,1457239.0
1778927129.875,1.38,,,1456702.0
1778927129.890625,2.82,,,1455767.0
1778927129.90625,3.64,,,1455227.0
1778927129.921875,3.21,,,1454521.0
1778927129.9375,0.93,,,1454251.0
1778927129.953125,-3.62,,,1453924.0
1778927129.96875,-10.54,,,1453720.0
1778927129.984375,-19.56,,,1453300.0
1778927130.0,-30.1,,,1452516.0
1778927130.015625,-41.36,,,1450322.0
1778927130.03125,-52.54,,,1447778.0
1778927130.046875,-62.96,,,1445593.0
1778927130.0625,-72.1,,,1443964.0
1778927130.078125,-79.7,,,1442714.0
1778927130.09375,-85.67,,,1441670.0
1778927130.109375,-90.19,,,1441202.0
1778927130.125,-93.61,,,1440412.0
1778927130.140625,-96.33,,,1439607.0
1778927130.15625,-98.69,,,1438822.0
1778927130.171875,-100.66,,,1438415.0
1778927130.1875,-101.87,,,1437887.0
1778927130.203125,-101.68,,,1437654.0
1778927130.21875,-99.49,,,1437415.0
1778927130.234375,-95.04,,,1437200.0
1778927130.25,-88.53,,,1436529.0
1778927130.265625,-80.42,,,1434826.0
1778927130.28125,-71.27,,,1432575.0
1778927130.296875,-61.35,,,1430569.0
1778927130.3125,-50.78,,,1429575.0
1778927130.328125,-39.53,,,1428977.0
1778927130.34375,-27.62,,,1428712.0
1778927130.359375,-15.23,,,1428844.0
1778927130.375,-2.46,,,1428965.0
1778927130.390625,10.71,,,1429159.0
1778927130.40625,24.58,,,1430026.0
1778927130.421875,39.43,,,1431149.0
1778927130.4375,55.32,,,1432612.0
1778927130.453125,71.61,,,1434046.0
1778927130.46875,87.03,,,1435147.0
1778927130.484375,99.95,,,1436601.0
1778927130.5,108.81,,,1437094.0
1778927130.515625,112.68,,,1436452.0
1778927130.53125,111.42,,,1435274.0
1778927130.546875,105.65,,,1434244.0
1778927130.5625,96.45,,,1433135.0
1778927130.578125,85.03,,,1432210.0
1778927130.59375,72.49,,,1431568.0
1778927130.609375,59.7,,,1431229.0
1778927130.625,47.29,,,1430981.0
1778927130.640625,35.59,,,1431343.0
1778927130.65625,24.62,,,1431970.0
1778927130.671875,14.14,,,1433079.0
1778927130.6875,3.82,,,1433952.0
1778927130.703125,-6.42,,,1435264.0
1778927130.71875,-16.17,,,1436487.0
1778927130.734375,-24.41,,,1437515.0
1778927130.75,-29.76,,,1437112.0
1778927130.765625,-30.94,,,1435224.0
1778927130.78125,-27.31,,,1433359.0
1778927130.796875,-19.24,,,1431687.0
1778927130.8125,-8.02,,,1430535.0
1778927130.828125,4.39,,,1429772.0
1778927130.84375,15.98,,,1429894.0
1778927130.859375,25.14,,,1430337.0
1778927130.875,30.96,,,1430718.0
1778927130.890625,33.33,,,1430735.0
1778927130.90625,32.69,,,1431222.0
1778927130.921875,29.73,,,1431183.0
1778927130.9375,25.14,,,1431476.0
1778927130.953125,19.5,,,1431827.0
1778927130.96875,13.29,,,1432327.0
1778927130.984375,7.0,,,1432755.0
1778927131.0,1.21,,,1432811.0
1778927131.015625,-3.41,,,1431314.0
1778927131.03125,-6.26,,,1428740.0
1778927131.046875,-6.95,,,1426278.0
1778927131.0625,-5.42,,,1424513.0
1778927131.078125,-1.96,,,1423260.0
1778927131.09375,2.99,,,1422570.0
1778927131.109375,8.97,,,1422499.0
1778927131.125,15.62,,,1422243.0
1778927131.140625,22.69,,,1421691.0
1778927131.15625,29.87,,,1421120.0
1778927131.171875,36.7,,,1420346.0
1778927131.1875,42.53,,,1419945.0
1778927131.203125,46.68,,,1420173.0
1778927131.21875,48.66,,,1420623.0
1778927131.234375,48.39,,,1420997.0
1778927131.25,46.18,,,1420561.0
1778927131.265625,42.63,,,1420035.0
1778927131.28125,38.35,,,1418851.0
1778927131.296875,33.7,,,1417627.0
1778927131.3125,28.9,,,1416435.0
1778927131.328125,24.16,,,1415337.0
1778927131.34375,19.96,,,1414694.0
1778927131.359375,17.07,,,1414217.0
1778927131.375,16.39,,,1414498.0
1778927131.390625,18.55,,,1414719.0
1778927131.40625,23.57,,,1414595.0
1778927131.421875,30.8,,,1413780.0
1778927131.4375,39.1,,,1413151.0
1778927131.453125,47.33,,,1413280.0
1778927131.46875,54.73,,,1413476.0
1778927131.484375,61.0,,,1413592.0
1778927131.5,66.23,,,1413534.0
1778927131.515625,70.74,,,1413234.0
1778927131.53125,74.93,,,1412614.0
1778927131.546875,79.24,,,1411868.0
1778927131.5625,83.99,,,1410791.0
1778927131.578125,89.1,,,1409320.0
1778927131.59375,93.84,,,1408121.0
1778927131.609375,96.8,,,1407093.0
1778927131.625,96.15,,,1406640.0
1778927131.640625,90.12,,,1406523.0
1778927131.65625,77.55,,,1406032.0
1778927131.671875,58.19,,,1405305.0
1778927131.6875,32.74,,,1404100.0
1778927131.703125,2.64,,,1403787.0
1778927131.71875,-30.29,,,1403523.0
1778927131.734375,-63.93,,,1403336.0
1778927131.75,-96.07,,,1402899.0
1778927131.765625,-124.45,,,1402591.0
1778927131.78125,-147.13,,,1402298.0
1778927131.796875,-162.86,,,1402217.0
1778927131.8125,-171.41,,,1401475.0
1778927131.828125,-173.59,,,1400431.0
1778927131.84375,-170.86,,,1399202.0
1778927131.859375,-164.86,,,1398457.0
1778927131.875,-156.99,,,1398660.0
1778927131.890625,-148.15,,,1399386.0
1778927131.90625,-138.76,,,1399933.0
1778927131.921875,-128.98,,,1400452.0
1778927131.9375,-118.88,,,1400622.0
1778927131.953125,-108.6,,,1401067.0
1778927131.96875,-98.39,,,1401741.0
1778927131.984375,-88.42,,,1401948.0
1778927132.0,-78.8,,,1402141.0
1778927132.015625,-69.49,,,1402282.0
1778927132.03125,-60.54,,,1402164.0
1778927132.046875,-52.18,,,1402096.0
1778927132.0625,-44.95,,,1401604.0
1778927132.078125,-39.54,,,1400187.0
1778927132.09375,-36.44,,,1399002.0
1778927132.109375,-35.65,,,1397999.0
1778927132.125,-36.49,,,1397612.0
1778927132.140625,-37.72,,,1397662.0
1778927132.15625,-38.06,,,1397746.0
1778927132.171875,-36.62,,,1397885.0
1778927132.1875,-33.31,,,1398057.0
1778927132.203125,-28.64,,,1398694.0
1778927132.21875,-23.45,,,1399426.0
1778927132.234375,-18.36,,,1400327.0
1778927132.25,-13.58,,,1401191.0
1778927132.265625,-9.04,,,1401859.0
1778927132.28125,-4.72,,,1402617.0
1778927132.296875,-0.9,,,1403283.0
1778927132.3125,1.86,,,1403066.0
1778927132.328125,3.07,,,1402849.0
1778927132.34375,2.72,,,1402497.0
1778927132.359375,1.55,,,1402011.0
1778927132.375,0.81,,,1401936.0
1778927132.390625,1.83,,,1402022.0
1778927132.40625,5.46,,,1402195.0
1778927132.421875,11.76,,,1402270.0
1778927132.4375,20.11,,,1402226.0
1778927132.453125,29.55,,,1402542.0
1778927132.46875,39.21,,,1402562.0
1778927132.484375,48.51,,,1402360.0
1778927132.5,57.17,,,1402122.0
1778927132.515625,65.01,,,1401954.0
1778927132.53125,71.84,,,1401202.0
1778927132.546875,77.43,,,1400014.0
1778927132.5625,81.58,,,1398850.0
1778927132.578125,84.31,,,1397965.0
1778927132.59375,85.8,,,1397149.0
1778927132.609375,86.45,,,1396936.0
1778927132.625,86.6,,,1397251.0
1778927132.640625,86.51,,,1397520.0
1778927132.65625,86.19,,,1397309.0
1778927132.671875,85.59,,,1396993.0
1778927132.6875,84.58,,,1396692.0
1778927132.703125,83.14,,,1396620.0
1778927132.71875,81.3,,,1396587.0
1778927132.734375,79.16,,,1396478.0
1778927132.75,76.76,,,1396222.0
1778927132.765625,74.07,,,1395120.0
1778927132.78125,70.96,,,1393749.0
1778927132.796875,67.17,,,1392787.0
1778927132.8125,62.37,,,1391721.0
1778927132.828125,56.22,,,1390861.0
1778927132.84375,48.47,,,1390365.0
1778927132.859375,39.14,,,1390150.0
1778927132.875,28.71,,,1389960.0
1778927132.890625,18.14,,,1389679.0
1778927132.90625,8.78,,,1389029.0
1778927132.921875,2.05,,,1388451.0
1778927132.9375,-1.07,,,1388394.0
1778927132.953125,-0.24,,,1388349.0
1778927132.96875,4.03,,,1388299.0
1778927132.984375,10.71,,,1388055.0
1778927133.0,18.65,,,1387423.0
1778927133.015625,26.98,,,1386148.0
1778927133.03125,35.25,,,1384740.0
1778927133.046875,43.33,,,1383721.0
1778927133.0625,51.01,,,1383101.0
1778927133.078125,57.82,,,1382414.0
1778927133.09375,62.92,,,1381965.0
1778927133.109375,65.45,,,1381770.0
1778927133.125,64.96,,,1381937.0
1778927133.140625,61.7,,,1381350.0
1778927133.15625,56.64,,,1381005.0
1778927133.171875,51.04,,,1380661.0
1778927133.1875,45.9,,,1380528.0
1778927133.203125,41.58,,,1380407.0
1778927133.21875,37.66,,,1380093.0
1778927133.234375,33.45,,,1380102.0
1778927133.25,28.42,,,1379321.0
1778927133.265625,22.72,,,1377939.0
1778927133.28125,17.24,,,1376686.0
1778927133.296875,13.38,,,1375528.0
1778927133.3125,12.56,,,1374516.0
1778927133.328125,15.89,,,1373601.0
1778927133.34375,23.92,,,1373292.0
1778927133.359375,36.42,,,1372823.0
1778927133.375,52.4,,,1372348.0
1778927133.390625,69.83,,,1371494.0
1778927133.40625,85.76,,,1370887.0
1778927133.421875,96.64,,,1370388.0
1778927133.4375,99.12,,,1369708.0
1778927133.453125,91.01,,,1369325.0
1778927133.46875,71.92,,,1368833.0
1778927133.484375,43.35,,,1368492.0
1778927133.5,8.09,,,1367852.0
1778927133.515625,-30.66,,,1366486.0
1778927133.53125,-70.01,,,1364563.0
1778927133.546875,-107.51,,,1363289.0
1778927133.5625,-140.92,,,1362382.0
1778927133.578125,-167.86,,,1361706.0
1778927133.59375,-185.87,,,1361537.0
1778927133.609375,-193.06,,,1362079.0
1778927133.625,-188.97,,,1362713.0
1778927133.640625,-175.2,,,1363943.0
1778927133.65625,-155.14,,,1364916.0
1778927133.671875,-133.04,,,1366374.0
1778927133.6875,-112.61,,,1368431.0
1778927133.703125,-95.96,,,1370293.0
1778927133.71875,-83.28,,,1371983.0
1778927133.734375,-73.54,,,1373461.0
1778927133.75,-65.38,,,1373836.0
1778927133.765625,-58.01,,,1374142.0
1778927133.78125,-51.35,,,1373791.0
1778927133.796875,-45.76,,,1373501.0
1778927133.8125,-41.35,,,1373547.0
1778927133.828125,-37.78,,,1373977.0
1778927133.84375,-34.26,,,1374590.0
1778927133.859375,-30.15,,,1375168.0
1778927133.875,-25.29,,,1375582.0
1778927133.890625,-20.17,,,1376349.0
1778927133.90625,-15.7,,,1377194.0
1778927133.921875,-12.73,,,1378376.0
1778927133.9375,-11.78,,,1379909.0
1778927133.953125,-12.84,,,1380697.0
1778927133.96875,-15.54,,,1381010.0
1778927133.984375,-19.19,,,1380432.0
1778927134.0,-22.93,,,1379360.0
1778927134.015625,-25.78,,,1378083.0
1778927134.03125,-26.76,,,1377031.0
1778927134.046875,-25.13,,,1376172.0
1778927134.0625,-20.59,,,1375244.0
1778927134.078125,-13.41,,,1374842.0
1778927134.09375,-4.29,,,1374482.0
1778927134.109375,5.82,,,1374335.0
1778927134.125,16.02,,,1374973.0
1778927134.140625,25.59,,,1375366.0
1778927134.15625,34.01,,,1375626.0
1778927134.171875,40.92,,,1375967.0
1778927134.1875,45.99,,,1375616.0
1778927134.203125,49.02,,,1373977.0
1778927134.21875,49.98,,,1371628.0
1778927134.234375,49.18,,,1369031.0
1778927134.25,47.13,,,1366543.0
1778927134.265625,44.53,,,1364681.0
1778927134.28125,41.93,,,1363749.0
1778927134.296875,39.7,,,1362537.0
1778927134.3125,37.9,,,1362005.0
1778927134.328125,36.43,,,1361201.0
1778927134.34375,35.08,,,1360713.0
1778927134.359375,33.71,,,1360408.0
1778927134.375,32.26,,,1361020.0
1778927134.390625,30.73,,,1361859.0
1778927134.40625,29.19,,,1362650.0
1778927134.421875,27.6,,,1364019.0
1778927134.4375,25.91,,,1365053.0
1778927134.453125,23.91,,,1364519.0
1778927134.46875,21.29,,,1362517.0
1778927134.484375,17.73,,,1360236.0
1778927134.5,13.05,,,1357857.0
1778927134.515625,7.45,,,1356780.0
1778927134.53125,1.55,,,1356506.0
1778927134.546875,-3.59,,,1356632.0
1778927134.5625,-6.82,,,1356723.0
1778927134.578125,-7.25,,,1356929.0
1778927134.59375,-4.51,,,1357465.0
1778927134.609375,1.09,,,1358418.0
1778927134.625,8.73,,,1359809.0
1778927134.640625,17.35,,,1361565.0
1778927134.65625,26.04,,,1363617.0
1778927134.671875,34.14,,,1365571.0
1778927134.6875,41.26,,,1367680.0
1778927134.703125,47.26,,,1369188.0
1778927134.71875,51.91,,,1368942.0
1778927134.734375,55.03,,,1367966.0
1778927134.75,56.36,,,1367091.0
1778927134.765625,55.77,,,1365962.0
1778927134.78125,53.25,,,1365306.0
1778927134.796875,49.0,,,1364626.0
1778927134.8125,43.33,,,1364008.0
1778927134.828125,36.69,,,1363806.0
1778927134.84375,29.59,,,1363783.0
1778927134.859375,22.55,,,1363614.0
1778927134.875,16.02,,,1364114.0
1778927134.890625,10.25,,,1364720.0
1778927134.90625,5.2,,,1365555.0
1778927134.921875,0.61,,,1366587.0
1778927134.9375,-3.84,,,1367382.0
1778927134.953125,-8.38,,,1368215.0
1778927134.96875,-12.99,,,1368269.0
1778927134.984375,-17.5,,,1367065.0
1778927135.0,-21.74,,,1364888.0
1778927135.015625,-25.71,,,1362612.0
1778927135.03125,-29.61,,,1360396.0
1778927135.046875,-33.63,,,1358467.0
1778927135.0625,-37.77,,,1357197.0
1778927135.078125,-41.63,,,1356160.0
1778927135.09375,-44.48,,,1355780.0
1778927135.109375,-45.54,,,1355699.0
1778927135.125,-44.32,,,1355666.0
1778927135.140625,-40.88,,,1355835.0
1778927135.15625,-35.83,,,1356189.0
1778927135.171875,-30.19,,,1356893.0
1778927135.1875,-25.02,,,1357667.0
1778927135.203125,-21.05,,,1358589.0
1778927135.21875,-18.51,,,1360265.0
1778927135.234375,-17.14,,,1361724.0
1778927135.25,-16.4,,,1362447.0
1778927135.265625,-15.83,,,1361862.0
1778927135.28125,-15.35,,,1360739.0
1778927135.296875,-15.19,,,1359830.0
1778927135.3125,-15.89,,,1359691.0
1778927135.328125,-17.91,,,1360069.0
1778927135.34375,-21.55,,,1361272.0
1778927135.359375,-26.77,,,1362666.0
1778927135.375,-33.31,,,1363945.0
1778927135.390625,-40.69,,,1364756.0
1778927135.40625,-48.29,,,1365201.0
1778927135.421875,-55.33,,,1365687.0
1778927135.4375,-60.91,,,1366511.0
1778927135.453125,-64.16,,,1367660.0
1778927135.46875,-64.58,,,1368514.0
1778927135.484375,-62.31,,,1369730.0
1778927135.5,-58.33,,,1371256.0
1778927135.515625,-54.3,,,1371718.0
1778927135.53125,-52.14,,,1371125.0
1778927135.546875,-53.42,,,1369813.0
1778927135.5625,-58.79,,,1368710.0
1778927135.578125,-67.64,,,1367957.0
1778927135.59375,-78.2,,,1367804.0
1778927135.609375,-87.98,,,1367894.0
1778927135.625,-94.55,,,1368861.0
1778927135.640625,-96.1,,,1369680.0
1778927135.65625,-91.76,,,1370405.0
1778927135.671875,-81.52,,,1370942.0
1778927135.6875,-65.8,,,1371433.0
1778927135.703125,-45.13,,,1371850.0
1778927135.71875,-20.12,,,1372243.0
1778927135.734375,8.29,,,1373648.0
1778927135.75,38.54,,,1374594.0
1778927135.765625,68.37,,,1375049.0
1778927135.78125,95.28,,,1375159.0
1778927135.796875,117.32,,,1374868.0
1778927135.8125,133.66,,,1374626.0
1778927135.828125,144.73,,,1374611.0
1778927135.84375,151.69,,,1374764.0
1778927135.859375,155.55,,,1374870.0
1778927135.875,156.47,,,1374959.0
1778927135.890625,153.74,,,1375298.0
1778927135.90625,146.35,,,1375535.0
1778927135.921875,133.86,,,1375522.0
1778927135.9375,117.04,,,1375780.0
1778927135.953125,97.79,,,1376193.0
1778927135.96875,78.59,,,1376970.0
1778927135.984375,61.5,,,1377829.0
1778927136.0,47.5,,,1378435.0
1778927136.015625,36.25,,,1379309.0
1778927136.03125,26.57,,,1380102.0
1778927136.046875,17.01,,,1380751.0
1778927136.0625,6.5,,,1380111.0
1778927136.078125,-5.28,,,1379000.0
1778927136.09375,-17.98,,,1377344.0
1778927136.109375,-30.73,,,1375754.0
1778927136.125,-42.39,,,1374301.0
1778927136.140625,-51.81,,,1373516.0
1778927136.15625,-57.95,,,1372807.0
1778927136.171875,-60.06,,,1372381.0
1778927136.1875,-57.79,,,1372234.0
1778927136.203125,-51.31,,,1372478.0
1778927136.21875,-41.41,,,1372968.0
1778927136.234375,-29.29,,,1373593.0
1778927136.25,-16.51,,,1374555.0
1778927136.265625,-4.64,,,1375449.0
1778927136.28125,5.08,,,1376587.0
1778927136.296875,11.97,,,1378018.0
1778927136.3125,16.02,,,1379040.0
1778927136.328125,17.81,,,1379503.0
1778927136.34375,18.23,,,1379321.0
1778927136.359375,18.23,,,1378901.0
1778927136.375,18.44,,,1378327.0
1778927136.390625,19.15,,,1378339.0
1778927136.40625,20.23,,,1378425.0
1778927136.421875,21.25,,,1378851.0
1778927136.4375,21.64,,,1379689.0
1778927136.453125,20.75,,,1380939.0
1778927136.46875,18.02,,,1382396.0
1778927136.484375,13.13,,,1384077.0
1778927136.5,6.22,,,1385727.0
1778927136.515625,-2.03,,,1387660.0
1778927136.53125,-10.46,,,1389247.0
1778927136.546875,-17.8,,,1390446.0
1778927136.5625,-23.03,,,1391604.0
1778927136.578125,-25.76,,,1393612.0
1778927136.59375,-26.24,,,1394854.0
1778927136.609375,-25.09,,,1395211.0
1778927136.625,-22.98,,,1395105.0
1778927136.640625,-20.38,,,1394954.0
1778927136.65625,-17.51,,,1394477.0
1778927136.671875,-14.5,,,1394283.0
1778927136.6875,-11.58,,,1393869.0
1778927136.703125,-8.99,,,1394010.0
1778927136.71875,-6.84,,,1393921.0
1778927136.734375,-4.84,,,1393793.0
1778927136.75,-2.3,,,1393485.0
1778927136.765625,1.61,,,1393455.0
1778927136.78125,7.55,,,1393388.0
1778927136.796875,15.66,,,1393537.0
1778927136.8125,25.65,,,1393761.0
1778927136.828125,37.1,,,1394635.0
1778927136.84375,49.73,,,1394716.0
1778927136.859375,63.48,,,1393931.0
1778927136.875,78.03,,,1392420.0
1778927136.890625,92.61,,,1390580.0
1778927136.90625,105.87,,,1388779.0
1778927136.921875,116.33,,,1387400.0
1778927136.9375,122.87,,,1386330.0
1778927136.953125,124.94,,,1385677.0
1778927136.96875,122.22,,,1385038.0
1778927136.984375,113.95,,,1384663.0
1778927137.0,98.57,,,1384340.0
1778927137.015625,74.07,,,1384148.0
1778927137.03125,39.3,,,1384309.0
1778927137.046875,-4.67,,,1384882.0
1778927137.0625,-53.91,,,1385248.0
1778927137.078125,-102.31,,,1385637.0
1778927137.09375,-143.5,,,1386576.0
1778927137.109375,-173.05,,,1387014.0
1778927137.125,-189.71,,,1386891.0
1778927137.140625,-195.33,,,1385964.0
1778927137.15625,-193.56,,,1384807.0
1778927137.171875,-188.12,,,1383508.0
1778927137.1875,-181.67,,,1382391.0
1778927137.203125,-175.49,,,1382035.0
1778927137.21875,-169.83,,,1381876.0
1778927137.234375,-164.42,,,1381647.0
1778927137.25,-158.74,,,1382183.0
1778927137.265625,-151.98,,,1382849.0
1778927137.28125,-143.02,,,1383111.0
1778927137.296875,-130.54,,,1383738.0
1778927137.3125,-113.59,,,1384802.0
1778927137.328125,-92.11,,,1386156.0
1778927137.34375,-67.15,,,1387559.0
1778927137.359375,-40.75,,,1388621.0
1778927137.375,-15.34,,,1388646.0
1778927137.390625,6.98,,,1387634.0
1778927137.40625,24.93,,,1386763.0
1778927137.421875,38.14,,,1385944.0
1778927137.4375,46.99,,,1385003.0
1778927137.453125,52.24,,,1383885.0
1778927137.46875,54.76,,,1383371.0
1778927137.484375,55.39,,,1383250.0
1778927137.5,54.79,,,1383314.0
1778927137.515625,53.44,,,1382841.0
1778927137.53125,51.52,,,1382604.0
1778927137.546875,49.06,,,1382583.0
1778927137.5625,45.93,,,1382408.0
1778927137.578125,42.12,,,1382058.0
1778927137.59375,37.8,,,1381805.0
1778927137.609375,33.39,,,1381334.0
1778927137.625,29.32,,,1379644.0
1778927137.640625,25.87,,,1376646.0
1778927137.65625,22.96,,,1373594.0
1778927137.671875,20.15,,,1370499.0
1778927137.6875,16.85,,,1368002.0
1778927137.703125,12.43,,,1366919.0
1778927137.71875,6.55,,,1365587.0
1778927137.734375,-0.85,,,1364615.0
1778927137.75,-9.47,,,1363714.0
1778927137.765625,-18.65,,,1363099.0
1778927137.78125,-27.41,,,1363167.0
1778927137.796875,-34.52,,,1363233.0
1778927137.8125,-38.77,,,1363791.0
1778927137.828125,-39.26,,,1364619.0
1778927137.84375,-35.68,,,1365750.0
1778927137.859375,-28.42,,,1365687.0
1778927137.875,-18.42,,,1364916.0
1778927137.890625,-6.92,,,1363710.0
1778927137.90625,4.88,,,1361229.0
1778927137.921875,16.03,,,1362241.0
1778927137.9375,25.85,,,1360513.0
1778927137.953125,33.92,,,1360580.0
1778927137.96875,39.97,,,1360549.0
1778927137.984375,43.91,,,1360502.0
1778927138.0,45.86,,,1360902.0
1778927138.015625,46.16,,,1360862.0
1778927138.03125,45.27,,,1361348.0
1778927138.046875,43.7,,,1362069.0
1778927138.0625,41.88,,,1362621.0
1778927138.078125,40.03,,,1363284.0
1778927138.09375,38.23,,,1364546.0
1778927138.109375,36.43,,,1364724.0
1778927138.125,34.6,,,1362452.0
1778927138.140625,32.74,,,1359433.0
1778927138.15625,30.95,,,1356117.0
1778927138.171875,29.29,,,1352971.0
1778927138.1875,27.78,,,1350912.0
1778927138.203125,26.28,,,1349409.0
1778927138.21875,24.44,,,1348821.0
1778927138.234375,21.83,,,1348153.0
1778927138.25,17.98,,,1346914.0
1778927138.265625,12.68,,,1345078.0
1778927138.28125,6.03,,,1343832.0
1778927138.296875,-1.4,,,1343430.0
1778927138.3125,-8.69,,,1343811.0
1778927138.328125,-14.83,,,1344255.0
1778927138.34375,-18.91,,,1344629.0
1778927138.359375,-20.41,,,1345347.0
1778927138.375,-19.18,,,1345909.0
1778927138.390625,-15.43,,,1344465.0
1778927138.40625,-9.55,,,1342095.0
1778927138.421875,-2.16,,,1340766.0
1778927138.4375,6.05,,,1340354.0
1778927138.453125,14.19,,,1341073.0
1778927138.46875,21.22,,,1341722.0
1778927138.484375,26.16,,,1342568.0
1778927138.5,28.26,,,1343557.0
1778927138.515625,27.36,,,1344864.0
1778927138.53125,23.83,,,1345964.0
1778927138.546875,18.56,,,1347479.0
1778927138.5625,12.58,,,1348630.0
1778927138.578125,6.8,,,1350110.0
1778927138.59375,1.77,,,1351228.0
1778927138.609375,-2.33,,,1352413.0
1778927138.625,-5.57,,,1353362.0
1778927138.640625,-8.23,,,1353016.0
1778927138.65625,-10.65,,,1351777.0
1778927138.671875,-13.29,,,1350214.0
1778927138.6875,-16.47,,,1348851.0
1778927138.703125,-20.32,,,1348320.0
1778927138.71875,-24.6,,,1348192.0
1778927138.734375,-28.72,,,1348362.0
1778927138.75,-31.91,,,1348975.0
1778927138.765625,-33.56,,,1349433.0
1778927138.78125,-33.41,,,1349654.0
1778927138.796875,-31.75,,,1350424.0
1778927138.8125,-29.21,,,1351300.0
1778927138.828125,-26.45,,,1352090.0
1778927138.84375,-23.83,,,1353022.0
1778927138.859375,-21.23,,,1354248.0
1778927138.875,-18.16,,,1354834.0
1778927138.890625,-14.03,,,1354119.0
1778927138.90625,-8.42,,,1352525.0
1778927138.921875,-1.28,,,1351058.0
1778927138.9375,7.18,,,1349852.0
1778927138.953125,16.58,,,1349426.0
1778927138.96875,26.58,,,1349390.0
1778927138.984375,36.87,,,1349547.0
1778927139.0,47.11,,,1349845.0
1778927139.015625,56.77,,,1349739.0
1778927139.03125,65.07,,,1349952.0
1778927139.046875,71.13,,,1350206.0
1778927139.0625,74.18,,,1350820.0
1778927139.078125,73.86,,,1351910.0
1778927139.09375,70.34,,,1352386.0
1778927139.109375,64.32,,,1353432.0
1778927139.125,56.68,,,1353975.0
1778927139.140625,48.23,,,1353185.0
1778927139.15625,39.45,,,1351552.0
1778927139.171875,30.49,,,1350149.0
1778927139.1875,21.25,,,1349055.0
1778927139.203125,11.66,,,1348742.0
1778927139.21875,1.86,,,1348841.0
1778927139.234375,-7.83,,,1349313.0
1778927139.25,-16.91,,,1350015.0
1778927139.265625,-25.02,,,1350565.0
1778927139.28125,-31.96,,,1351302.0
1778927139.296875,-37.76,,,1352152.0
1778927139.3125,-42.5,,,1352978.0
1778927139.328125,-46.28,,,1354475.0
1778927139.34375,-49.06,,,1355899.0
1778927139.359375,-50.81,,,1357476.0
1778927139.375,-51.64,,,1358526.0
1778927139.390625,-51.74,,,1358462.0
1778927139.40625,-51.34,,,1357653.0
1778927139.421875,-50.45,,,1356963.0
1778927139.4375,-48.64,,,1356123.0
1778927139.453125,-45.17,,,1355736.0
1778927139.46875,-39.3,,,1355888.0
1778927139.484375,-30.75,,,1356345.0
1778927139.5,-19.96,,,1356913.0
1778927139.515625,-8.06,,,1357505.0
1778927139.53125,3.61,,,1358362.0
1778927139.546875,14.08,,,1359317.0
1778927139.5625,22.98,,,1360321.0
1778927139.578125,30.53,,,1361785.0
1778927139.59375,37.08,,,1362583.0
1778927139.609375,42.63,,,1363701.0
1778927139.625,46.76,,,1365173.0
1778927139.640625,48.81,,,1365951.0
1778927139.65625,48.29,,,1366255.0
1778927139.671875,45.31,,,1366139.0
1778927139.6875,40.57,,,1366514.0
1778927139.703125,35.12,,,1367040.0
1778927139.71875,29.88,,,1368183.0
1778927139.734375,25.31,,,1369585.0
1778927139.75,21.26,,,1370622.0
1778927139.765625,17.28,,,1371912.0
1778927139.78125,12.89,,,1373129.0
1778927139.796875,7.97,,,1374304.0
1778927139.8125,2.76,,,1375166.0
1778927139.828125,-2.19,,,1376440.0
1778927139.84375,-6.37,,,1377475.0
1778927139.859375,-9.51,,,1379100.0
1778927139.875,-11.72,,,1380339.0
1778927139.890625,-13.26,,,1381046.0
1778927139.90625,-14.33,,,1380975.0
1778927139.921875,-14.84,,,1380629.0
1778927139.9375,-14.36,,,1380192.0
1778927139.953125,-12.34,,,1380300.0
1778927139.96875,-8.3,,,1380725.0
1778927139.984375,-1.98,,,1381791.0
1778927140.0,6.63,,,1382431.0
1778927140.015625,17.38,,,1382713.0
1778927140.03125,30.0,,,1382814.0
1778927140.046875,44.21,,,1382253.0
1778927140.0625,59.59,,,1381941.0
1778927140.078125,75.59,,,1383346.0
1778927140.09375,91.52,,,1384475.0
1778927140.109375,106.62,,,1385444.0
1778927140.125,120.2,,,1385927.0
1778927140.140625,131.88,,,1385698.0
1778927140.15625,141.56,,,1385239.0
1778927140.171875,149.5,,,1384864.0
1778927140.1875,156.06,,,1384309.0
1778927140.203125,161.33,,,1383789.0
1778927140.21875,164.86,,,1383743.0
1778927140.234375,165.52,,,1383437.0
1778927140.25,161.68,,,1382877.0
1778927140.265625,151.59,,,1382534.0
1778927140.28125,133.92,,,1382228.0
1778927140.296875,107.95,,,1382408.0
1778927140.3125,73.68,,,1382765.0
1778927140.328125,31.76,,,1383569.0
1778927140.34375,-16.44,,,1384129.0
1778927140.359375,-68.74,,,1384917.0
1778927140.375,-121.98,,,1385891.0
1778927140.390625,-172.34,,,1386143.0
1778927140.40625,-215.99,,,1386029.0
1778927140.421875,-250.0,,,1385938.0
1778927140.4375,-273.09,,,1385140.0
1778927140.453125,-285.71,,,1385452.0
1778927140.46875,-289.46,,,1384938.0
1778927140.484375,-286.1,,,1384828.0
1778927140.5,-276.92,,,1384682.0
1778927140.515625,-262.41,,,1384451.0
1778927140.53125,-242.79,,,1384535.0
1778927140.546875,-218.55,,,1384626.0
1778927140.5625,-190.87,,,1384861.0
1778927140.578125,-161.46,,,1385294.0
1778927140.59375,-132.03,,,1385615.0
1778927140.609375,-103.67,,,1386057.0
1778927140.625,-76.69,,,1386862.0
1778927140.640625,-50.82,,,1387068.0
1778927140.65625,-25.68,,,1386657.0
1778927140.671875,-1.18,,,1386200.0
1778927140.6875,22.35,,,1385196.0
1778927140.703125,44.39,,,1384269.0
1778927140.71875,64.58,,,1383482.0
1778927140.734375,82.92,,,1383208.0
1778927140.75,99.7,,,1383090.0
1778927140.765625,115.35,,,1383267.0
1778927140.78125,130.18,,,1383223.0
1778927140.796875,144.59,,,1383436.0
1778927140.8125,159.14,,,1383665.0
1778927140.828125,174.52,,,1384372.0
1778927140.84375,191.08,,,1384990.0
1778927140.859375,208.13,,,1385683.0
1778927140.875,223.44,,,1386480.0
1778927140.890625,233.61,,,1387904.0
1778927140.90625,234.98,,,1389106.0
1778927140.921875,225.15,,,1389708.0
1778927140.9375,203.94,,,1389349.0
1778927140.953125,173.65,,,1387939.0
1778927140.96875,138.23,,,1386832.0
1778927140.984375,102.09,,,1385681.0
1778927141.0,69.06,,,1384985.0
1778927141.015625,41.85,,,1384873.0
1778927141.03125,22.16,,,1384566.0
1778927141.046875,10.71,,,1384425.0
1778927141.0625,7.08,,,1385361.0
1778927141.078125,9.45,,,1385966.0
1778927141.09375,14.51,,,1386339.0
1778927141.109375,18.04,,,1386818.0
1778927141.125,16.24,,,1387183.0
1778927141.140625,7.24,,,1386993.0
1778927141.15625,-8.14,,,1386990.0
1778927141.171875,-26.67,,,1386819.0
1778927141.1875,-44.09,,,1385841.0
1778927141.203125,-56.83,,,1384256.0
1778927141.21875,-63.33,,,1383099.0
1778927141.234375,-64.25,,,1382269.0
1778927141.25,-61.67,,,1381580.0
1778927141.265625,-57.91,,,1381284.0
1778927141.28125,-54.57,,,1381050.0
1778927141.296875,-52.3,,,1380712.0
1778927141.3125,-51.22,,,1380508.0
1778927141.328125,-51.47,,,1380428.0
1778927141.34375,-53.32,,,1380170.0
1778927141.359375,-57.01,,,1380074.0
1778927141.375,-62.35,,,1380049.0
1778927141.390625,-68.5,,,1380083.0
1778927141.40625,-74.15,,,1380291.0
1778927141.421875,-78.1,,,1379845.0
1778927141.4375,-79.75,,,1378781.0
1778927141.453125,-79.22,,,1378001.0
1778927141.46875,-77.18,,,1376830.0
1778927141.484375,-74.25,,,1376352.0
1778927141.5,-70.65,,,1375905.0
1778927141.515625,-66.06,,,1375795.0
1778927141.53125,-59.82,,,1375815.0
1778927141.546875,-51.38,,,1375739.0
1778927141.5625,-40.63,,,1375782.0
1778927141.578125,-28.08,,,1376358.0
1778927141.59375,-14.56,,,1377038.0
1778927141.609375,-0.86,,,1378084.0
1778927141.625,12.56,,,1379489.0
1778927141.640625,25.78,,,1381394.0
1778927141.65625,39.15,,,1382875.0
1778927141.671875,52.96,,,1384134.0
1778927141.6875,67.15,,,1385056.0
1778927141.703125,81.2,,,1385953.0
1778927141.71875,94.22,,,1386944.0
1778927141.734375,105.36,,,1388332.0
1778927141.75,113.97,,,1389665.0
1778927141.765625,119.78,,,1390918.0
1778927141.78125,122.78,,,1391984.0
1778927141.796875,123.17,,,1393348.0
1778927141.8125,121.31,,,1394828.0
1778927141.828125,117.73,,,1396075.0
1778927141.84375,113.16,,,1397543.0
1778927141.859375,108.45,,,1399129.0
1778927141.875,104.3,,,1400410.0
1778927141.890625,100.84,,,1401569.0
1778927141.90625,97.49,,,1401854.0
1778927141.921875,92.86,,,1402324.0
1778927141.9375,85.15,,,1402774.0
1778927141.953125,72.72,,,1403017.0
1778927141.96875,54.58,,,1403595.0
1778927141.984375,30.8,,,1403846.0
1778927142.0,2.35,,,1404332.0
1778927142.015625,-29.08,,,1404858.0
1778927142.03125,-61.4,,,1404952.0
1778927142.046875,-92.34,,,1405076.0
1778927142.0625,-119.58,,,1405309.0
1778927142.078125,-140.9,,,1405671.0
1778927142.09375,-154.53,,,1405865.0
1778927142.109375,-159.52,,,1405641.0
1778927142.125,-156.12,,,1404747.0
1778927142.140625,-145.86,,,1403491.0
1778927142.15625,-131.2,,,1401803.0
1778927142.171875,-114.85,,,1400149.0
1778927142.1875,-99.09,,,1398737.0
1778927142.203125,-85.16,,,1397427.0
1778927142.21875,-73.37,,,1396573.0
1778927142.234375,-63.3,,,1395604.0
1778927142.25,-54.47,,,1394833.0
1778927142.265625,-46.8,,,1394227.0
1778927142.28125,-40.62,,,1393791.0
1778927142.296875,-36.56,,,1393252.0
1778927142.3125,-35.09,,,1392953.0
1778927142.328125,-36.19,,,1392601.0
1778927142.34375,-39.29,,,1391694.0
1778927142.359375,-43.45,,,1390208.0
1778927142.375,-47.69,,,1388073.0
1778927142.390625,-51.09,,,1386159.0
1778927142.40625,-52.89,,,1384625.0
1778927142.421875,-52.39,,,1383061.0
1778927142.4375,-49.09,,,1382385.0
1778927142.453125,-42.99,,,1381365.0
1778927142.46875,-34.79,,,1380467.0
1778927142.484375,-25.99,,,1379875.0
1778927142.5,-18.39,,,1379340.0
1778927142.515625,-13.43,,,1379116.0
1778927142.53125,-11.59,,,1379253.0
1778927142.546875,-12.18,,,1379443.0
1778927142.5625,-13.75,,,1379622.0
1778927142.578125,-14.66,,,1380229.0
1778927142.59375,-13.76,,,1380251.0
1778927142.609375,-10.66,,,1378884.0
1778927142.625,-5.6,,,1378704.0
1778927142.640625,0.81,,,1379902.0
1778927142.65625,7.95,,,1378909.0
1778927142.671875,15.35,,,1379229.0
1778927142.6875,22.81,,,1378973.0
1778927142.703125,30.37,,,1378893.0
1778927142.71875,38.24,,,1378836.0
1778927142.734375,46.65,,,1379204.0
1778927142.75,55.5,,,1380464.0
1778927142.765625,64.22,,,1383159.0
1778927142.78125,71.63,,,1385270.0
1778927142.796875,76.27,,,1387061.0
1778927142.8125,76.83,,,1388280.0
1778927142.828125,72.63,,,1389770.0
1778927142.84375,63.71,,,1389869.0
1778927142.859375,50.77,,,1389513.0
1778927142.875,34.7,,,1388478.0
1778927142.890625,16.41,,,1387648.0
1778927142.90625,-3.21,,,1386709.0
1778927142.921875,-23.11,,,1385884.0
1778927142.9375,-41.85,,,1384975.0
1778927142.953125,-57.76,,,1384092.0
1778927142.96875,-69.26,,,1383678.0
1778927142.984375,-75.42,,,1383380.0
1778927143.0,-76.34,,,1383401.0
1778927143.015625,-73.0,,,1383429.0
1778927143.03125,-66.92,,,1383193.0
1778927143.046875,-59.58,,,1382876.0
1778927143.0625,-51.95,,,1382573.0
1778927143.078125,-44.42,,,1381771.0
1778927143.09375,-36.87,,,1379795.0
1778927143.109375,-28.96,,,1377493.0
1778927143.125,-20.28,,,1367828.0
1778927143.140625,-10.37,,,1365930.0
1778927143.15625,1.13,,,1369884.0
1778927143.171875,14.48,,,1372005.0
1778927143.1875,29.64,,,1374674.0
1778927143.203125,46.29,,,1364683.0
1778927143.21875,63.87,,,1365221.0
1778927143.234375,81.88,,,1363809.0
1778927143.25,100.01,,,1360760.0
1778927143.265625,118.1,,,1361995.0
1778927143.28125,135.83,,,1360565.0
1778927143.296875,152.33,,,1360610.0
1778927143.3125,166.11,,,1359906.0
1778927143.328125,175.39,,,1359068.0
1778927143.34375,178.75,,,1357081.0
1778927143.359375,175.79,,,1358634.0
1778927143.375,167.37,,,1355034.0
1778927143.390625,155.32,,,1352784.0
1778927143.40625,141.69,,,1350879.0
1778927143.421875,128.16,,,1349641.0
1778927143.4375,115.93,,,1348887.0
1778927143.453125,105.93,,,1348294.0
1778927143.46875,99.03,,,1347841.0
1778927143.484375,95.86,,,1347353.0
1778927143.5,96.13,,,1346959.0
1778927143.515625,98.02,,,1347126.0
1778927143.53125,98.24,,,1348053.0
1778927143.546875,92.9,,,1348955.0
1778927143.5625,78.93,,,1349681.0
1778927143.578125,55.27,,,1350186.0
1778927143.59375,23.05,,,1351036.0
1778927143.609375,-15.45,,,1352156.0
1778927143.625,-58.18,,,1352782.0
1778927143.640625,-104.1,,,1352320.0
1778927143.65625,-152.73,,,1351643.0
1778927143.671875,-202.77,,,1350962.0
1778927143.6875,-250.9,,,1350403.0
1778927143.703125,-291.75,,,1350440.0
1778927143.71875,-319.63,,,1351150.0
1778927143.734375,-330.75,,,1351276.0
1778927143.75,-325.07,,,1351572.0
1778927143.765625,-306.28,,,1352604.0
1778927143.78125,-280.15,,,1353648.0
1778927143.796875,-252.11,,,1354672.0
1778927143.8125,-225.47,,,1356145.0
1778927143.828125,-200.92,,,1357469.0
1778927143.84375,-177.63,,,1358061.0
1778927143.859375,-154.77,,,1358775.0
1778927143.875,-132.68,,,1358801.0
1778927143.890625,-112.77,,,1357393.0
1778927143.90625,-96.71,,,1355212.0
1778927143.921875,-85.3,,,1352804.0
1778927143.9375,-77.95,,,1350979.0
1778927143.953125,-72.94,,,1349683.0
1778927143.96875,-68.25,,,1348734.0
1778927143.984375,-62.55,,,1348165.0
1778927144.0,-55.65,,,1347751.0
1778927144.015625,-48.49,,,1347629.0
1778927144.03125,-42.4,,,1347574.0
1778927144.046875,-38.35,,,1347683.0
1778927144.0625,-36.44,,,1347763.0
1778927144.078125,-35.88,,,1348079.0
1778927144.09375,-35.51,,,1348558.0
1778927144.109375,-34.48,,,1348865.0
1778927144.125,-32.74,,,1348959.0
1778927144.140625,-31.1,,,1348050.0
1778927144.15625,-30.77,,,1346112.0
1778927144.171875,-32.7,,,1343936.0
1778927144.1875,-37.01,,,1341868.0
1778927144.203125,-42.73,,,1340355.0
1778927144.21875,-48.09,,,1339280.0
1778927144.234375,-51.04,,,1338817.0
1778927144.25,-49.91,,,1339041.0
1778927144.265625,-43.88,,,1339314.0
1778927144.28125,-33.16,,,1338986.0
1778927144.296875,-18.79,,,1338877.0
1778927144.3125,-2.22,,,1338449.0
1778927144.328125,15.04,,,1338026.0
1778927144.34375,31.71,,,1337618.0
1778927144.359375,46.85,,,1337611.0
1778927144.375,59.79,,,1337854.0
1778927144.390625,70.03,,,1337631.0
1778927144.40625,77.3,,,1335965.0
1778927144.421875,81.52,,,1332825.0
1778927144.4375,82.91,,,1330285.0
1778927144.453125,82.0,,,1329060.0
1778927144.46875,79.5,,,1329026.0
1778927144.484375,76.09,,,1328390.0
1778927144.5,72.32,,,1327517.0
1778927144.515625,68.46,,,1326142.0
1778927144.53125,64.54,,,1326034.0
1778927144.546875,60.47,,,1326551.0
1778927144.5625,56.1,,,1326687.0
1778927144.578125,51.41,,,1325988.0
1778927144.59375,46.51,,,1324648.0
1778927144.609375,41.69,,,1324385.0
1778927144.625,37.26,,,1325110.0
1778927144.640625,33.46,,,1325536.0
1778927144.65625,30.25,,,1324674.0
1778927144.671875,27.26,,,1322294.0
1778927144.6875,23.93,,,1320636.0
1778927144.703125,19.61,,,1319653.0
1778927144.71875,13.94,,,1318493.0
1778927144.734375,6.96,,,1317200.0
1778927144.75,-0.8,,,1316044.0
1778927144.765625,-8.38,,,1315932.0
1778927144.78125,-14.54,,,1316054.0
1778927144.796875,-18.09,,,1316693.0
1778927144.8125,-18.1,,,1317026.0
1778927144.828125,-14.22,,,1316507.0
1778927144.84375,-6.71,,,1316354.0
1778927144.859375,3.58,,,1317874.0
1778927144.875,15.43,,,1319209.0
1778927144.890625,27.58,,,1321171.0
1778927144.90625,38.94,,,1321707.0
1778927144.921875,48.76,,,1320550.0
1778927144.9375,56.44,,,1319007.0
1778927144.953125,61.59,,,1318078.0
1778927144.96875,63.85,,,1317505.0
1778927144.984375,63.09,,,1317284.0
1778927145.0,59.53,,,1317722.0
1778927145.015625,53.76,,,1318764.0
1778927145.03125,46.74,,,1319766.0
1778927145.046875,39.41,,,1321468.0
1778927145.0625,32.54,,,1322377.0
1778927145.078125,26.48,,,1323715.0
1778927145.09375,21.23,,,1327352.0
1778927145.109375,16.62,,,1348119.0
1778927145.125,12.5,,,1381070.0
1778927145.140625,8.86,,,1411750.0
1778927145.15625,5.86,,,1443188.0
1778927145.171875,3.7,,,1482464.0
1778927145.1875,2.51,,,1523794.0
1778927145.203125,2.25,,,1557868.0
1778927145.21875,2.53,,,1581868.0
1778927145.234375,2.69,,,1601088.0
1778927145.25,1.94,,,1623182.0
1778927145.265625,-0.52,,,1639257.0
1778927145.28125,-5.21,,,1642241.0
1778927145.296875,-12.2,,,1641427.0
1778927145.3125,-20.99,,,1639958.0
1778927145.328125,-30.47,,,1639194.0
1778927145.34375,-39.18,,,1638697.0
1778927145.359375,-45.48,,,1637175.0
1778927145.375,-48.07,,,1634411.0
1778927145.390625,-46.28,,,1631895.0
1778927145.40625,-40.34,,,1629673.0
1778927145.421875,-31.35,,,1628487.0
1778927145.4375,-20.91,,,1628612.0
1778927145.453125,-10.63,,,1628079.0
1778927145.46875,-1.64,,,1627783.0
1778927145.484375,5.61,,,1627334.0
1778927145.5,11.21,,,1627922.0
1778927145.515625,15.52,,,1628580.0
1778927145.53125,18.74,,,1629038.0
1778927145.546875,20.8,,,1629365.0
1778927145.5625,21.4,,,1629290.0
1778927145.578125,20.26,,,1628935.0
1778927145.59375,17.33,,,1628340.0
1778927145.609375,12.88,,,1627256.0
1778927145.625,7.4,,,1626197.0
1778927145.640625,1.33,,,1625451.0
1778927145.65625,-4.96,,,1625033.0
1778927145.671875,-11.33,,,1625278.0
1778927145.6875,-17.66,,,1625548.0
1778927145.703125,-23.78,,,1625476.0
1778927145.71875,-29.53,,,1625442.0
1778927145.734375,-34.85,,,1625471.0
1778927145.75,-39.97,,,1625346.0
1778927145.765625,-45.5,,,1624956.0
1778927145.78125,-52.31,,,1624723.0
1778927145.796875,-61.13,,,1624654.0
1778927145.8125,-72.16,,,1624109.0
1778927145.828125,-84.63,,,1622815.0
1778927145.84375,-96.86,,,1621856.0
1778927145.859375,-106.56,,,1621249.0
1778927145.875,-111.59,,,1621081.0
1778927145.890625,-110.49,,,1621060.0
1778927145.90625,-102.99,,,1621009.0
1778927145.921875,-89.9,,,1621010.0
1778927145.9375,-72.76,,,1620440.0
1778927145.953125,-53.19,,,1620352.0
1778927145.96875,-32.44,,,1620536.0
1778927145.984375,-11.3,,,1620782.0
1778927146.0,9.74,,,1621564.0
1778927146.015625,30.11,,,1621845.0
1778927146.03125,48.9,,,1621526.0
1778927146.046875,64.95,,,1620068.0
1778927146.0625,77.23,,,1619005.0
1778927146.078125,85.24,,,1618182.0
1778927146.09375,89.29,,,1617404.0
1778927146.109375,90.36,,,1617545.0
1778927146.125,89.67,,,1617631.0
1778927146.140625,88.15,,,1618042.0
1778927146.15625,86.22,,,1618145.0
1778927146.171875,83.78,,,1618138.0
1778927146.1875,80.71,,,1618736.0
1778927146.203125,77.1,,,1619143.0
1778927146.21875,73.45,,,1619696.0
1778927146.234375,70.37,,,1620389.0
1778927146.25,68.15,,,1620108.0
1778927146.265625,66.43,,,1619177.0
1778927146.28125,64.31,,,1618060.0
1778927146.296875,60.71,,,1616725.0
1778927146.3125,54.86,,,1616215.0
1778927146.328125,46.69,,,1615819.0
1778927146.34375,36.8,,,1615629.0
1778927146.359375,26.33,,,1615510.0
1778927146.375,16.63,,,1615357.0
1778927146.390625,8.99,,,1615061.0
1778927146.40625,4.49,,,1614996.0
1778927146.421875,3.88,,,1615186.0
1778927146.4375,7.45,,,1615337.0
1778927146.453125,15.0,,,1615597.0
1778927146.46875,25.88,,,1615907.0
1778927146.484375,39.09,,,1616263.0
1778927146.5,53.43,,,1615970.0
1778927146.515625,67.66,,,1614735.0
1778927146.53125,80.57,,,1612843.0
1778927146.546875,90.98,,,1611479.0
1778927146.5625,97.88,,,1610465.0
1778927146.578125,100.49,,,1609978.0
1778927146.59375,98.48,,,1609491.0
1778927146.609375,92.1,,,1609304.0
1778927146.625,82.17,,,1609017.0
1778927146.640625,69.89,,,1608457.0
1778927146.65625,56.44,,,1607428.0
1778927146.671875,42.73,,,1605836.0
1778927146.6875,29.22,,,1605201.0
1778927146.703125,15.97,,,1605384.0
1778927146.71875,2.87,,,1605250.0
1778927146.734375,-10.08,,,1605359.0
1778927146.75,-22.67,,,1605490.0
1778927146.765625,-34.46,,,1605887.0
1778927146.78125,-45.01,,,1606517.0
1778927146.796875,-54.11,,,1605560.0
1778927146.8125,-61.9,,,1603656.0
1778927146.828125,-68.81,,,1601433.0
1778927146.84375,-75.39,,,1599612.0
1778927146.859375,-82.14,,,1598348.0
1778927146.875,-89.33,,,1597749.0
1778927146.890625,-97.0,,,1597105.0
1778927146.90625,-104.85,,,1596291.0
1778927146.921875,-112.25,,,1595328.0
1778927146.9375,-118.21,,,1594765.0
1778927146.953125,-121.45,,,1594178.0
1778927146.96875,-120.65,,,1593657.0
1778927146.984375,-114.9,,,1593037.0
1778927147.0,-104.01,,,1592595.0
1778927147.015625,-88.63,,,1592922.0
1778927147.03125,-70.09,,,1593399.0
1778927147.046875,-49.98,,,1593814.0
1778927147.0625,-29.75,,,1594320.0
1778927147.078125,-10.49,,,1594063.0
1778927147.09375,7.05,,,1592802.0
1778927147.109375,22.35,,,1591859.0
1778927147.125,34.99,,,1591431.0
1778927147.140625,44.65,,,1590891.0
1778927147.15625,51.22,,,1590857.0
1778927147.171875,54.79,,,1590961.0
1778927147.1875,55.73,,,1591112.0
1778927147.203125,54.42,,,1590979.0
1778927147.21875,51.18,,,1591183.0
1778927147.234375,46.24,,,1591113.0
1778927147.25,39.81,,,1591568.0
1778927147.265625,32.26,,,1591978.0
1778927147.28125,24.2,,,1592630.0
1778927147.296875,16.35,,,1593194.0
1778927147.3125,9.33,,,1593206.0
1778927147.328125,3.49,,,1593519.0
1778927147.34375,-1.26,,,1592590.0
1778927147.359375,-5.25,,,1591361.0
1778927147.375,-8.92,,,1590163.0
1778927147.390625,-12.7,,,1589034.0
1778927147.40625,-16.99,,,1588235.0
1778927147.421875,-22.16,,,1587904.0
1778927147.4375,-28.69,,,1587663.0
1778927147.453125,-36.86,,,1587547.0
1778927147.46875,-46.5,,,1587264.0
1778927147.484375,-56.76,,,1587097.0
1778927147.5,-66.13,,,1587024.0
1778927147.515625,-72.74,,,1587221.0
1778927147.53125,-74.95,,,1587351.0
1778927147.546875,-71.88,,,1587860.0
1778927147.5625,-63.61,,,1588470.0
1778927147.578125,-51.07,,,1589111.0
1778927147.59375,-35.68,,,1589221.0
1778927147.609375,-18.84,,,1588192.0
1778927147.625,-1.73,,,1586292.0
1778927147.640625,14.72,,,1584739.0
1778927147.65625,29.8,,,1583278.0
1778927147.671875,42.75,,,1581745.0
1778927147.6875,52.91,,,1580721.0
1778927147.703125,59.83,,,1579771.0
1778927147.71875,63.43,,,1579068.0
1778927147.734375,64.1,,,1578668.0
1778927147.75,62.6,,,1578653.0
1778927147.765625,59.79,,,1578511.0
1778927147.78125,56.34,,,1578439.0
1778927147.796875,52.52,,,1578288.0
1778927147.8125,48.23,,,1578396.0
1778927147.828125,43.17,,,1578125.0
1778927147.84375,37.17,,,1577674.0
1778927147.859375,30.35,,,1576832.0
1778927147.875,23.16,,,1574509.0
1778927147.890625,16.21,,,1572223.0
1778927147.90625,9.98,,,1570105.0
1778927147.921875,4.59,,,1568050.0
1778927147.9375,-0.33,,,1566409.0
1778927147.953125,-5.47,,,1565601.0
1778927147.96875,-11.56,,,1564708.0
1778927147.984375,-19.07,,,1563963.0
1778927148.0,-27.99,,,1562663.0
1778927148.015625,-37.77,,,1561801.0
1778927148.03125,-47.47,,,1560877.0
1778927148.046875,-55.84,,,1559967.0
1778927148.0625,-61.56,,,1559435.0
1778927148.078125,-63.44,,,1558972.0
1778927148.09375,-60.65,,,1558691.0
1778927148.109375,-52.84,,,1558193.0
1778927148.125,-40.35,,,1556929.0
1778927148.140625,-24.14,,,1554331.0
1778927148.15625,-5.72,,,1551280.0
1778927148.171875,13.15,,,1548731.0
1778927148.1875,30.69,,,1546894.0
1778927148.203125,45.37,,,1545641.0
1778927148.21875,56.23,,,1544614.0
1778927148.234375,62.96,,,1543852.0
1778927148.25,66.05,,,1543179.0
1778927148.265625,66.72,,,1542103.0
1778927148.28125,66.62,,,1541203.0
1778927148.296875,67.43,,,1540419.0
1778927148.3125,70.15,,,1539666.0
1778927148.328125,74.73,,,1539083.0
1778927148.34375,79.94,,,1538970.0
1778927148.359375,83.78,,,1539302.0
1778927148.375,84.31,,,1539946.0
1778927148.390625,80.54,,,1539626.0
1778927148.40625,72.93,,,1538279.0
1778927148.421875,63.22,,,1536788.0
1778927148.4375,53.78,,,1535609.0
1778927148.453125,46.53,,,1534867.0
1778927148.46875,42.32,,,1534791.0
1778927148.484375,40.63,,,1534681.0
1778927148.5,40.04,,,1534731.0
1778927148.515625,38.91,,,1535074.0
1778927148.53125,35.96,,,1535551.0
1778927148.546875,30.55,,,1536005.0
1778927148.5625,22.66,,,1536531.0
1778927148.578125,12.91,,,1537886.0
1778927148.59375,2.69,,,1538728.0
1778927148.609375,-5.82,,,1540342.0
1778927148.625,-9.98,,,1541900.0
1778927148.640625,-7.8,,,1541795.0
1778927148.65625,0.6,,,1541199.0
1778927148.671875,12.15,,,1540861.0
1778927148.6875,21.21,,,1540310.0
1778927148.703125,21.62,,,1539406.0
1778927148.71875,9.4,,,1539212.0
1778927148.734375,-15.09,,,1538746.0
1778927148.75,-47.02,,,1538482.0
1778927148.765625,-78.91,,,1538160.0
1778927148.78125,-103.68,,,1538359.0
1778927148.796875,-117.15,,,1538961.0
1778927148.8125,-118.78,,,1539294.0
1778927148.828125,-110.74,,,1539285.0
1778927148.84375,-95.96,,,1539407.0
1778927148.859375,-76.86,,,1539614.0
1778927148.875,-55.06,,,1537151.0
1778927148.890625,-32.1,,,1533429.0
1778927148.90625,-10.16,,,1529435.0
1778927148.921875,8.04,,,1523455.0
1778927148.9375,20.12,,,1526083.0
1778927148.953125,25.13,,,1521760.0
1778927148.96875,24.14,,,1518765.0
1778927148.984375,19.76,,,1520164.0
1778927149.0,14.97,,,1517187.0
1778927149.015625,11.81,,,1515300.0
1778927149.03125,10.79,,,1513516.0
1778927149.046875,11.04,,,1511964.0
1778927149.0625,11.2,,,1510698.0
1778927149.078125,10.15,,,1509555.0
1778927149.09375,7.5,,,1508419.0
1778927149.109375,3.41,,,1505999.0
1778927149.125,-1.73,,,1501619.0
1778927149.140625,-7.72,,,1496519.0
1778927149.15625,-14.51,,,1491820.0
1778927149.171875,-22.08,,,1488513.0
1778927149.1875,-29.99,,,1485847.0
1778927149.203125,-37.28,,,1484023.0
1778927149.21875,-42.68,,,1479641.0
1778927149.234375,-44.91,,,1481841.0
1778927149.25,-43.18,,,1477750.0
1778927149.265625,-37.45,,,1475666.0
1778927149.28125,-28.43,,,1473955.0
1778927149.296875,-17.31,,,1472907.0
1778927149.3125,-5.39,,,1683499.0
1778927149.328125,6.14,,,1683819.0
1778927149.34375,16.31,,,1684230.0
1778927149.359375,24.38,,,1683796.0
1778927149.375,29.82,,,1681993.0
1778927149.390625,32.34,,,1680515.0
1778927149.40625,32.04,,,1683469.0
1778927149.421875,29.51,,,1678696.0
1778927149.4375,25.73,,,1679503.0
1778927149.453125,21.79,,,1678412.0
1778927149.46875,18.51,,,1678611.0
1778927149.484375,16.19,,,1678626.0
1778927149.5,14.55,,,1678545.0
1778927149.515625,13.0,,,1678558.0
1778927149.53125,11.0,,,1678821.0
1778927149.546875,8.35,,,1679109.0
1778927149.5625,5.3,,,1679750.0
1778927149.578125,2.3,,,1678568.0
1778927149.59375,-0.19,,,1679521.0
1778927149.609375,-2.08,,,1678914.0
1778927149.625,-3.54,,,1676949.0
1778927149.640625,-5.05,,,1675200.0
1778927149.65625,-7.12,,,1673720.0
1778927149.671875,-10.18,,,1672675.0
1778927149.6875,-14.49,,,1671934.0
1778927149.703125,-20.05,,,1671814.0
1778927149.71875,-26.5,,,1671594.0
1778927149.734375,-33.06,,,1671140.0
1778927149.75,-38.5,,,1670999.0
1778927149.765625,-41.4,,,1670826.0
1778927149.78125,-40.52,,,1670395.0
1778927149.796875,-35.26,,,1670455.0
1778927149.8125,-25.85,,,1670424.0
1778927149.828125,-13.38,,,1670490.0
1778927149.84375,0.58,,,1669068.0
1778927149.859375,14.4,,,1666932.0
1778927149.875,26.78,,,1664830.0
1778927149.890625,36.96,,,1663180.0
1778927149.90625,44.64,,,1661882.0
1778927149.921875,49.86,,,1660979.0
1778927149.9375,52.79,,,1660362.0
1778927149.953125,53.65,,,1659978.0
1778927149.96875,52.68,,,1659437.0
1778927149.984375,50.14,,,1658820.0
1778927150.0,46.35,,,1658199.0
1778927150.015625,41.7,,,1657428.0
1778927150.03125,36.59,,,1656854.0
1778927150.046875,31.4,,,1656801.0
1778927150.0625,26.41,,,1657051.0
1778927150.078125,21.78,,,1657407.0
1778927150.09375,17.51,,,1656547.0
1778927150.109375,13.54,,,1654517.0
1778927150.125,9.81,,,1652377.0
1778927150.140625,6.32,,,1650350.0
1778927150.15625,3.12,,,1649103.0
1778927150.171875,0.2,,,1648057.0
1778927150.1875,-2.57,,,1647666.0
1778927150.203125,-5.55,,,1647449.0
1778927150.21875,-9.18,,,1646689.0
1778927150.234375,-13.73,,,1646353.0
1778927150.25,-19.0,,,1645949.0
1778927150.265625,-24.19,,,1645709.0
1778927150.28125,-27.97,,,1645606.0
1778927150.296875,-28.75,,,1645730.0
1778927150.3125,-25.23,,,1645932.0
1778927150.328125,-16.78,,,1644407.0
1778927150.34375,-3.72,,,1646035.0
1778927150.359375,12.76,,,1639939.0
1778927150.375,30.92,,,1642157.0
1778927150.390625,48.89,,,1636764.0
1778927150.40625,65.09,,,1638342.0
1778927150.421875,78.46,,,1635876.0
1778927150.4375,88.62,,,1634250.0
1778927150.453125,95.76,,,1635239.0
1778927150.46875,100.47,,,1633068.0
1778927150.484375,103.41,,,1633530.0
1778927150.5,105.0,,,1632469.0
1778927150.515625,105.34,,,1632066.0
1778927150.53125,104.18,,,1631937.0
1778927150.546875,101.26,,,1631767.0
1778927150.5625,96.6,,,1631739.0
1778927150.578125,90.64,,,1631621.0
1778927150.59375,84.07,,,1631080.0
1778927150.609375,77.51,,,1629008.0
1778927150.625,71.39,,,1626333.0
1778927150.640625,66.07,,,1623715.0
1778927150.65625,62.4,,,1621461.0
1778927150.671875,61.88,,,1619688.0
1778927150.6875,66.36,,,1618604.0
