timestamp,bvp,eda,temp,PPG GREEN
1708002554.671875,-37.92,5.782586,36.27,2148250.0
1708002554.6875,-42.3,5.536644,36.27,2148783.0
1708002554.703125,-45.15,5.674986,36.27,2151142.0
1708002554.71875,-45.76,5.915804,36.27,2152361.0
1708002554.734375,-43.54,5.901714,36.27,2153737.0
1708002554.75,-38.19,5.954233,36.27,2153863.0
1708002554.765625,-29.91,5.941423,36.33,2153813.0
1708002554.78125,-19.44,5.941423,36.33,2154024.0
1708002554.796875,-7.97,5.956795,36.33,2150088.0
1708002554.8125,3.2,5.981133,36.33,2154612.0
1708002554.828125,12.92,6.008032,36.27,2156778.0
1708002554.84375,20.52,6.031089,36.27,2158024.0
1708002554.859375,25.83,6.054146,36.27,2155715.0
1708002554.875,29.06,6.068237,36.27,2159169.0
1708002554.890625,30.55,6.093856,36.25,2159852.0
1708002554.90625,30.59,6.123317,36.25,2161283.0
1708002554.921875,29.29,6.143813,36.25,2163202.0
1708002554.9375,26.67,6.137408,36.25,2164402.0
1708002554.953125,22.89,6.115632,36.25,2166295.0
1708002554.96875,18.25,6.105384,36.25,2169048.0
1708002554.984375,13.32,6.102822,36.25,2161978.0
1708002555.0,8.72,6.084889,36.25,2160763.0
1708002555.015625,4.94,6.078485,36.23,2172201.0
1708002555.03125,2.18,6.075922,36.23,2175535.0
1708002555.046875,0.31,6.065675,36.23,2179003.0
1708002555.0625,-1.06,6.046461,36.23,2181359.0
1708002555.078125,-2.34,6.024684,36.21,2184968.0
1708002555.09375,-3.84,6.00547,36.21,2187524.0
1708002555.109375,-5.62,5.996504,36.21,2190230.0
1708002555.125,-7.56,5.970885,36.21,2193582.0
1708002555.140625,-9.52,5.963199,36.23,2195820.0
1708002555.15625,-11.5,5.951671,36.23,2200672.0
1708002555.171875,-13.67,5.93758,36.23,2198523.0
1708002555.1875,-16.43,5.940142,36.23,2200524.0
1708002555.203125,-20.25,5.942704,36.23,2201089.0
1708002555.21875,-25.49,5.924771,36.23,2198066.0
1708002555.234375,-32.38,5.895309,36.23,2193668.0
1708002555.25,-40.9,5.9094,36.23,2186418.0
1708002555.265625,-50.87,5.88378,36.21,2178050.0
1708002555.28125,-61.9,5.885062,36.21,2170674.0
1708002555.296875,-73.36,5.902995,36.21,2163380.0
1708002555.3125,-84.48,5.872252,36.21,2156247.0
1708002555.328125,-94.57,5.867128,36.18,2151012.0
1708002555.34375,-103.34,5.826138,36.18,2147648.0
1708002555.359375,-111.15,5.821014,36.18,2144364.0
1708002555.375,-119.02,5.8287,36.18,2141564.0
1708002555.390625,-128.1,5.838948,36.18,2138553.0
1708002555.40625,-139.05,5.835104,36.18,2132877.0
1708002555.421875,-151.58,5.792833,36.18,2135273.0
1708002555.4375,-164.48,5.759529,36.18,2131027.0
1708002555.453125,-176.18,5.753124,36.21,2129387.0
1708002555.46875,-185.53,5.746719,36.21,2128303.0
1708002555.484375,-192.34,5.750562,36.21,2126877.0
1708002555.5,-197.32,5.749281,36.21,2125442.0
1708002555.515625,-201.63,5.737753,36.21,2124002.0
1708002555.53125,-206.36,5.726224,36.21,2124304.0
1708002555.546875,-212.11,5.710853,36.21,2121998.0
1708002555.5625,-218.97,5.712134,36.21,2120492.0
1708002555.578125,-226.45,5.701886,36.21,2119577.0
1708002555.59375,-233.65,5.700605,36.21,2118974.0
1708002555.609375,-239.2,5.712134,36.21,2118767.0
1708002555.625,-241.47,5.713415,36.21,2118627.0
1708002555.640625,-238.9,5.709572,36.18,2118695.0
1708002555.65625,-230.54,5.705729,36.18,2118090.0
1708002555.671875,-216.3,5.703167,36.18,2117942.0
1708002555.6875,-196.81,5.696763,36.18,2117860.0
1708002555.703125,-172.99,5.691639,36.21,2118099.0
1708002555.71875,-145.45,5.672425,36.21,2117990.0
1708002555.734375,-114.32,5.681391,36.21,2116788.0
1708002555.75,-79.44,5.685234,36.21,2114793.0
1708002555.765625,-40.93,5.731348,36.18,2115637.0
1708002555.78125,0.5,5.805643,36.18,2118401.0
1708002555.796875,43.55,5.81589,36.18,2121651.0
1708002555.8125,86.84,5.795395,36.18,2127603.0
1708002555.828125,129.51,5.781305,36.16,2133089.0
1708002555.84375,171.51,5.780024,36.16,2138293.0
1708002555.859375,213.61,5.777462,36.16,2144074.0
1708002555.875,257.18,5.785148,36.16,2148964.0
1708002555.890625,303.86,5.785148,36.13,2151123.0
1708002555.90625,355.09,5.7749,36.13,2152397.0
1708002555.921875,411.36,5.759529,36.13,2153583.0
1708002555.9375,471.39,5.754405,36.13,2154562.0
1708002555.953125,531.47,5.764653,36.03,2156080.0
1708002555.96875,585.75,5.755686,36.03,2157603.0
1708002555.984375,627.42,5.759529,36.03,2158580.0
1708002556.0,650.85,5.759529,36.03,2160053.0
1708002556.015625,653.52,5.767215,35.97,2161719.0
1708002556.03125,636.95,5.773619,35.97,2163136.0
1708002556.046875,606.06,5.762091,35.97,2164659.0
1708002556.0625,567.35,5.715977,35.97,2165963.0
1708002556.078125,526.71,5.718539,35.95,2165562.0
1708002556.09375,488.06,5.735191,35.95,2164054.0
1708002556.109375,452.94,5.768496,35.95,2162676.0
1708002556.125,421.18,5.791553,35.95,2162024.0
1708002556.140625,391.82,5.805643,35.91,2161612.0
1708002556.15625,363.73,5.823576,35.91,2161933.0
1708002556.171875,335.8,5.819733,35.91,2162195.0
1708002556.1875,306.85,5.777462,35.91,2162531.0
1708002556.203125,275.73,5.765934,35.89,2161966.0
1708002556.21875,241.42,5.785148,35.89,2161608.0
1708002556.234375,203.47,5.768496,35.89,2161743.0
1708002556.25,162.19,5.831262,35.89,2162211.0
1708002556.265625,118.57,5.858162,35.91,2162239.0
1708002556.28125,74.06,5.888905,35.91,2162368.0
1708002556.296875,29.96,5.92349,35.91,2162390.0
1708002556.3125,-13.08,5.958076,35.91,2162639.0
1708002556.328125,-55.44,5.996504,35.89,2162800.0
1708002556.34375,-98.26,6.024684,35.89,2162951.0
1708002556.359375,-142.77,6.07336,35.89,2162760.0
1708002556.375,-189.06,6.096417,35.89,2163155.0
1708002556.390625,-235.28,6.101542,35.89,2161750.0
1708002556.40625,-277.63,6.090013,35.89,2152264.0
1708002556.421875,-311.37,5.993942,35.89,2136109.0
1708002556.4375,-332.61,5.979852,35.89,2126140.0
1708002556.453125,-339.89,5.952952,35.89,2118271.0
1708002556.46875,-334.75,5.928614,35.89,2111493.0
1708002556.484375,-321.03,5.922209,35.89,2107588.0
1708002556.5,-303.32,5.901714,35.89,2105629.0
1708002556.515625,-285.15,5.8825,35.91,2105164.0
1708002556.53125,-268.23,5.864566,35.91,2105071.0
1708002556.546875,-252.52,5.845352,35.91,2104588.0
1708002556.5625,-237.22,5.833824,35.91,2103376.0
1708002556.578125,-221.77,5.842791,35.89,2101976.0
1708002556.59375,-206.27,5.8287,35.89,2100246.0
1708002556.609375,-191.27,5.827419,35.89,2098329.0
1708002556.625,-177.28,5.790272,35.89,2097803.0
1708002556.640625,-164.33,5.791553,35.91,2097934.0
1708002556.65625,-152.05,5.785148,35.91,2097157.0
1708002556.671875,-139.98,5.769776,35.91,2096263.0
1708002556.6875,-127.97,5.767215,35.91,2096188.0
1708002556.703125,-116.26,5.763372,35.87,2096020.0
1708002556.71875,-105.48,5.767215,35.87,2096130.0
1708002556.734375,-96.28,5.753124,35.87,2096808.0
1708002556.75,-88.98,5.764653,35.87,2097516.0
1708002556.765625,-83.46,5.7749,35.91,2098258.0
1708002556.78125,-79.2,5.763372,35.91,2098725.0
1708002556.796875,-75.52,5.742877,35.91,2099394.0
1708002556.8125,-71.85,5.731348,35.91,2098725.0
1708002556.828125,-67.93,5.718539,35.89,2096367.0
1708002556.84375,-63.87,5.712134,35.89,2094839.0
1708002556.859375,-60.01,5.710853,35.89,2096110.0
1708002556.875,-56.8,5.704448,35.89,2105194.0
1708002556.890625,-54.58,5.703167,35.87,2114521.0
1708002556.90625,-53.49,5.698043,35.87,2121525.0
1708002556.921875,-53.46,5.687796,35.87,2127364.0
1708002556.9375,-54.26,5.673706,35.87,2132677.0
1708002556.953125,-55.56,5.663458,35.89,2135985.0
1708002556.96875,-56.96,5.651929,35.89,2138030.0
1708002556.984375,-58.03,5.660896,35.89,2139048.0
1708002557.0,-58.23,5.649368,35.89,2139934.0
1708002557.015625,-56.99,5.655772,35.87,2141297.0
1708002557.03125,-53.81,5.653211,35.87,2142662.0
1708002557.046875,-48.34,5.659615,35.87,2143666.0
1708002557.0625,-40.58,5.657053,35.87,2144992.0
1708002557.078125,-30.93,5.657053,35.89,2146016.0
1708002557.09375,-20.16,5.648087,35.89,2146657.0
1708002557.109375,-9.2,5.644244,35.89,2147710.0
1708002557.125,1.01,5.651929,35.89,2148513.0
1708002557.140625,9.78,5.645525,35.89,2149184.0
1708002557.15625,16.72,5.648087,35.89,2150334.0
1708002557.171875,21.79,5.657053,35.89,2151325.0
1708002557.1875,25.19,5.659615,35.89,2151344.0
1708002557.203125,27.17,5.645525,35.89,2151028.0
1708002557.21875,28.01,5.637839,35.89,2150333.0
1708002557.234375,27.89,5.637839,35.89,2150282.0
1708002557.25,26.93,5.59813,35.89,2151258.0
1708002557.265625,25.29,5.623749,35.87,2152252.0
1708002557.28125,23.18,5.636558,35.87,2153403.0
1708002557.296875,20.88,5.631434,35.87,2153617.0
1708002557.3125,18.69,5.627592,35.87,2154255.0
1708002557.328125,16.9,5.621187,35.89,2154652.0
1708002557.34375,15.68,5.604535,35.89,2155065.0
1708002557.359375,15.17,5.608377,35.89,2155717.0
1708002557.375,15.39,5.613501,35.89,2156416.0
1708002557.390625,16.27,5.622468,35.89,2157144.0
1708002557.40625,17.67,5.580196,35.89,2158442.0
1708002557.421875,19.27,5.496935,35.89,2159279.0
1708002557.4375,20.76,5.569949,35.89,2160202.0
1708002557.453125,21.8,5.596849,35.89,2161374.0
1708002557.46875,22.19,5.595568,35.89,2162580.0
1708002557.484375,21.89,5.599411,35.89,2163601.0
1708002557.5,20.97,5.604535,35.89,2164851.0
1708002557.515625,19.57,5.605815,35.87,2165854.0
1708002557.53125,17.81,5.637839,35.87,2163583.0
1708002557.546875,15.76,5.49053,35.87,2152916.0
1708002557.5625,13.46,5.426483,35.87,2141979.0
1708002557.578125,10.95,5.553722,35.87,2133698.0
1708002557.59375,8.26,5.54988,35.87,2128369.0
1708002557.609375,5.44,5.555004,35.87,2124769.0
1708002557.625,2.48,5.576779,35.87,2123711.0
1708002557.640625,-0.68,5.589589,35.84,2124545.0
1708002557.65625,-4.09,5.602398,35.84,2125625.0
1708002557.671875,-7.72,5.615208,35.84,2125057.0
1708002557.6875,-11.4,5.622893,35.84,2124022.0
1708002557.703125,-14.9,5.622893,35.84,2121808.0
1708002557.71875,-18.01,5.615208,35.84,2120305.0
1708002557.734375,-20.61,5.601118,35.84,2118729.0
1708002557.75,-22.78,5.60496,35.84,2117542.0
1708002557.765625,-24.71,5.613927,35.84,2116060.0
1708002557.78125,-26.69,5.622893,35.84,2115008.0
1708002557.796875,-29.01,5.622893,35.84,2114259.0
1708002557.8125,-31.91,5.612646,35.84,2113259.0
1708002557.828125,-35.49,5.608803,35.84,2113488.0
1708002557.84375,-39.63,5.608803,35.84,2113039.0
1708002557.859375,-43.83,5.61777,35.84,2112336.0
1708002557.875,-47.25,5.603679,35.84,2112442.0
1708002557.890625,-48.86,5.598556,35.84,2112502.0
1708002557.90625,-47.69,5.578061,35.84,2112799.0
1708002557.921875,-43.22,5.583184,35.84,2112806.0
1708002557.9375,-35.57,5.578061,35.84,2111618.0
1708002557.953125,-25.53,5.575499,35.84,2109444.0
1708002557.96875,-14.29,5.567813,35.84,2107371.0
1708002557.984375,-3.12,5.565251,35.84,2105912.0
1708002558.0,6.96,5.556284,35.84,2104928.0
1708002558.015625,15.33,5.556284,35.84,2104183.0
1708002558.03125,21.78,5.433314,35.84,2103457.0
1708002558.046875,26.35,5.508889,35.84,2103871.0
1708002558.0625,29.22,5.516575,35.84,2104438.0
1708002558.078125,30.64,5.514013,35.84,2103864.0
1708002558.09375,30.83,5.506328,35.84,2103775.0
1708002558.109375,30.0,5.505046,35.84,2103949.0
1708002558.125,28.43,5.488394,35.84,2104785.0
1708002558.140625,26.42,5.481989,35.83,2105572.0
1708002558.15625,24.3,5.475585,35.83,2107376.0
1708002558.171875,22.37,5.452528,35.83,2108856.0
1708002558.1875,20.87,5.444842,35.83,2110582.0
1708002558.203125,19.91,5.45509,35.81,2112562.0
1708002558.21875,19.51,5.457652,35.81,2114361.0
1708002558.234375,19.67,5.449966,35.81,2116312.0
1708002558.25,20.36,5.452528,35.81,2118629.0
1708002558.265625,21.55,5.446123,35.83,2121088.0
1708002558.28125,23.21,5.438437,35.83,2123325.0
1708002558.296875,25.21,5.457652,35.83,2124320.0
1708002558.3125,27.3,5.471742,35.83,2123973.0
1708002558.328125,29.2,5.480709,35.79,2123886.0
1708002558.34375,30.6,5.470461,35.79,2124134.0
1708002558.359375,31.3,5.405133,35.79,2124566.0
1708002558.375,31.2,5.437157,35.79,2125454.0
1708002558.390625,30.31,5.45509,35.81,2126024.0
1708002558.40625,28.66,5.441,35.81,2126642.0
1708002558.421875,26.31,5.447404,35.81,2128061.0
1708002558.4375,23.33,5.451247,35.81,2128977.0
1708002558.453125,19.84,5.457652,35.83,2129938.0
1708002558.46875,16.06,5.475585,35.83,2131790.0
1708002558.484375,12.25,5.49608,35.83,2133643.0
1708002558.5,8.66,5.456371,35.83,2135696.0
1708002558.515625,5.39,5.441,35.81,2138607.0
1708002558.53125,2.32,5.446123,35.81,2142773.0
1708002558.546875,-0.81,5.444842,35.81,2146554.0
1708002558.5625,-4.27,5.435875,35.81,2149805.0
1708002558.578125,-8.16,5.426909,35.83,2152563.0
1708002558.59375,-12.34,5.424347,35.83,2154561.0
1708002558.609375,-16.48,5.424347,35.83,2156649.0
1708002558.625,-20.2,5.430752,35.83,2158594.0
1708002558.640625,-23.29,5.443561,35.81,2159911.0
1708002558.65625,-25.76,5.419223,35.81,2159959.0
1708002558.671875,-27.92,5.384638,35.81,2158902.0
1708002558.6875,-30.19,5.406414,35.81,2157491.0
1708002558.703125,-32.93,5.398728,35.83,2156786.0
1708002558.71875,-36.41,5.389761,35.83,2156173.0
1708002558.734375,-40.65,5.388481,35.83,2156105.0
1708002558.75,-45.41,5.396166,35.83,2155744.0
1708002558.765625,-50.18,5.402571,35.81,2155488.0
1708002558.78125,-54.19,5.402571,35.81,2154729.0
1708002558.796875,-56.5,5.379514,35.81,2154163.0
1708002558.8125,-56.26,5.338524,35.81,2153221.0
1708002558.828125,-52.86,5.325714,35.81,2152452.0
1708002558.84375,-46.22,5.323153,35.81,2151611.0
1708002558.859375,-36.76,5.330838,35.81,2149291.0
1708002558.875,-25.34,5.343647,35.81,2148634.0
1708002558.890625,-13.01,5.341085,35.81,2147345.0
1708002558.90625,-0.84,5.343647,35.81,2145832.0
1708002558.921875,10.28,5.343647,35.81,2143958.0
1708002558.9375,19.71,5.362862,35.81,2142185.0
1708002558.953125,27.03,5.344928,35.81,2140562.0
1708002558.96875,32.12,5.343647,35.81,2138792.0
1708002558.984375,35.12,5.326995,35.81,2135847.0
1708002559.0,36.37,5.32059,35.81,2131223.0
1708002559.015625,36.36,5.316748,35.81,2126557.0
1708002559.03125,35.52,5.312905,35.81,2122327.0
1708002559.046875,34.15,5.3065,35.81,2117550.0
1708002559.0625,32.41,5.298814,35.81,2114319.0
1708002559.078125,30.46,5.300096,35.81,2112833.0
1708002559.09375,28.5,5.296252,35.81,2110647.0
1708002559.109375,26.87,5.269352,35.81,2108746.0
1708002559.125,25.92,5.257824,35.81,2106255.0
1708002559.140625,25.85,5.278319,35.79,2103304.0
1708002559.15625,26.65,5.266791,35.79,2100900.0
1708002559.171875,28.05,5.271914,35.79,2099499.0
1708002559.1875,29.65,5.275757,35.79,2097131.0
1708002559.203125,31.13,5.271914,35.79,2094488.0
1708002559.21875,32.29,5.256543,35.79,2092760.0
1708002559.234375,33.1,5.255262,35.79,2090494.0
1708002559.25,33.58,5.2527,35.79,2090137.0
1708002559.265625,33.71,5.210429,35.77,2089438.0
1708002559.28125,33.43,5.196339,35.77,2088568.0
1708002559.296875,32.62,5.201463,35.77,2087852.0
1708002559.3125,31.16,5.196339,35.77,2086259.0
1708002559.328125,29.07,5.206586,35.81,2083469.0
1708002559.34375,26.43,5.205306,35.81,2080220.0
1708002559.359375,23.36,5.196339,35.81,2077712.0
1708002559.375,20.01,5.198901,35.81,2076139.0
1708002559.390625,16.49,5.204024,35.77,2074775.0
1708002559.40625,12.89,5.159191,35.77,2073276.0
1708002559.421875,9.32,5.173282,35.77,2072905.0
1708002559.4375,5.93,5.175844,35.77,2071384.0
1708002559.453125,2.84,5.17072,35.77,2070045.0
1708002559.46875,0.15,5.168158,35.77,2069299.0
1708002559.484375,-2.18,5.169439,35.77,2068252.0
1708002559.5,-4.31,5.174562,35.77,2067420.0
1708002559.515625,-6.52,5.160472,35.77,2067191.0
1708002559.53125,-9.04,5.161753,35.77,2066934.0
1708002559.546875,-12.03,5.160472,35.77,2068825.0
1708002559.5625,-15.46,5.151505,35.77,2067370.0
1708002559.578125,-19.13,5.15791,35.77,2069828.0
1708002559.59375,-22.78,5.155348,35.77,2070780.0
1708002559.609375,-26.19,5.152787,35.77,2068572.0
1708002559.625,-29.27,5.152787,35.77,2067865.0
1708002559.640625,-32.22,5.139977,35.79,2068005.0
1708002559.65625,-35.4,5.128448,35.79,2071574.0
1708002559.671875,-39.22,5.12973,35.79,2072488.0
1708002559.6875,-43.89,5.122044,35.79,2071768.0
1708002559.703125,-49.13,5.127168,35.77,2070257.0
1708002559.71875,-54.12,5.095144,35.77,2068886.0
1708002559.734375,-57.6,5.091301,35.77,2068006.0
1708002559.75,-58.24,5.086177,35.77,2067426.0
1708002559.765625,-55.06,5.086177,35.77,2066825.0
1708002559.78125,-47.82,5.068244,35.77,2066262.0
1708002559.796875,-37.05,5.06184,35.77,2065706.0
1708002559.8125,-23.94,5.064401,35.77,2064763.0
1708002559.828125,-9.9,5.06312,35.77,2063479.0
1708002559.84375,3.69,5.043906,35.77,2062009.0
1708002559.859375,15.81,5.056715,35.77,2060250.0
1708002559.875,25.8,5.055435,35.77,2058120.0
1708002559.890625,33.39,5.046468,35.79,2056006.0
1708002559.90625,38.56,5.043906,35.79,2054998.0
1708002559.921875,41.5,5.036221,35.79,2054550.0
1708002559.9375,42.53,5.041344,35.79,2055625.0
1708002559.953125,42.03,5.031097,35.77,2057021.0
1708002559.96875,40.4,5.036221,35.77,2058474.0
1708002559.984375,38.03,5.038783,35.77,2059673.0
1708002560.0,35.26,5.050311,35.77,2060381.0
1708002560.015625,32.42,5.04903,35.77,2059612.0
1708002560.03125,29.79,5.051592,35.77,2060217.0
1708002560.046875,27.64,5.047749,35.77,2061678.0
1708002560.0625,26.14,5.043906,35.77,2063390.0
1708002560.078125,25.39,5.052873,35.77,2065289.0
1708002560.09375,25.39,5.046468,35.77,2065795.0
1708002560.109375,26.1,5.059278,35.77,2065059.0
1708002560.125,27.43,5.082335,35.77,2064178.0
1708002560.140625,29.27,5.101549,35.75,2064345.0
1708002560.15625,31.4,5.11692,35.75,2065606.0
1708002560.171875,33.53,5.12973,35.75,2067083.0
1708002560.1875,35.27,5.134853,35.75,2069084.0
1708002560.203125,36.23,5.134853,35.77,2070987.0
1708002560.21875,36.18,5.141258,35.77,2072824.0
1708002560.234375,35.08,5.159191,35.77,2074407.0
1708002560.25,33.16,5.164315,35.77,2075987.0
1708002560.265625,30.74,5.160472,35.75,2077762.0
1708002560.28125,28.11,5.164315,35.75,2079061.0
1708002560.296875,25.43,5.152787,35.75,2080399.0
1708002560.3125,22.72,5.14382,35.75,2081729.0
1708002560.328125,19.86,5.12973,35.75,2082749.0
1708002560.34375,16.8,5.122044,35.75,2083656.0
1708002560.359375,13.56,5.122044,35.75,2084712.0
1708002560.375,10.21,5.106673,35.75,2085687.0
1708002560.390625,6.85,5.113077,35.75,2086613.0
1708002560.40625,3.54,5.110516,35.75,2087438.0
1708002560.421875,0.3,5.100268,35.75,2088419.0
1708002560.4375,-2.87,5.029816,35.75,2089408.0
1708002560.453125,-5.95,5.06184,35.75,2090323.0
1708002560.46875,-8.97,5.052873,35.75,2091345.0
1708002560.484375,-11.96,5.047749,35.75,2092501.0
1708002560.5,-14.98,5.055435,35.75,2092782.0
1708002560.515625,-18.05,5.051592,35.75,2092384.0
1708002560.53125,-21.12,5.057997,35.75,2091873.0
1708002560.546875,-24.07,5.06312,35.75,2091703.0
1708002560.5625,-26.76,5.066963,35.75,2091814.0
1708002560.578125,-29.15,5.059278,35.75,2092029.0
1708002560.59375,-31.42,5.060558,35.75,2092755.0
1708002560.609375,-33.84,5.055435,35.75,2092891.0
1708002560.625,-36.74,5.051592,35.75,2093285.0
1708002560.640625,-40.21,5.037501,35.75,2093304.0
1708002560.65625,-43.91,5.037501,35.75,2093353.0
1708002560.671875,-47.1,5.024692,35.75,2093794.0
1708002560.6875,-48.71,5.037501,35.75,2094117.0
1708002560.703125,-47.72,5.03494,35.73,2094659.0
1708002560.71875,-43.49,5.038783,35.73,2095796.0
1708002560.734375,-35.96,5.03494,35.73,2096891.0
1708002560.75,-25.77,5.024692,35.73,2096999.0
1708002560.765625,-14.05,5.027254,35.75,2096819.0
1708002560.78125,-2.15,5.029816,35.75,2096667.0
1708002560.796875,8.71,5.024692,35.75,2096919.0
1708002560.8125,17.67,5.027254,35.75,2097300.0
1708002560.828125,24.34,5.036221,35.73,2098006.0
1708002560.84375,28.7,5.050311,35.73,2098455.0
1708002560.859375,31.0,5.042625,35.73,2098243.0
1708002560.875,31.58,5.038783,35.73,2097638.0
1708002560.890625,30.88,5.041344,35.73,2097219.0
1708002560.90625,29.29,5.032378,35.73,2096010.0
1708002560.921875,27.23,5.005478,35.73,2094660.0
1708002560.9375,25.04,4.982421,35.73,2093174.0
1708002560.953125,22.96,5.005478,35.73,2092026.0
1708002560.96875,21.17,5.004197,35.73,2091154.0
1708002560.984375,19.74,5.011883,35.73,2090286.0
1708002561.0,18.71,5.02213,35.73,2089505.0
1708002561.015625,18.19,5.009321,35.73,2089091.0
1708002561.03125,18.3,5.001635,35.73,2088444.0
1708002561.046875,19.16,4.999073,35.73,2087593.0
1708002561.0625,20.74,4.999073,35.73,2087360.0
1708002561.078125,22.85,4.983702,35.71,2088625.0
1708002561.09375,25.14,4.977297,35.71,2088364.0
1708002561.109375,27.16,4.986264,35.71,2087807.0
1708002561.125,28.57,4.982421,35.71,2087171.0
1708002561.140625,29.2,4.976016,35.73,2086997.0
1708002561.15625,29.07,4.96833,35.73,2086886.0
1708002561.171875,28.3,4.96833,35.73,2087187.0
1708002561.1875,27.09,4.951678,35.73,2087735.0
1708002561.203125,25.56,4.947835,35.71,2088039.0
1708002561.21875,23.8,4.946554,35.71,2089748.0
1708002561.234375,21.85,4.949116,35.71,2089987.0
1708002561.25,19.73,4.936307,35.71,2088913.0
1708002561.265625,17.48,4.95008,35.71,2088369.0
1708002561.28125,15.1,4.942394,35.71,2088295.0
1708002561.296875,12.56,4.93599,35.71,2087060.0
1708002561.3125,9.85,4.924461,35.71,2085177.0
1708002561.328125,6.98,4.911652,35.71,2084028.0
1708002561.34375,4.02,4.905247,35.71,2082679.0
1708002561.359375,1.06,4.903966,35.71,2081427.0
1708002561.375,-1.8,4.902685,35.71,2079290.0
1708002561.390625,-4.54,4.907809,35.73,2078107.0
1708002561.40625,-7.24,4.906528,35.73,2080624.0
1708002561.421875,-9.98,4.900123,35.73,2083357.0
1708002561.4375,-12.81,4.89628,35.73,2083712.0
1708002561.453125,-15.69,4.891157,35.68,2083031.0
1708002561.46875,-18.47,4.888595,35.68,2081855.0
1708002561.484375,-21.06,4.891157,35.68,2080912.0
1708002561.5,-23.42,4.893718,35.68,2079983.0
1708002561.515625,-25.62,4.889875,35.68,2079814.0
1708002561.53125,-27.82,4.892437,35.68,2080190.0
1708002561.546875,-30.17,4.887314,35.68,2080814.0
1708002561.5625,-32.78,4.886033,35.68,2080874.0
1708002561.578125,-35.7,4.883471,35.71,2082021.0
1708002561.59375,-38.92,4.86938,35.71,2082088.0
1708002561.609375,-42.41,4.861695,35.71,2080982.0
1708002561.625,-45.97,4.861695,35.71,2080831.0
1708002561.640625,-49.17,4.85529,35.71,2080317.0
1708002561.65625,-51.32,4.846323,35.71,2079672.0
1708002561.671875,-51.61,4.854009,35.71,2079012.0
1708002561.6875,-49.32,4.847604,35.71,2078943.0
1708002561.703125,-44.13,4.8412,35.68,2078746.0
1708002561.71875,-36.21,4.836076,35.68,2076887.0
1708002561.734375,-26.3,4.845043,35.68,2074112.0
1708002561.75,-15.44,4.829671,35.68,2070913.0
1708002561.765625,-4.76,4.820704,35.68,2068138.0
1708002561.78125,4.79,4.811738,35.68,2066314.0
1708002561.796875,12.6,4.810457,35.68,2065280.0
1708002561.8125,18.45,4.813019,35.68,2065135.0
1708002561.828125,22.39,4.8143,35.68,2065062.0
1708002561.84375,24.71,4.815581,35.68,2063692.0
1708002561.859375,25.73,4.809176,35.68,2062717.0
1708002561.875,25.8,4.810457,35.68,2061726.0
1708002561.890625,25.17,4.798928,35.68,2061466.0
1708002561.90625,24.02,4.795085,35.68,2062068.0
1708002561.921875,22.52,4.796367,35.68,2063624.0
1708002561.9375,20.8,4.797647,35.68,2065922.0
1708002561.953125,19.02,4.77459,35.66,2068195.0
1708002561.96875,17.36,4.805333,35.66,2070153.0
1708002561.984375,15.97,4.795085,35.66,2071546.0
1708002562.0,15.02,4.796367,35.66,2073073.0
1708002562.015625,14.67,4.779714,35.68,2074531.0
1708002562.03125,14.99,4.769467,35.68,2075579.0
1708002562.046875,15.99,4.7605,35.68,2076728.0
1708002562.0625,17.51,4.770748,35.68,2077745.0
1708002562.078125,19.28,4.777153,35.66,2077456.0
1708002562.09375,20.95,4.770748,35.66,2076512.0
1708002562.109375,22.23,4.768186,35.66,2075092.0
1708002562.125,22.91,4.766905,35.66,2074174.0
1708002562.140625,22.97,4.766905,35.68,2073633.0
1708002562.15625,22.42,4.750253,35.68,2073873.0
1708002562.171875,21.37,4.743848,35.68,2074191.0
1708002562.1875,19.88,4.738724,35.68,2074418.0
1708002562.203125,18.01,4.736162,35.71,2074086.0
1708002562.21875,15.86,4.737443,35.71,2073784.0
1708002562.234375,13.47,4.727196,35.71,2073639.0
1708002562.25,10.93,4.725914,35.71,2073686.0
1708002562.265625,8.28,4.718229,35.68,2074040.0
1708002562.28125,5.55,4.711824,35.68,2074905.0
1708002562.296875,2.78,4.7067,35.68,2076107.0
1708002562.3125,0.02,4.710543,35.68,2077217.0
1708002562.328125,-2.61,4.701577,35.68,2078106.0
1708002562.34375,-5.05,4.700295,35.68,2079033.0
1708002562.359375,-7.25,4.695172,35.68,2080209.0
1708002562.375,-9.28,4.690048,35.68,2081334.0
1708002562.390625,-11.27,4.687486,35.71,2082369.0
1708002562.40625,-13.34,4.681081,35.71,2081796.0
1708002562.421875,-15.54,4.670834,35.71,2080655.0
1708002562.4375,-17.86,4.669553,35.71,2079190.0
1708002562.453125,-20.22,4.661867,35.68,2078154.0
1708002562.46875,-22.53,4.658024,35.68,2077980.0
1708002562.484375,-24.76,4.655463,35.68,2078141.0
1708002562.5,-26.91,4.660586,35.68,2078574.0
1708002562.515625,-29.07,4.652901,35.68,2078874.0
1708002562.53125,-31.4,4.647777,35.68,2079091.0
1708002562.546875,-34.05,4.641372,35.68,2078998.0
1708002562.5625,-37.08,4.63881,35.68,2079137.0
1708002562.578125,-40.39,4.628563,35.68,2079438.0
1708002562.59375,-43.6,4.62472,35.68,2080056.0
1708002562.609375,-46.07,4.618315,35.68,2080963.0
1708002562.625,-47.04,4.623439,35.68,2081817.0
1708002562.640625,-45.79,4.601663,35.66,2082960.0
1708002562.65625,-41.9,4.618315,35.66,2083816.0
1708002562.671875,-35.43,4.61063,35.66,2084744.0
1708002562.6875,-26.87,4.602944,35.66,2085766.0
1708002562.703125,-17.1,4.593977,35.68,2086555.0
1708002562.71875,-7.14,4.591415,35.68,2087750.0
1708002562.734375,2.09,4.587573,35.68,2088527.0
1708002562.75,9.92,4.591415,35.68,2088132.0
1708002562.765625,15.99,4.587573,35.68,2086731.0
1708002562.78125,20.25,4.582448,35.68,2085461.0
1708002562.796875,22.82,4.590134,35.68,2084627.0
1708002562.8125,23.91,4.565796,35.68,2084591.0
1708002562.828125,23.74,4.582448,35.71,2084613.0
1708002562.84375,22.51,4.569639,35.71,2084765.0
1708002562.859375,20.41,4.560673,35.71,2085077.0
1708002562.875,17.77,4.550425,35.71,2085391.0
1708002562.890625,14.96,4.549144,35.66,2085191.0
1708002562.90625,12.43,4.565796,35.66,2085363.0
1708002562.921875,10.56,4.555549,35.66,2085574.0
1708002562.9375,9.57,4.547863,35.66,2086452.0
1708002562.953125,9.43,4.547863,35.66,2087894.0
1708002562.96875,9.96,4.540177,35.66,2089759.0
1708002562.984375,10.9,4.510716,35.66,2092281.0
1708002563.0,11.99,4.524806,35.66,2094899.0
1708002563.015625,13.08,4.522244,35.68,2096831.0
1708002563.03125,14.04,4.519682,35.68,2098831.0
1708002563.046875,14.79,4.520963,35.68,2100930.0
1708002563.0625,15.19,4.520963,35.68,2102778.0
1708002563.078125,15.15,4.513278,35.68,2104511.0
1708002563.09375,14.56,4.511997,35.68,2106252.0
1708002563.109375,13.39,4.508154,35.68,2106936.0
1708002563.125,11.72,4.495345,35.68,2106542.0
1708002563.140625,9.62,4.494063,35.68,2106233.0
1708002563.15625,7.23,4.494063,35.68,2105707.0
1708002563.171875,4.65,4.485097,35.68,2105311.0
1708002563.1875,1.99,4.492783,35.68,2105047.0
1708002563.203125,-0.64,4.492783,35.68,2104551.0
1708002563.21875,-3.13,4.486378,35.68,2104524.0
1708002563.234375,-5.46,4.482535,35.68,2104551.0
1708002563.25,-7.7,4.479973,35.68,2104309.0
1708002563.265625,-10.01,4.478692,35.68,2104088.0
1708002563.28125,-12.53,4.471006,35.68,2104602.0
1708002563.296875,-15.38,4.474849,35.68,2105127.0
1708002563.3125,-18.54,4.477411,35.68,2105896.0
1708002563.328125,-21.95,4.47613,35.66,2106426.0
1708002563.34375,-25.52,4.47613,35.66,2106923.0
1708002563.359375,-29.18,4.473568,35.66,2107825.0
1708002563.375,-32.97,4.469726,35.66,2108900.0
1708002563.390625,-36.96,4.471006,35.66,2110150.0
1708002563.40625,-41.16,4.458197,35.66,2112002.0
1708002563.421875,-45.53,4.456916,35.66,2113571.0
1708002563.4375,-50.0,4.458197,35.66,2114960.0
1708002563.453125,-54.51,4.468444,35.66,2116135.0
1708002563.46875,-59.13,4.459478,35.66,2115948.0
1708002563.484375,-64.05,4.455635,35.66,2115142.0
1708002563.5,-69.47,4.446669,35.66,2114925.0
1708002563.515625,-75.32,4.461245,35.68,2115724.0
1708002563.53125,-81.13,4.445873,35.68,2116463.0
1708002563.546875,-86.02,4.44203,35.68,2117530.0
1708002563.5625,-88.96,4.445873,35.68,2119010.0
1708002563.578125,-89.08,4.438188,35.66,2119745.0
1708002563.59375,-86.14,4.447154,35.66,2120395.0
1708002563.609375,-80.63,4.458683,35.66,2121152.0
1708002563.625,-73.76,4.484302,35.66,2122070.0
1708002563.640625,-67.07,4.494549,35.66,2123030.0
1708002563.65625,-62.0,4.509921,35.66,2124320.0
1708002563.671875,-59.41,4.515044,35.66,2125652.0
1708002563.6875,-59.36,4.532978,35.66,2126937.0
1708002563.703125,-61.07,4.538101,35.66,2128218.0
1708002563.71875,-63.28,4.543225,35.66,2129495.0
1708002563.734375,-64.63,4.554753,35.66,2130670.0
1708002563.75,-64.26,4.56372,35.66,2131536.0
1708002563.765625,-62.11,4.562439,35.65,2131976.0
1708002563.78125,-58.95,4.565001,35.65,2132677.0
1708002563.796875,-56.03,4.557315,35.65,2133519.0
1708002563.8125,-54.4,4.556035,35.65,2133907.0
1708002563.828125,-54.34,4.565001,35.65,2133863.0
1708002563.84375,-55.02,4.566282,35.65,2132521.0
1708002563.859375,-54.75,4.567563,35.65,2130331.0
1708002563.875,-51.59,4.568844,35.65,2129930.0
1708002563.890625,-43.94,4.565001,35.66,2131420.0
1708002563.90625,-30.94,4.561158,35.66,2129351.0
1708002563.921875,-12.61,4.553473,35.66,2128864.0
1708002563.9375,10.19,4.535539,35.66,2128304.0
1708002563.953125,35.74,4.525292,35.66,2127982.0
1708002563.96875,61.53,4.521449,35.66,2126959.0
1708002563.984375,84.58,4.525292,35.66,2126326.0
1708002564.0,102.26,4.517606,35.66,2125899.0
1708002564.015625,113.25,4.520168,35.66,2125562.0
1708002564.03125,118.25,4.531696,35.66,2125617.0
1708002564.046875,119.84,4.525292,35.66,2125578.0
1708002564.0625,121.3,4.524011,35.66,2125348.0
1708002564.078125,124.98,4.52273,35.66,2125332.0
1708002564.09375,131.17,4.534258,35.66,2125142.0
1708002564.109375,138.03,4.53682,35.66,2125278.0
1708002564.125,142.84,4.55091,35.66,2125113.0
1708002564.140625,143.59,4.552192,35.65,2125555.0
1708002564.15625,140.1,4.562439,35.65,2126168.0
1708002564.171875,133.86,4.554753,35.65,2126428.0
1708002564.1875,126.9,4.552192,35.65,2127175.0
1708002564.203125,120.55,4.53682,35.65,2127503.0
1708002564.21875,114.86,4.531696,35.65,2126035.0
1708002564.234375,109.01,4.517606,35.65,2123881.0
1708002564.25,102.28,4.52273,35.65,2121688.0
1708002564.265625,94.81,4.529135,35.66,2119927.0
1708002564.28125,87.64,4.518887,35.66,2118742.0
1708002564.296875,81.95,4.512482,35.66,2117775.0
1708002564.3125,78.14,4.513763,35.66,2116815.0
1708002564.328125,75.38,4.498392,35.66,2116012.0
1708002564.34375,71.84,4.497111,35.66,2114892.0
1708002564.359375,65.62,4.499673,35.66,2113755.0
1708002564.375,55.69,4.49583,35.66,2112758.0
1708002564.390625,42.46,4.498392,35.66,2111841.0
1708002564.40625,27.62,4.494549,35.66,2111336.0
1708002564.421875,13.45,4.486864,35.66,2110909.0
1708002564.4375,2.07,4.486864,35.66,2110578.0
1708002564.453125,-5.23,4.485582,35.66,2110156.0
1708002564.46875,-8.14,4.475335,35.66,2109569.0
1708002564.484375,-7.16,4.459964,35.66,2109649.0
1708002564.5,-3.28,4.458683,35.66,2109709.0
1708002564.515625,2.35,4.459964,35.66,2109880.0
1708002564.53125,8.6,4.448435,35.66,2110216.0
1708002564.546875,14.49,4.450997,35.66,2110348.0
1708002564.5625,19.17,4.443311,35.66,2110348.0
1708002564.578125,22.07,4.443311,35.66,2110849.0
1708002564.59375,23.01,4.447154,35.66,2111274.0
1708002564.609375,22.39,4.450997,35.66,2111507.0
1708002564.625,21.08,4.443311,35.66,2110278.0
1708002564.640625,19.99,4.447154,35.66,2108079.0
1708002564.65625,19.55,4.430502,35.66,2106011.0
1708002564.671875,19.28,4.426659,35.66,2104396.0
1708002564.6875,17.92,4.424097,35.66,2103055.0
1708002564.703125,14.06,4.420254,35.66,2102657.0
1708002564.71875,6.9,4.426659,35.66,2102504.0
1708002564.734375,-3.12,4.424097,35.66,2102177.0
1708002564.75,-14.44,4.417692,35.66,2101778.0
1708002564.765625,-25.22,4.411288,35.65,2101041.0
1708002564.78125,-34.16,4.410007,35.65,2100711.0
1708002564.796875,-41.16,4.416411,35.65,2100487.0
1708002564.8125,-47.07,4.398478,35.65,2100343.0
1708002564.828125,-52.96,4.411288,35.66,2100046.0
1708002564.84375,-59.37,4.394635,35.66,2100263.0
1708002564.859375,-65.96,4.385669,35.66,2100074.0
1708002564.875,-71.84,4.393354,35.66,2100162.0
1708002564.890625,-76.18,4.390792,35.66,2100321.0
1708002564.90625,-78.73,4.397197,35.66,2100582.0
1708002564.921875,-79.77,4.392074,35.66,2100460.0
1708002564.9375,-79.8,4.388231,35.66,2100733.0
1708002564.953125,-79.05,4.388231,35.66,2101175.0
1708002564.96875,-77.37,4.380545,35.66,2101591.0
1708002564.984375,-74.37,4.37414,35.66,2102142.0
1708002565.0,-69.76,4.371578,35.66,2101222.0
1708002565.015625,-63.34,4.375421,35.66,2099219.0
1708002565.03125,-54.96,4.375421,35.66,2097202.0
1708002565.046875,-44.25,4.379264,35.66,2095633.0
1708002565.0625,-30.65,4.380545,35.66,2094764.0
1708002565.078125,-13.73,4.380545,35.66,2094225.0
1708002565.09375,6.34,4.372859,35.66,2094141.0
1708002565.109375,28.48,4.369017,35.66,2094029.0
1708002565.125,50.88,4.366455,35.66,2093631.0
1708002565.140625,71.58,4.371578,35.65,2093148.0
1708002565.15625,89.23,4.363893,35.65,2093000.0
1708002565.171875,103.42,4.357488,35.65,2092819.0
1708002565.1875,114.39,4.361331,35.65,2092995.0
1708002565.203125,122.46,4.367735,35.65,2093347.0
1708002565.21875,127.36,4.363893,35.65,2093861.0
1708002565.234375,128.21,4.358769,35.65,2094509.0
1708002565.25,124.13,4.353645,35.65,2095106.0
1708002565.265625,115.04,4.354926,35.66,2095919.0
1708002565.28125,102.06,4.344678,35.66,2096321.0
1708002565.296875,87.15,4.34724,35.66,2097029.0
1708002565.3125,72.26,4.338274,35.66,2097874.0
1708002565.328125,58.41,4.330588,35.66,2099089.0
1708002565.34375,45.46,4.329307,35.66,2100622.0
1708002565.359375,32.67,4.316498,35.66,2102023.0
1708002565.375,19.59,4.317779,35.66,2103845.0
1708002565.390625,6.65,4.317779,35.66,2104189.0
1708002565.40625,-4.99,4.313936,35.66,2102582.0
1708002565.421875,-14.2,4.321621,35.66,2100493.0
1708002565.4375,-20.65,4.324183,35.66,2098816.0
1708002565.453125,-25.04,4.317779,35.65,2098135.0
1708002565.46875,-28.6,4.325464,35.65,2097214.0
1708002565.484375,-32.23,4.319059,35.65,2096869.0
1708002565.5,-36.08,4.311374,35.65,2096667.0
1708002565.515625,-39.62,4.308812,35.66,2096384.0
1708002565.53125,-42.24,4.303688,35.66,2096201.0
1708002565.546875,-43.87,4.302407,35.66,2096173.0
1708002565.5625,-45.01,4.302407,35.66,2096148.0
1708002565.578125,-46.39,4.303688,35.65,2096447.0
1708002565.59375,-48.4,4.320341,35.65,2096504.0
1708002565.609375,-50.79,4.328026,35.65,2096609.0
1708002565.625,-52.86,4.343398,35.65,2096940.0
1708002565.640625,-53.96,4.366455,35.65,2096687.0
1708002565.65625,-53.84,4.38695,35.65,2096766.0
1708002565.671875,-52.77,4.418973,35.65,2096450.0
1708002565.6875,-51.25,4.433064,35.65,2096123.0
1708002565.703125,-49.63,4.456121,35.63,2095994.0
1708002565.71875,-47.91,4.476616,35.63,2094744.0
1708002565.734375,-45.81,4.493268,35.63,2093766.0
1708002565.75,-43.02,4.485582,35.63,2093653.0
1708002565.765625,-39.49,4.483021,35.63,2093228.0
1708002565.78125,-35.52,4.480459,35.63,2091474.0
1708002565.796875,-31.63,4.480459,35.63,2088659.0
1708002565.8125,-28.25,4.46893,35.63,2086303.0
1708002565.828125,-25.51,4.465087,35.65,2084778.0
1708002565.84375,-23.16,4.475335,35.65,2084222.0
1708002565.859375,-20.74,4.471492,35.65,2085277.0
1708002565.875,-17.88,4.46893,35.65,2086602.0
1708002565.890625,-14.57,4.456121,35.63,2087918.0
1708002565.90625,-11.18,4.448435,35.63,2088958.0
1708002565.921875,-8.35,4.445873,35.63,2090124.0
1708002565.9375,-6.67,4.434345,35.63,2092108.0
1708002565.953125,-6.36,4.438188,35.63,2093704.0
1708002565.96875,-7.22,4.433064,35.63,2095115.0
1708002565.984375,-8.73,4.430502,35.63,2096266.0
1708002566.0,-10.37,4.431783,35.63,2097232.0
1708002566.015625,-11.84,4.431783,35.63,2097232.0
1708002566.03125,-13.2,4.422816,35.63,2098070.0
1708002566.046875,-14.77,4.421535,35.63,2098916.0
1708002566.0625,-16.9,4.416411,35.63,2099899.0
1708002566.078125,-19.68,4.418973,35.63,2100566.0
1708002566.09375,-22.9,4.420254,35.63,2101228.0
1708002566.109375,-26.07,4.418973,35.63,2101957.0
1708002566.125,-28.73,4.407445,35.63,2102560.0
1708002566.140625,-30.69,4.399759,35.63,2103354.0
1708002566.15625,-32.14,4.393354,35.63,2102806.0
1708002566.171875,-33.65,4.397197,35.63,2100966.0
1708002566.1875,-35.76,4.397197,35.63,2098679.0
1708002566.203125,-38.71,4.399759,35.63,2096836.0
1708002566.21875,-42.14,4.402321,35.63,2095584.0
1708002566.234375,-45.16,4.402321,35.63,2094815.0
1708002566.25,-46.7,4.399759,35.63,2094146.0
1708002566.265625,-45.93,4.394635,35.61,2093617.0
1708002566.28125,-42.55,4.389512,35.61,2092751.0
1708002566.296875,-36.89,4.381826,35.61,2092015.0
1708002566.3125,-29.6,4.38695,35.61,2090893.0
1708002566.328125,-21.4,4.383107,35.63,2090208.0
1708002566.34375,-12.82,4.377983,35.63,2089958.0
1708002566.359375,-4.22,4.380545,35.63,2089895.0
1708002566.375,4.04,4.375421,35.63,2089786.0
1708002566.390625,11.43,4.366455,35.61,2089714.0
1708002566.40625,17.28,4.358769,35.61,2089673.0
1708002566.421875,20.97,4.349802,35.61,2089618.0
1708002566.4375,22.19,4.351083,35.61,2089597.0
1708002566.453125,21.13,4.36005,35.61,2089826.0
1708002566.46875,18.44,4.36005,35.61,2089732.0
1708002566.484375,14.96,4.354926,35.61,2090031.0
1708002566.5,11.39,4.354926,35.61,2090252.0
1708002566.515625,8.22,4.348521,35.63,2088965.0
1708002566.53125,5.61,4.344678,35.63,2086363.0
1708002566.546875,3.62,4.338274,35.63,2082636.0
1708002566.5625,2.29,4.335712,35.63,2079722.0
1708002566.578125,1.67,4.339555,35.61,2077055.0
1708002566.59375,1.78,4.340836,35.61,2074212.0
1708002566.609375,2.57,4.340836,35.61,2070816.0
1708002566.625,3.88,4.339555,35.61,2067842.0
1708002566.640625,5.47,4.322902,35.63,2065048.0
1708002566.65625,7.13,4.320341,35.63,2062551.0
1708002566.671875,8.62,4.310093,35.63,2060580.0
1708002566.6875,9.69,4.313936,35.63,2059084.0
1708002566.703125,10.07,4.315217,35.63,2058596.0
1708002566.71875,9.54,4.310093,35.63,2058177.0
1708002566.734375,7.99,4.316498,35.63,2058121.0
1708002566.75,5.59,4.317779,35.63,2057848.0
1708002566.765625,2.68,4.311374,35.61,2057682.0
1708002566.78125,-0.27,4.307531,35.61,2057527.0
1708002566.796875,-2.86,4.317779,35.61,2057382.0
1708002566.8125,-4.84,4.312655,35.61,2057733.0
1708002566.828125,-6.14,4.307531,35.59,2057767.0
1708002566.84375,-6.85,4.303688,35.59,2058250.0
1708002566.859375,-7.15,4.298564,35.59,2058647.0
1708002566.875,-7.27,4.290879,35.59,2057889.0
1708002566.890625,-7.5,4.285755,35.61,2055286.0
1708002566.90625,-8.08,4.283193,35.61,2052274.0
1708002566.921875,-9.15,4.289598,35.61,2049978.0
1708002566.9375,-10.69,4.299845,35.61,2048522.0
1708002566.953125,-12.56,4.296002,35.61,2047781.0
1708002566.96875,-14.56,4.294722,35.61,2047538.0
1708002566.984375,-16.58,4.29216,35.61,2047108.0
1708002567.0,-18.71,4.280631,35.61,2046688.0
1708002567.015625,-21.21,4.276788,35.59,2046420.0
1708002567.03125,-24.39,4.274227,35.59,2046444.0
1708002567.046875,-28.36,4.278069,35.59,2046703.0
1708002567.0625,-32.87,4.269103,35.59,2047263.0
1708002567.078125,-37.21,4.26526,35.61,2048098.0
1708002567.09375,-40.39,4.263979,35.61,2049127.0
1708002567.109375,-41.39,4.260136,35.61,2049259.0
1708002567.125,-39.48,4.257574,35.61,2049731.0
1708002567.140625,-34.51,4.253731,35.61,2050187.0
1708002567.15625,-26.96,4.257574,35.61,2050452.0
1708002567.171875,-17.78,4.255013,35.61,2051045.0
1708002567.1875,-8.16,4.253731,35.61,2051726.0
1708002567.203125,0.84,4.256293,35.61,2052626.0
1708002567.21875,8.51,4.258855,35.61,2053745.0
1708002567.234375,14.6,4.256293,35.61,2053167.0
1708002567.25,19.19,4.260136,35.61,2051071.0
1708002567.265625,22.58,4.258855,35.61,2048991.0
1708002567.28125,25.03,4.261417,35.61,2047712.0
1708002567.296875,26.71,4.269103,35.61,2047354.0
1708002567.3125,27.69,4.269103,35.61,2047183.0
1708002567.328125,27.96,4.272945,35.61,2047327.0
1708002567.34375,27.51,4.275507,35.61,2047746.0
1708002567.359375,26.38,4.274227,35.61,2047923.0
1708002567.375,24.64,4.278069,35.61,2048052.0
1708002567.390625,22.46,4.267822,35.61,2048273.0
1708002567.40625,20.07,4.266541,35.61,2048908.0
1708002567.421875,17.76,4.262698,35.61,2049718.0
1708002567.4375,15.86,4.260136,35.61,2050473.0
1708002567.453125,14.61,4.26526,35.61,2051691.0
1708002567.46875,14.12,4.267822,35.61,2053039.0
1708002567.484375,14.28,4.261417,35.61,2054616.0
1708002567.5,14.82,4.267822,35.61,2055817.0
1708002567.515625,15.34,4.242203,35.61,2057242.0
1708002567.53125,15.5,4.237079,35.61,2058595.0
1708002567.546875,15.1,4.240922,35.61,2059912.0
1708002567.5625,14.13,4.240922,35.61,2061273.0
1708002567.578125,12.7,4.242203,35.63,2062624.0
1708002567.59375,11.05,4.247327,35.63,2064313.0
1708002567.609375,9.4,4.240922,35.63,2065310.0
1708002567.625,7.95,4.240922,35.63,2064834.0
1708002567.640625,6.84,4.237079,35.61,2063471.0
1708002567.65625,6.03,4.237079,35.61,2062266.0
1708002567.671875,5.37,4.244765,35.61,2061824.0
1708002567.6875,4.58,4.253731,35.61,2061890.0
1708002567.703125,3.4,4.253731,35.59,2062031.0
1708002567.71875,1.66,4.239641,35.59,2062564.0
1708002567.734375,-0.57,4.233236,35.59,2062914.0
1708002567.75,-3.04,4.224269,35.59,2062447.0
1708002567.765625,-5.4,4.215303,35.59,2060884.0
1708002567.78125,-7.36,4.21146,35.59,2059734.0
1708002567.796875,-8.87,4.207617,35.59,2059190.0
1708002567.8125,-10.06,4.207617,35.59,2059339.0
1708002567.828125,-11.23,4.210179,35.61,2059768.0
1708002567.84375,-12.65,4.203774,35.61,2060046.0
1708002567.859375,-14.41,4.202494,35.61,2060705.0
1708002567.875,-16.42,4.196089,35.61,2061087.0
1708002567.890625,-18.51,4.19737,35.59,2061777.0
1708002567.90625,-20.55,4.193527,35.59,2062526.0
1708002567.921875,-22.52,4.189684,35.59,2063502.0
1708002567.9375,-24.62,4.18328,35.59,2064234.0
1708002567.953125,-27.16,4.178155,35.59,2064884.0
1708002567.96875,-30.44,4.181998,35.59,2065455.0
1708002567.984375,-34.62,4.180717,35.59,2066332.0
1708002568.0,-39.54,4.178155,35.59,2067757.0
1708002568.015625,-44.63,4.173032,35.61,2068831.0
1708002568.03125,-48.94,4.165346,35.61,2068421.0
1708002568.046875,-51.31,4.162784,35.61,2067312.0
1708002568.0625,-50.68,4.15638,35.61,2066368.0
1708002568.078125,-46.45,4.158941,35.59,2065776.0
1708002568.09375,-38.76,4.166627,35.59,2065820.0
1708002568.109375,-28.48,4.171751,35.59,2066475.0
1708002568.125,-16.98,4.17047,35.59,2067012.0
1708002568.140625,-5.66,4.167908,35.59,2067078.0
1708002568.15625,4.35,4.15766,35.59,2067531.0
1708002568.171875,12.48,4.158941,35.59,2067377.0
1708002568.1875,18.63,4.146132,35.59,2067349.0
1708002568.203125,22.97,4.146132,35.61,2067675.0
1708002568.21875,25.8,4.142289,35.61,2067860.0
1708002568.234375,27.41,4.148694,35.61,2068484.0
1708002568.25,28.05,4.15638,35.61,2069019.0
1708002568.265625,27.98,4.153818,35.59,2069652.0
1708002568.28125,27.45,4.149975,35.59,2069962.0
1708002568.296875,26.67,4.158941,35.59,2070340.0
1708002568.3125,25.82,4.155098,35.59,2070850.0
1708002568.328125,25.03,4.15766,35.59,2071310.0
1708002568.34375,24.38,4.164065,35.59,2071705.0
1708002568.359375,23.97,4.167908,35.59,2072277.0
1708002568.375,23.9,4.17047,35.59,2072622.0
1708002568.390625,24.24,4.173032,35.55,2073452.0
1708002568.40625,25.05,4.171751,35.55,2073671.0
1708002568.421875,26.27,4.165346,35.55,2072766.0
1708002568.4375,27.76,4.166627,35.55,2072001.0
1708002568.453125,29.33,4.15766,35.61,2071511.0
1708002568.46875,30.74,4.15766,35.61,2071532.0
1708002568.484375,31.78,4.144851,35.61,2071532.0
1708002568.5,32.33,4.164065,35.61,2072169.0
1708002568.515625,32.37,4.166627,35.59,2073006.0
1708002568.53125,31.94,4.173032,35.59,2073753.0
1708002568.546875,31.15,4.18328,35.59,2074420.0
1708002568.5625,30.08,4.201212,35.59,2075068.0
1708002568.578125,28.73,4.219146,35.57,2075801.0
1708002568.59375,27.1,4.239641,35.57,2076386.0
1708002568.609375,25.16,4.262698,35.57,2077300.0
1708002568.625,22.98,4.269103,35.57,2078144.0
1708002568.640625,20.68,4.266541,35.61,2079082.0
1708002568.65625,18.38,4.26526,35.61,2080112.0
1708002568.671875,16.17,4.272945,35.61,2081187.0
1708002568.6875,14.04,4.258855,35.61,2082136.0
1708002568.703125,11.89,4.270384,35.59,2083399.0
1708002568.71875,9.63,4.261417,35.59,2084464.0
1708002568.734375,7.22,4.258855,35.59,2085620.0
1708002568.75,4.75,4.263979,35.59,2086742.0
1708002568.765625,2.44,4.267822,35.57,2087777.0
1708002568.78125,0.52,4.260136,35.57,2084981.0
1708002568.796875,-0.81,4.256293,35.57,2082146.0
1708002568.8125,-1.57,4.248608,35.57,2079601.0
1708002568.828125,-1.96,4.246046,35.57,2078228.0
1708002568.84375,-2.3,4.240922,35.57,2077856.0
1708002568.859375,-2.98,4.231955,35.57,2077951.0
1708002568.875,-4.24,4.230674,35.57,2077860.0
1708002568.890625,-6.17,4.235798,35.55,2077915.0
1708002568.90625,-8.59,4.230674,35.55,2076237.0
1708002568.921875,-11.2,4.224269,35.55,2073013.0
1708002568.9375,-13.6,4.219146,35.55,2072841.0
1708002568.953125,-15.51,4.214022,35.57,2073396.0
1708002568.96875,-16.85,4.207617,35.57,2070944.0
1708002568.984375,-17.86,4.207617,35.57,2070856.0
1708002569.0,-18.97,4.208898,35.57,2070632.0
1708002569.015625,-20.72,4.199932,35.55,2072284.0
1708002569.03125,-23.51,4.203774,35.55,2074967.0
1708002569.046875,-27.42,4.201212,35.55,2076908.0
1708002569.0625,-32.1,4.196089,35.55,2078717.0
1708002569.078125,-36.78,4.185841,35.55,2080416.0
1708002569.09375,-40.4,4.179437,35.55,2081423.0
1708002569.109375,-41.86,4.176875,35.55,2082524.0
1708002569.125,-40.32,4.188403,35.55,2084115.0
1708002569.140625,-35.47,4.181998,35.55,2085275.0
1708002569.15625,-27.66,4.178155,35.55,2085852.0
1708002569.171875,-17.86,4.180717,35.55,2084784.0
1708002569.1875,-7.4,4.178155,35.55,2082127.0
1708002569.203125,2.41,4.180717,35.57,2079871.0
1708002569.21875,10.59,4.171751,35.57,2078016.0
1708002569.234375,16.7,4.169189,35.57,2076592.0
1708002569.25,20.78,4.173032,35.57,2075152.0
1708002569.265625,23.14,4.176875,35.57,2074274.0
1708002569.28125,24.16,4.179437,35.57,2072778.0
1708002569.296875,24.11,4.185841,35.57,2071394.0
1708002569.3125,23.24,4.189684,35.57,2069829.0
1708002569.328125,21.76,4.188403,35.57,2068474.0
1708002569.34375,20.01,4.18328,35.57,2067526.0
1708002569.359375,18.34,4.181998,35.57,2066511.0
1708002569.375,17.06,4.198651,35.57,2065838.0
1708002569.390625,16.33,4.190965,35.57,2065326.0
1708002569.40625,16.09,4.194808,35.57,2065165.0
1708002569.421875,16.17,4.202494,35.57,2064761.0
1708002569.4375,16.44,4.201212,35.57,2064255.0
1708002569.453125,16.89,4.206336,35.57,2063858.0
1708002569.46875,17.64,4.205055,35.57,2063497.0
1708002569.484375,18.84,4.201212,35.57,2063572.0
1708002569.5,20.5,4.194808,35.57,2063750.0
1708002569.515625,22.44,4.185841,35.57,2063988.0
1708002569.53125,24.26,4.18328,35.57,2064020.0
1708002569.546875,25.49,4.185841,35.57,2063473.0
1708002569.5625,25.8,4.181998,35.57,2061047.0
1708002569.578125,25.09,4.174313,35.55,2058074.0
1708002569.59375,23.6,4.162784,35.55,2055441.0
1708002569.609375,21.67,4.164065,35.55,2053453.0
1708002569.625,19.63,4.152537,35.55,2052257.0
1708002569.640625,17.69,4.15766,35.57,2051052.0
1708002569.65625,15.85,4.15766,35.57,2050202.0
1708002569.671875,14.01,4.152537,35.57,2049302.0
1708002569.6875,12.12,4.164065,35.57,2047699.0
1708002569.703125,10.19,4.169189,35.57,2046301.0
1708002569.71875,8.31,4.158941,35.57,2045127.0
1708002569.734375,6.53,4.15766,35.57,2044119.0
1708002569.75,4.83,4.160223,35.57,2043592.0
1708002569.765625,3.1,4.152537,35.57,2043411.0
1708002569.78125,1.27,4.153818,35.57,2042944.0
1708002569.796875,-0.64,4.158941,35.57,2042729.0
1708002569.8125,-2.44,4.14357,35.57,2042494.0
1708002569.828125,-3.85,4.14357,35.57,2042468.0
1708002569.84375,-4.7,4.147413,35.57,2042760.0
1708002569.859375,-5.07,4.14357,35.57,2042742.0
1708002569.875,-5.27,4.14357,35.57,2043392.0
1708002569.890625,-5.73,4.141008,35.59,2044261.0
1708002569.90625,-6.81,4.135884,35.59,2044692.0
1708002569.921875,-8.6,4.142289,35.59,2043331.0
1708002569.9375,-10.91,4.135884,35.59,2040938.0
1708002569.953125,-13.39,4.126918,35.57,2038961.0
1708002569.96875,-15.72,4.128199,35.57,2037863.0
1708002569.984375,-17.72,4.128199,35.57,2037338.0
1708002570.0,-19.4,4.130761,35.57,2037579.0
1708002570.015625,-20.9,4.12948,35.57,2037868.0
1708002570.03125,-22.4,4.124356,35.57,2038008.0
1708002570.046875,-24.01,4.11667,35.57,2038342.0
1708002570.0625,-25.83,4.108984,35.57,2038484.0
1708002570.078125,-27.91,4.107704,35.57,2038775.0
1708002570.09375,-30.28,4.108984,35.57,2038977.0
1708002570.109375,-32.82,4.105142,35.57,2039488.0
1708002570.125,-35.21,4.107704,35.57,2040151.0
1708002570.140625,-36.79,4.106422,35.57,2041009.0
1708002570.15625,-36.75,4.110265,35.57,2042041.0
1708002570.171875,-34.37,4.107704,35.57,2042833.0
1708002570.1875,-29.28,4.105142,35.57,2043729.0
1708002570.203125,-21.75,4.115389,35.57,2044728.0
1708002570.21875,-12.61,4.115389,35.57,2045680.0
1708002570.234375,-3.09,4.114108,35.57,2046736.0
1708002570.25,5.58,4.124356,35.57,2047946.0
1708002570.265625,12.57,4.134604,35.57,2049105.0
1708002570.28125,17.55,4.141008,35.57,2049378.0
1708002570.296875,20.71,4.148694,35.57,2047778.0
1708002570.3125,22.44,4.151256,35.57,2045878.0
1708002570.328125,23.15,4.149975,35.57,2044765.0
1708002570.34375,23.12,4.151256,35.57,2044348.0
1708002570.359375,22.46,4.146132,35.57,2044272.0
1708002570.375,21.26,4.137166,35.57,2044426.0
1708002570.390625,19.63,4.138446,35.57,2044814.0
1708002570.40625,17.76,4.130761,35.57,2045009.0
1708002570.421875,15.89,4.130761,35.57,2044879.0
1708002570.4375,14.25,4.130761,35.57,2044852.0
1708002570.453125,13.02,4.121794,35.57,2045053.0
1708002570.46875,12.29,4.121794,35.57,2045579.0
1708002570.484375,12.14,4.11667,35.57,2046082.0
1708002570.5,12.54,4.108984,35.57,2046846.0
1708002570.515625,13.43,4.105142,35.57,2047720.0
1708002570.53125,14.66,4.105142,35.57,2048791.0
1708002570.546875,16.01,4.106422,35.57,2049759.0
1708002570.5625,17.16,4.112827,35.57,2050813.0
1708002570.578125,17.92,4.121794,35.57,2051699.0
1708002570.59375,18.12,4.12948,35.57,2052778.0
1708002570.609375,17.76,4.128199,35.57,2053594.0
1708002570.625,16.95,4.096175,35.57,2054711.0
1708002570.640625,15.8,4.105142,35.57,2055893.0
1708002570.65625,14.42,4.097456,35.57,2056769.0
1708002570.671875,12.84,4.096175,35.57,2056027.0
1708002570.6875,11.1,4.091051,35.57,2053762.0
1708002570.703125,9.27,4.107704,35.55,2051221.0
1708002570.71875,7.47,4.106422,35.55,2049729.0
1708002570.734375,5.84,4.107704,35.55,2048706.0
1708002570.75,4.48,4.125637,35.55,2048401.0
1708002570.765625,3.33,4.11667,35.57,2048230.0
1708002570.78125,2.19,4.120513,35.57,2048018.0
1708002570.796875,0.85,4.123075,35.57,2047905.0
1708002570.8125,-0.81,4.115389,35.57,2047382.0
1708002570.828125,-2.67,4.117951,35.55,2046598.0
1708002570.84375,-4.44,4.108984,35.55,2046399.0
1708002570.859375,-5.84,4.107704,35.55,2046594.0
1708002570.875,-6.72,4.097456,35.55,2046824.0
1708002570.890625,-7.25,4.098737,35.53,2047002.0
1708002570.90625,-7.78,4.10258,35.53,2047201.0
1708002570.921875,-8.7,4.094894,35.53,2047593.0
1708002570.9375,-10.17,4.091051,35.53,2048013.0
1708002570.953125,-12.15,4.07568,35.53,2048299.0
1708002570.96875,-14.39,4.07568,35.53,2048683.0
1708002570.984375,-16.61,4.079523,35.53,2049130.0
1708002571.0,-18.63,4.078242,35.53,2049947.0
1708002571.015625,-20.37,4.094894,35.55,2050520.0
1708002571.03125,-21.86,4.106422,35.55,2051487.0
1708002571.046875,-23.13,4.121794,35.55,2052631.0
1708002571.0625,-24.23,4.128199,35.55,2053440.0
1708002571.078125,-25.31,4.134604,35.57,2053131.0
1708002571.09375,-26.62,4.133323,35.57,2051187.0
1708002571.109375,-28.4,4.14357,35.57,2049358.0
1708002571.125,-30.74,4.135884,35.57,2048115.0
1708002571.140625,-33.33,4.142289,35.55,2047295.0
1708002571.15625,-35.46,4.158941,35.55,2047130.0
1708002571.171875,-36.15,4.160223,35.55,2047122.0
1708002571.1875,-34.59,4.161503,35.55,2047260.0
1708002571.203125,-30.37,4.155098,35.57,2047221.0
1708002571.21875,-23.79,4.155098,35.57,2047043.0
1708002571.234375,-15.69,4.151256,35.57,2046962.0
1708002571.25,-7.18,4.149975,35.57,2047190.0
1708002571.265625,0.71,4.153818,35.55,2047802.0
1708002571.28125,7.29,4.151256,35.55,2048934.0
1708002571.296875,12.27,4.164065,35.55,2050086.0
1708002571.3125,15.68,4.167908,35.55,2051205.0
1708002571.328125,17.67,4.175594,35.55,2052224.0
1708002571.34375,18.41,4.174313,35.55,2053271.0
1708002571.359375,18.08,4.175594,35.55,2054321.0
1708002571.375,16.9,4.165346,35.55,2055338.0
1708002571.390625,15.14,4.160223,35.55,2056512.0
1708002571.40625,13.15,4.160223,35.55,2057417.0
1708002571.421875,11.3,4.158941,35.55,2058673.0
1708002571.4375,9.83,4.174313,35.55,2059839.0
1708002571.453125,8.84,4.190965,35.57,2060608.0
1708002571.46875,8.3,4.203774,35.57,2059369.0
1708002571.484375,8.09,4.221708,35.57,2057546.0
1708002571.5,8.13,4.219146,35.57,2056279.0
1708002571.515625,8.48,4.215303,35.57,2055596.0
1708002571.53125,9.21,4.214022,35.57,2055522.0
1708002571.546875,10.36,4.217865,35.57,2055420.0
1708002571.5625,11.84,4.214022,35.57,2055713.0
1708002571.578125,13.42,4.21146,35.55,2055658.0
1708002571.59375,14.79,4.212741,35.55,2055535.0
1708002571.609375,15.68,4.215303,35.55,2055507.0
1708002571.625,15.97,4.220427,35.55,2055475.0
1708002571.640625,15.69,4.224269,35.55,2055749.0
1708002571.65625,14.96,4.216584,35.55,2056384.0
1708002571.671875,13.92,4.216584,35.55,2057214.0
1708002571.6875,12.64,4.206336,35.55,2056458.0
1708002571.703125,11.19,4.19737,35.53,2055229.0
1708002571.71875,9.66,4.188403,35.53,2053722.0
1708002571.734375,8.22,4.187122,35.53,2052820.0
1708002571.75,7.01,4.169189,35.53,2052723.0
1708002571.765625,6.11,4.198651,35.57,2053198.0
1708002571.78125,5.41,4.216584,35.57,2054050.0
1708002571.796875,4.63,4.21146,35.57,2054862.0
1708002571.8125,3.5,4.206336,35.57,2055454.0
1708002571.828125,1.91,4.193527,35.53,2056526.0
1708002571.84375,0.02,4.187122,35.53,2057959.0
1708002571.859375,-1.82,4.18456,35.53,2058025.0
1708002571.875,-3.28,4.188403,35.53,2056907.0
1708002571.890625,-4.16,4.196089,35.53,2055429.0
1708002571.90625,-4.59,4.228112,35.53,2054833.0
1708002571.921875,-4.9,4.244765,35.53,2055656.0
1708002571.9375,-5.51,4.266541,35.53,2056548.0
1708002571.953125,-6.68,4.281912,35.55,2057802.0
1708002571.96875,-8.44,4.296002,35.55,2058928.0
1708002571.984375,-10.7,4.313936,35.55,2059549.0
1708002572.0,-13.19,4.321621,35.55,2060674.0
1708002572.015625,-15.64,4.338274,35.55,2062089.0
1708002572.03125,-17.8,4.356207,35.55,2064349.0
1708002572.046875,-19.41,4.37414,35.55,2066323.0
1708002572.0625,-20.36,4.389512,35.55,2068033.0
1708002572.078125,-20.69,4.415131,35.53,2068934.0
1708002572.09375,-20.74,4.406164,35.53,2069788.0
1708002572.109375,-21.07,4.390792,35.53,2070961.0
1708002572.125,-22.28,4.385669,35.53,2071917.0
1708002572.140625,-24.74,4.370297,35.53,2072636.0
1708002572.15625,-28.36,4.356207,35.53,2073324.0
1708002572.171875,-32.55,4.351083,35.53,2073874.0
1708002572.1875,-36.35,4.34596,35.53,2074525.0
1708002572.203125,-38.75,4.340836,35.53,2075075.0
1708002572.21875,-38.95,4.336993,35.53,2075897.0
1708002572.234375,-36.65,4.330588,35.53,2076825.0
1708002572.25,-32.02,4.330588,35.53,2077460.0
1708002572.265625,-25.56,4.33315,35.53,2077376.0
1708002572.28125,-17.95,4.342116,35.53,2075723.0
1708002572.296875,-9.87,4.34724,35.53,2074237.0
1708002572.3125,-1.97,4.357488,35.53,2073367.0
1708002572.328125,5.1,4.372859,35.55,2073263.0
1708002572.34375,10.61,4.384388,35.55,2073602.0
1708002572.359375,13.88,4.399759,35.55,2073664.0
1708002572.375,14.43,4.40104,35.55,2073874.0
1708002572.390625,12.26,4.397197,35.53,2074004.0
1708002572.40625,7.94,4.389512,35.53,2073843.0
1708002572.421875,2.51,4.390792,35.53,2073816.0
1708002572.4375,-2.84,4.388231,35.53,2074192.0
1708002572.453125,-7.22,4.407445,35.53,2074805.0
1708002572.46875,-10.25,4.42794,35.53,2075512.0
1708002572.484375,-12.23,4.452278,35.53,2076076.0
1708002572.5,-13.82,4.447154,35.53,2076796.0
1708002572.515625,-15.7,4.447154,35.55,2077411.0
1708002572.53125,-18.19,4.44203,35.55,2078086.0
1708002572.546875,-21.09,4.438188,35.55,2078750.0
1708002572.5625,-23.66,4.434345,35.55,2079281.0
1708002572.578125,-24.97,4.431783,35.53,2079744.0
1708002572.59375,-24.35,4.44203,35.53,2079981.0
1708002572.609375,-21.75,4.461245,35.53,2080554.0
1708002572.625,-18.09,4.465087,35.53,2081324.0
1708002572.640625,-15.12,4.458683,35.55,2080161.0
1708002572.65625,-14.96,4.45484,35.55,2076657.0
1708002572.671875,-19.18,4.449716,35.55,2072857.0
1708002572.6875,-28.0,4.443311,35.55,2069947.0
1708002572.703125,-40.0,4.440749,35.55,2068420.0
1708002572.71875,-52.27,4.439468,35.55,2067437.0
1708002572.734375,-61.5,4.439468,35.55,2067605.0
1708002572.75,-65.2,4.450997,35.55,2067538.0
1708002572.765625,-62.64,4.472773,35.53,2067054.0
1708002572.78125,-55.22,4.457402,35.53,2066994.0
1708002572.796875,-46.12,4.480459,35.53,2066998.0
1708002572.8125,-39.42,4.488144,35.53,2066970.0
1708002572.828125,-38.62,4.491987,35.53,2067309.0
1708002572.84375,-45.18,4.491987,35.53,2067702.0
1708002572.859375,-57.24,4.497111,35.53,2068384.0
1708002572.875,-69.28,4.498392,35.53,2069258.0
1708002572.890625,-73.28,4.502235,35.55,2069991.0
1708002572.90625,-61.2,4.503516,35.55,2070739.0
1708002572.921875,-28.14,4.493268,35.55,2070957.0
1708002572.9375,24.81,4.500954,35.55,2071379.0
1708002572.953125,89.94,4.500954,35.5,2072065.0
1708002572.96875,154.53,4.503516,35.5,2072616.0
1708002572.984375,204.62,4.397197,35.5,2070982.0
1708002573.0,229.27,4.375421,35.5,2070955.0
1708002573.015625,223.9,4.411288,35.5,2071353.0
1708002573.03125,191.34,4.430502,35.5,2071810.0
1708002573.046875,140.38,4.466368,35.5,2072095.0
1708002573.0625,82.6,4.48174,35.5,2073145.0
1708002573.078125,28.7,4.49583,35.5,2074383.0
1708002573.09375,-14.25,4.497111,35.5,2074832.0
1708002573.109375,-43.88,4.504797,35.5,2075135.0
1708002573.125,-61.8,4.493268,35.5,2075649.0
1708002573.140625,-71.77,4.525292,35.49,2076213.0
1708002573.15625,-77.7,4.457402,35.49,2076760.0
1708002573.171875,-82.14,4.444592,35.49,2078715.0
1708002573.1875,-86.07,4.53682,35.49,2079706.0
1708002573.203125,-89.28,4.56372,35.49,2081574.0
1708002573.21875,-91.07,4.502235,35.49,2080522.0
1708002573.234375,-90.66,,,2077553.0
1708002573.25,-87.31,,,2082570.0
1708002573.265625,-80.23,,,2083436.0
1708002573.28125,-68.74,,,2084338.0
1708002573.296875,-52.64,,,2084975.0
1708002573.3125,-32.62,,,2083780.0
1708002573.328125,-10.45,,,2081472.0
1708002573.34375,11.45,,,2079436.0
1708002573.359375,30.66,,,2078072.0
1708002573.375,45.57,,,2077165.0
1708002573.390625,55.71,,,2076462.0
1708002573.40625,61.66,,,2076142.0
1708002573.421875,64.69,,,2075655.0
1708002573.4375,66.04,,,2075010.0
1708002573.453125,66.55,,,2074148.0
1708002573.46875,66.37,,,2073608.0
1708002573.484375,65.11,,,2073518.0
1708002573.5,62.12,,,2073610.0
1708002573.515625,56.97,,,2074041.0
1708002573.53125,49.74,,,2074320.0
1708002573.546875,41.14,,,2074618.0
1708002573.5625,32.33,,,2074943.0
1708002573.578125,24.63,,,2075452.0
1708002573.59375,19.14,,,2075958.0
1708002573.609375,16.39,,,2076511.0
1708002573.625,16.24,,,2073275.0
1708002573.640625,17.96,,,2073319.0
1708002573.65625,20.47,,,2076880.0
1708002573.671875,22.67,,,2075512.0
1708002573.6875,23.8,,,2069748.0
1708002573.703125,23.71,,,2072578.0
1708002573.71875,22.83,,,2067940.0
1708002573.734375,21.95,,,2066025.0
1708002573.75,21.78,,,2063809.0
1708002573.765625,22.69,,,2061507.0
1708002573.78125,24.53,,,2059765.0
1708002573.796875,26.8,,,2057447.0
1708002573.8125,28.85,,,2055380.0
1708002573.828125,30.19,,,2053765.0
1708002573.84375,30.6,,,2052299.0
1708002573.859375,30.12,,,2050318.0
1708002573.875,28.89,,,2048457.0
1708002573.890625,27.15,,,2048457.0
1708002573.90625,25.2,,,2047073.0
1708002573.921875,23.35,,,2045097.0
1708002573.9375,21.86,,,2043572.0
1708002573.953125,20.83,,,2042883.0
1708002573.96875,20.17,,,2044864.0
1708002573.984375,19.56,,,2042725.0
1708002574.0,18.62,,,2048039.0
1708002574.015625,17.1,,,2050767.0
1708002574.03125,15.02,,,2052840.0
1708002574.046875,12.54,,,2055520.0
1708002574.0625,9.79,,,2057263.0
1708002574.078125,6.7,,,2057137.0
1708002574.09375,2.95,,,2055988.0
1708002574.109375,-1.83,,,2054527.0
1708002574.125,-7.87,,,2054198.0
1708002574.140625,-15.11,,,2053981.0
1708002574.15625,-23.17,,,2054176.0
1708002574.171875,-31.53,,,2054699.0
1708002574.1875,-39.59,,,2054803.0
1708002574.203125,-46.71,,,2055244.0
1708002574.21875,-52.23,,,2055226.0
1708002574.234375,-55.54,,,2055312.0
1708002574.25,-56.26,,,2056356.0
1708002574.265625,-54.41,,,2055613.0
1708002574.28125,-50.46,,,2057747.0
1708002574.296875,-45.13,,,2056899.0
1708002574.3125,-39.13,,,2058648.0
1708002574.328125,-32.94,,,2059375.0
1708002574.34375,-26.82,,,2060007.0
1708002574.359375,-20.94,,,2060910.0
1708002574.375,-15.66,,,2061946.0
1708002574.390625,-11.46,,,2063048.0
1708002574.40625,-8.72,,,2064042.0
1708002574.421875,-7.32,,,2065449.0
1708002574.4375,-6.43,,,2066646.0
1708002574.453125,-4.76,,,2065988.0
1708002574.46875,-1.0,,,2064605.0
1708002574.484375,5.55,,,2063584.0
1708002574.5,14.73,,,2063052.0
1708002574.515625,25.44,,,2062957.0
1708002574.53125,36.12,,,2063361.0
1708002574.546875,45.02,,,2064010.0
1708002574.5625,50.63,,,2064525.0
1708002574.578125,51.96,,,2064801.0
1708002574.59375,48.75,,,2064963.0
1708002574.609375,41.77,,,2065216.0
1708002574.625,32.77,,,2065440.0
1708002574.640625,24.09,,,2065736.0
1708002574.65625,17.85,,,2066557.0
1708002574.671875,15.07,,,2067396.0
1708002574.6875,15.24,,,2068311.0
1708002574.703125,16.52,,,2069350.0
1708002574.71875,16.59,,,2070476.0
1708002574.734375,13.73,,,2071595.0
1708002574.75,7.48,,,2072863.0
1708002574.765625,-1.41,,,2073959.0
1708002574.78125,-11.61,,,2075160.0
1708002574.796875,-21.95,,,2076320.0
1708002574.8125,-31.85,,,2077562.0
1708002574.828125,-41.19,,,2079065.0
1708002574.84375,-49.94,,,2080024.0
1708002574.859375,-57.75,,,2079541.0
1708002574.875,-64.06,,,2078119.0
1708002574.890625,-68.38,,,2076768.0
1708002574.90625,-70.77,,,2076258.0
1708002574.921875,-71.99,,,2076076.0
1708002574.9375,-73.21,,,2076088.0
1708002574.953125,-75.55,,,2076330.0
1708002574.96875,-79.49,,,2076490.0
1708002574.984375,-84.6,,,2076324.0
1708002575.0,-89.61,,,2076486.0
1708002575.015625,-92.88,,,2076637.0
1708002575.03125,-92.95,,,2077050.0
1708002575.046875,-89.08,,,2077413.0
1708002575.0625,-81.42,,,2077972.0
1708002575.078125,-70.87,,,2078650.0
1708002575.09375,-58.69,,,2079439.0
1708002575.109375,-46.11,,,2080377.0
1708002575.125,-34.01,,,2081038.0
1708002575.140625,-22.89,,,2081593.0
1708002575.15625,-12.96,,,2082441.0
1708002575.171875,-4.28,,,2082951.0
1708002575.1875,3.01,,,2083846.0
1708002575.203125,8.85,,,2084645.0
1708002575.21875,13.15,,,2085001.0
1708002575.234375,15.95,,,2086029.0
1708002575.25,17.44,,,2087018.0
1708002575.265625,18.0,,,2088006.0
1708002575.28125,18.14,,,2087384.0
1708002575.296875,18.36,,,2085670.0
1708002575.3125,19.1,,,2083990.0
1708002575.328125,20.58,,,2083337.0
1708002575.34375,22.85,,,2082934.0
1708002575.359375,25.81,,,2082619.0
1708002575.375,29.36,,,2082722.0
1708002575.390625,33.54,,,2082650.0
1708002575.40625,38.5,,,2082223.0
1708002575.421875,44.36,,,2081908.0
1708002575.4375,51.06,,,2081373.0
1708002575.453125,58.23,,,2081386.0
1708002575.46875,65.2,,,2081372.0
1708002575.484375,71.15,,,2081717.0
1708002575.5,75.36,,,2082257.0
1708002575.515625,77.39,,,2082782.0
1708002575.53125,77.19,,,2083356.0
1708002575.546875,75.08,,,2083931.0
1708002575.5625,71.68,,,2084582.0
1708002575.578125,67.7,,,2085165.0
1708002575.59375,63.82,,,2085820.0
1708002575.609375,60.45,,,2086586.0
1708002575.625,57.65,,,2087300.0
1708002575.640625,55.1,,,2087927.0
1708002575.65625,52.22,,,2088626.0
1708002575.671875,48.39,,,2087601.0
1708002575.6875,43.16,,,2083980.0
1708002575.703125,36.4,,,2080063.0
1708002575.71875,28.31,,,2076548.0
1708002575.734375,19.33,,,2073552.0
1708002575.75,10.01,,,2071465.0
1708002575.765625,0.8,,,2070390.0
1708002575.78125,-8.01,,,2069388.0
1708002575.796875,-16.32,,,2069200.0
1708002575.8125,-24.23,,,2069144.0
1708002575.828125,-31.88,,,2069232.0
1708002575.84375,-39.33,,,2069913.0
1708002575.859375,-46.36,,,2070471.0
1708002575.875,-52.5,,,2070946.0
1708002575.890625,-56.97,,,2071886.0
1708002575.90625,-58.91,,,2072605.0
1708002575.921875,-57.71,,,2074202.0
1708002575.9375,-53.11,,,2075967.0
1708002575.953125,-45.45,,,2077825.0
1708002575.96875,-35.46,,,2078890.0
1708002575.984375,-24.1,,,2080069.0
1708002576.0,-12.27,,,2080923.0
1708002576.015625,-0.68,,,2081823.0
1708002576.03125,10.23,,,2083159.0
1708002576.046875,20.18,,,2084181.0
1708002576.0625,28.93,,,2085262.0
1708002576.078125,36.28,,,2084555.0
1708002576.09375,42.08,,,2082683.0
1708002576.109375,46.28,,,2080762.0
1708002576.125,49.02,,,2079128.0
1708002576.140625,50.59,,,2078218.0
1708002576.15625,51.36,,,2078146.0
1708002576.171875,51.67,,,2077846.0
1708002576.1875,51.78,,,2077663.0
1708002576.203125,51.79,,,2077582.0
1708002576.21875,51.72,,,2077034.0
1708002576.234375,51.43,,,2076372.0
1708002576.25,50.72,,,2075987.0
1708002576.265625,49.36,,,2075948.0
1708002576.28125,47.13,,,2076078.0
1708002576.296875,43.96,,,2076373.0
1708002576.3125,39.94,,,2076705.0
1708002576.328125,35.36,,,2076926.0
1708002576.34375,30.6,,,2077064.0
1708002576.359375,26.04,,,2077206.0
1708002576.375,21.89,,,2077234.0
1708002576.390625,18.22,,,2077299.0
1708002576.40625,14.89,,,2077571.0
1708002576.421875,11.66,,,2078073.0
1708002576.4375,8.34,,,2078650.0
1708002576.453125,4.8,,,2079286.0
1708002576.46875,1.09,,,2079381.0
1708002576.484375,-2.6,,,2077661.0
1708002576.5,-5.99,,,2074959.0
1708002576.515625,-8.91,,,2072087.0
1708002576.53125,-11.29,,,2070210.0
1708002576.546875,-13.22,,,2068774.0
1708002576.5625,-14.95,,,2067750.0
1708002576.578125,-16.72,,,2067231.0
1708002576.59375,-18.76,,,2066277.0
1708002576.609375,-21.14,,,2064993.0
1708002576.625,-23.81,,,2063405.0
1708002576.640625,-26.61,,,2062154.0
1708002576.65625,-29.26,,,2061111.0
1708002576.671875,-31.47,,,2060594.0
1708002576.6875,-33.02,,,2060522.0
1708002576.703125,-33.89,,,2060512.0
1708002576.71875,-34.28,,,2060689.0
1708002576.734375,-34.63,,,2060712.0
1708002576.75,-35.49,,,2060719.0
1708002576.765625,-37.36,,,2060671.0
1708002576.78125,-40.51,,,2060616.0
1708002576.796875,-44.8,,,2060716.0
1708002576.8125,-49.69,,,2060668.0
1708002576.828125,-54.22,,,2060990.0
1708002576.84375,-57.24,,,2062040.0
1708002576.859375,-57.68,,,2062355.0
1708002576.875,-54.89,,,2060556.0
1708002576.890625,-48.92,,,2057466.0
1708002576.90625,-40.55,,,2054888.0
1708002576.921875,-31.11,,,2053315.0
1708002576.9375,-22.02,,,2052377.0
1708002576.953125,-14.31,,,2052155.0
1708002576.96875,-8.42,,,2051803.0
1708002576.984375,-4.15,,,2051059.0
1708002577.0,-0.99,,,2050064.0
1708002577.015625,1.48,,,2049192.0
1708002577.03125,3.38,,,2048622.0
1708002577.046875,4.54,,,2048360.0
1708002577.0625,4.68,,,2048379.0
1708002577.078125,3.62,,,2048614.0
1708002577.09375,1.5,,,2048963.0
1708002577.109375,-1.27,,,2049492.0
1708002577.125,-4.14,,,2049949.0
1708002577.140625,-6.63,,,2050646.0
1708002577.15625,-8.47,,,2050996.0
1708002577.171875,-9.67,,,2051640.0
1708002577.1875,-10.45,,,2052128.0
1708002577.203125,-11.21,,,2053044.0
1708002577.21875,-12.29,,,2054114.0
1708002577.234375,-13.93,,,2054827.0
1708002577.25,-16.21,,,2053549.0
1708002577.265625,-19.03,,,2050440.0
1708002577.28125,-22.31,,,2047651.0
1708002577.296875,-26.12,,,2045722.0
1708002577.3125,-30.74,,,2044864.0
1708002577.328125,-36.62,,,2044113.0
1708002577.34375,-44.14,,,2043814.0
1708002577.359375,-53.39,,,2043250.0
1708002577.375,-63.94,,,2042674.0
1708002577.390625,-74.87,,,2042001.0
1708002577.40625,-85.09,,,2041441.0
1708002577.421875,-93.73,,,2041174.0
1708002577.4375,-100.47,,,2041539.0
1708002577.453125,-105.52,,,2042073.0
1708002577.46875,-109.31,,,2042734.0
1708002577.484375,-112.03,,,2042966.0
1708002577.5,-113.39,,,2043419.0
1708002577.515625,-112.68,,,2043541.0
1708002577.53125,-109.18,,,2043841.0
1708002577.546875,-102.61,,,2044070.0
1708002577.5625,-93.14,,,2043493.0
1708002577.578125,-81.16,,,2041772.0
1708002577.59375,-66.72,,,2040497.0
1708002577.609375,-49.24,,,2040091.0
1708002577.625,-27.73,,,2039602.0
1708002577.640625,-1.88,,,2038061.0
1708002577.65625,27.21,,,2035310.0
1708002577.671875,57.03,,,2032742.0
1708002577.6875,84.69,,,2030920.0
1708002577.703125,108.51,,,2029926.0
1708002577.71875,128.91,,,2029525.0
1708002577.734375,148.01,,,2028760.0
1708002577.75,167.96,,,2027740.0
1708002577.765625,189.25,,,2026029.0
1708002577.78125,209.99,,,2022393.0
1708002577.796875,226.9,,,2019094.0
1708002577.8125,237.3,,,2017307.0
1708002577.828125,240.66,,,2016487.0
1708002577.84375,238.9,,,2016103.0
1708002577.859375,234.94,,,2015986.0
1708002577.875,230.71,,,2016343.0
1708002577.890625,225.91,,,2016717.0
1708002577.90625,218.3,,,2017195.0
1708002577.921875,205.32,,,2018506.0
1708002577.9375,185.97,,,2020717.0
1708002577.953125,161.6,,,2024216.0
1708002577.96875,135.34,,,2028449.0
1708002577.984375,110.66,,,2032035.0
1708002578.0,89.93,,,2035774.0
1708002578.015625,73.82,,,2044939.0
1708002578.03125,61.53,,,2049419.0
1708002578.046875,51.56,,,2049813.0
1708002578.0625,42.68,,,2050603.0
1708002578.078125,34.33,,,2051140.0
1708002578.09375,26.48,,,2048446.0
1708002578.109375,19.22,,,2051583.0
1708002578.125,12.4,,,2051508.0
1708002578.140625,5.56,,,2050006.0
1708002578.15625,-1.82,,,2051747.0
1708002578.171875,-9.96,,,2049366.0
1708002578.1875,-18.63,,,2052052.0
1708002578.203125,-27.23,,,2040430.0
1708002578.21875,-35.06,,,2052683.0
1708002578.234375,-41.7,,,2053291.0
1708002578.25,-47.1,,,2049495.0
1708002578.265625,-51.54,,,2054058.0
1708002578.28125,-55.49,,,2055007.0
1708002578.296875,-59.37,,,2057074.0
1708002578.3125,-63.47,,,2059109.0
1708002578.328125,-67.91,,,2057947.0
1708002578.34375,-72.6,,,2060104.0
1708002578.359375,-77.33,,,2061087.0
1708002578.375,-81.77,,,2062368.0
1708002578.390625,-85.5,,,2063548.0
1708002578.40625,-88.19,,,2064770.0
1708002578.421875,-89.76,,,2066263.0
1708002578.4375,-90.33,,,2067185.0
1708002578.453125,-90.18,,,2066788.0
1708002578.46875,-89.55,,,2056200.0
1708002578.484375,-88.45,,,2065207.0
1708002578.5,-86.72,,,2063761.0
1708002578.515625,-84.15,,,2063284.0
1708002578.53125,-80.72,,,2062998.0
1708002578.546875,-76.74,,,2063623.0
1708002578.5625,-72.8,,,2064351.0
1708002578.578125,-69.55,,,2064577.0
1708002578.59375,-67.48,,,2064854.0
1708002578.609375,-66.72,,,2064486.0
1708002578.625,-66.9,,,2064135.0
1708002578.640625,-67.27,,,2064386.0
1708002578.65625,-66.88,,,2064707.0
1708002578.671875,-64.85,,,2065196.0
1708002578.6875,-60.52,,,2065405.0
1708002578.703125,-53.67,,,2065691.0
1708002578.71875,-44.51,,,2065555.0
1708002578.734375,-33.63,,,2065368.0
1708002578.75,-21.89,,,2065670.0
1708002578.765625,-10.18,,,2066535.0
1708002578.78125,0.72,,,2067438.0
1708002578.796875,10.27,,,2068804.0
1708002578.8125,18.25,,,2070000.0
1708002578.828125,24.66,,,2070650.0
1708002578.84375,29.64,,,2071354.0
1708002578.859375,33.33,,,2072299.0
1708002578.875,35.84,,,2072877.0
1708002578.890625,37.28,,,2072992.0
1708002578.90625,37.77,,,2072175.0
1708002578.921875,37.54,,,2071601.0
1708002578.9375,36.9,,,2071402.0
1708002578.953125,36.19,,,2071329.0
1708002578.96875,35.63,,,2071387.0
1708002578.984375,35.38,,,2071756.0
1708002579.0,35.5,,,2072059.0
1708002579.015625,36.07,,,2072056.0
1708002579.03125,37.14,,,2072190.0
1708002579.046875,38.78,,,2072063.0
1708002579.0625,40.89,,,2072208.0
1708002579.078125,43.27,,,2072509.0
1708002579.09375,45.56,,,2072848.0
1708002579.109375,47.42,,,2073654.0
1708002579.125,48.63,,,2074220.0
1708002579.140625,49.11,,,2074546.0
1708002579.15625,48.97,,,2075235.0
1708002579.171875,48.35,,,2075792.0
1708002579.1875,47.47,,,2076335.0
1708002579.203125,46.5,,,2077036.0
1708002579.21875,45.61,,,2077451.0
1708002579.234375,44.83,,,2078117.0
1708002579.25,44.1,,,2079012.0
1708002579.265625,43.27,,,2079801.0
1708002579.28125,42.09,,,2080595.0
1708002579.296875,40.41,,,2080844.0
1708002579.3125,38.21,,,2079595.0
1708002579.328125,35.66,,,2077785.0
1708002579.34375,33.04,,,2076496.0
1708002579.359375,30.59,,,2075649.0
1708002579.375,28.4,,,2075370.0
1708002579.390625,26.36,,,2075387.0
1708002579.40625,24.24,,,2075520.0
1708002579.421875,21.81,,,2075478.0
1708002579.4375,18.94,,,2075162.0
1708002579.453125,15.67,,,2074725.0
1708002579.46875,12.07,,,2074686.0
1708002579.484375,8.26,,,2074604.0
1708002579.5,4.24,,,2074788.0
1708002579.515625,-0.03,,,2075323.0
1708002579.53125,-4.73,,,2075652.0
1708002579.546875,-10.04,,,2076339.0
1708002579.5625,-16.16,,,2076677.0
1708002579.578125,-23.24,,,2077151.0
1708002579.59375,-31.29,,,2077541.0
1708002579.609375,-40.05,,,2078263.0
1708002579.625,-49.0,,,2079006.0
1708002579.640625,-57.29,,,2080112.0
1708002579.65625,-64.03,,,2081394.0
1708002579.671875,-68.52,,,2082726.0
1708002579.6875,-70.52,,,2084159.0
1708002579.703125,-70.32,,,2085302.0
1708002579.71875,-68.6,,,2085742.0
1708002579.734375,-66.12,,,2084516.0
1708002579.75,-63.48,,,2082264.0
1708002579.765625,-60.96,,,2080715.0
1708002579.78125,-58.6,,,2079482.0
1708002579.796875,-56.37,,,2078891.0
1708002579.8125,-54.33,,,2078330.0
1708002579.828125,-52.69,,,2078036.0
1708002579.84375,-51.68,,,2077501.0
1708002579.859375,-51.43,,,2077057.0
1708002579.875,-51.87,,,2076717.0
1708002579.890625,-52.71,,,2076099.0
1708002579.90625,-53.63,,,2075959.0
1708002579.921875,-54.43,,,2075938.0
1708002579.9375,-55.06,,,2075896.0
1708002579.953125,-55.65,,,2076072.0
1708002579.96875,-56.25,,,2076422.0
1708002579.984375,-56.76,,,2076760.0
1708002580.0,-56.84,,,2076995.0
1708002580.015625,-55.96,,,2077126.0
1708002580.03125,-53.56,,,2077583.0
1708002580.046875,-49.25,,,2078395.0
1708002580.0625,-42.96,,,2078978.0
1708002580.078125,-35.05,,,2079730.0
1708002580.09375,-26.24,,,2080259.0
1708002580.109375,-17.45,,,2081105.0
1708002580.125,-9.57,,,2081764.0
1708002580.140625,-3.22,,,2082763.0
1708002580.15625,1.41,,,2082274.0
1708002580.171875,4.39,,,2079851.0
1708002580.1875,5.87,,,2077618.0
1708002580.203125,5.9,,,2075939.0
1708002580.21875,4.3,,,2074679.0
1708002580.234375,0.68,,,2073772.0
1708002580.25,-5.27,,,2073348.0
1708002580.265625,-13.67,,,2072828.0
1708002580.28125,-24.43,,,2071901.0
1708002580.296875,-37.32,,,2071087.0
1708002580.3125,-51.91,,,2070150.0
1708002580.328125,-67.4,,,2069322.0
1708002580.34375,-82.48,,,2069125.0
1708002580.359375,-95.57,,,2068896.0
1708002580.375,-105.37,,,2069226.0
1708002580.390625,-111.49,,,2069373.0
1708002580.40625,-114.77,,,2069413.0
1708002580.421875,-116.77,,,2069523.0
1708002580.4375,-118.74,,,2069893.0
1708002580.453125,-120.64,,,2069956.0
1708002580.46875,-120.86,,,2070352.0
1708002580.484375,-116.95,,,2070520.0
1708002580.5,-107.02,,,2070984.0
1708002580.515625,-90.87,,,2071512.0
1708002580.53125,-70.11,,,2072211.0
1708002580.546875,-47.09,,,2072083.0
1708002580.5625,-23.25,,,2070605.0
1708002580.578125,1.83,,,2068398.0
1708002580.59375,30.02,,,2067137.0
1708002580.609375,63.29,,,2066399.0
1708002580.625,102.14,,,2066308.0
1708002580.640625,145.14,,,2066603.0
1708002580.65625,189.58,,,2067012.0
1708002580.671875,232.51,,,2066964.0
1708002580.6875,271.47,,,2066610.0
1708002580.703125,304.52,,,2066490.0
1708002580.71875,329.91,,,2066693.0
1708002580.734375,345.81,,,2067246.0
1708002580.75,350.7,,,2067971.0
1708002580.765625,344.16,,,2068910.0
1708002580.78125,327.29,,,2069725.0
1708002580.796875,302.59,,,2070239.0
1708002580.8125,272.91,,,2070984.0
1708002580.828125,240.38,,,2071956.0
1708002580.84375,205.97,,,2072733.0
1708002580.859375,169.76,,,2073447.0
1708002580.875,131.82,,,2074364.0
1708002580.890625,93.04,,,2075191.0
1708002580.90625,55.22,,,2074455.0
1708002580.921875,20.54,,,2072382.0
1708002580.9375,-9.2,,,2070495.0
1708002580.953125,-33.07,,,2069393.0
1708002580.96875,-51.19,,,2068800.0
1708002580.984375,-64.43,,,2068260.0
1708002581.0,-74.05,,,2068537.0
1708002581.015625,-81.33,,,2068076.0
1708002581.03125,-87.31,,,2067829.0
1708002581.046875,-92.65,,,2067585.0
1708002581.0625,-97.74,,,2066970.0
1708002581.078125,-102.8,,,2067072.0
1708002581.09375,-107.92,,,2067314.0
1708002581.109375,-113.05,,,2067486.0
1708002581.125,-117.83,,,2067900.0
1708002581.140625,-121.53,,,2068439.0
1708002581.15625,-123.08,,,2068884.0
1708002581.171875,-121.46,,,2069168.0
1708002581.1875,-116.08,,,2069901.0
1708002581.203125,-107.19,,,2070290.0
1708002581.21875,-95.89,,,2071067.0
1708002581.234375,-83.91,,,2071525.0
1708002581.25,-73.04,,,2072238.0
1708002581.265625,-64.55,,,2072629.0
1708002581.28125,-58.83,,,2071065.0
1708002581.296875,-55.45,,,2068494.0
1708002581.3125,-53.41,,,2066270.0
1708002581.328125,-51.74,,,2064646.0
1708002581.34375,-49.82,,,2063380.0
1708002581.359375,-47.48,,,2062425.0
1708002581.375,-44.88,,,2061937.0
1708002581.390625,-42.19,,,2061276.0
1708002581.40625,-39.49,,,2060390.0
1708002581.421875,-36.71,,,2059566.0
1708002581.4375,-33.82,,,2058628.0
1708002581.453125,-30.97,,,2058247.0
1708002581.46875,-28.45,,,2057981.0
1708002581.484375,-26.65,,,2058088.0
1708002581.5,-25.86,,,2058181.0
1708002581.515625,-26.2,,,2058404.0
1708002581.53125,-27.61,,,2058649.0
1708002581.546875,-29.96,,,2059007.0
1708002581.5625,-33.02,,,2059483.0
1708002581.578125,-36.52,,,2060344.0
1708002581.59375,-40.04,,,2061532.0
1708002581.609375,-43.04,,,2062574.0
1708002581.625,-44.95,,,2063772.0
1708002581.640625,-45.27,,,2064800.0
1708002581.65625,-43.73,,,2065742.0
1708002581.671875,-40.33,,,2065048.0
1708002581.6875,-35.29,,,2062645.0
1708002581.703125,-28.96,,,2060226.0
1708002581.71875,-21.8,,,2058192.0
1708002581.734375,-14.26,,,2056940.0
1708002581.75,-6.87,,,2055987.0
1708002581.765625,-0.1,,,2055560.0
1708002581.78125,5.69,,,2054955.0
1708002581.796875,10.35,,,2053962.0
1708002581.8125,13.9,,,2052710.0
1708002581.828125,16.52,,,2051549.0
1708002581.84375,18.36,,,2050840.0
1708002581.859375,19.47,,,2050359.0
1708002581.875,19.8,,,2050168.0
1708002581.890625,19.31,,,2050207.0
1708002581.90625,18.07,,,2049996.0
1708002581.921875,16.35,,,2049929.0
1708002581.9375,14.54,,,2050099.0
1708002581.953125,13.09,,,2050142.0
1708002581.96875,12.37,,,2050363.0
1708002581.984375,12.6,,,2050503.0
1708002582.0,13.78,,,2050673.0
1708002582.015625,15.8,,,2050823.0
1708002582.03125,18.47,,,2051093.0
1708002582.046875,21.55,,,2051520.0
1708002582.0625,24.82,,,2052064.0
1708002582.078125,28.12,,,2052044.0
1708002582.09375,31.29,,,2050074.0
1708002582.109375,34.17,,,2047086.0
1708002582.125,36.63,,,2044861.0
1708002582.140625,38.53,,,2043349.0
1708002582.15625,39.81,,,2042461.0
1708002582.171875,40.51,,,2042064.0
1708002582.1875,40.76,,,2041737.0
1708002582.203125,40.7,,,2041487.0
1708002582.21875,40.42,,,2040772.0
1708002582.234375,39.87,,,2040075.0
1708002582.25,38.93,,,2039898.0
1708002582.265625,37.49,,,2040030.0
1708002582.28125,35.5,,,2040738.0
1708002582.296875,32.98,,,2041221.0
1708002582.3125,30.01,,,2041891.0
1708002582.328125,26.63,,,2042609.0
1708002582.34375,22.84,,,2043443.0
1708002582.359375,18.68,,,2044203.0
1708002582.375,14.21,,,2045057.0
1708002582.390625,9.61,,,2045979.0
1708002582.40625,5.12,,,2047014.0
1708002582.421875,0.9,,,2048096.0
1708002582.4375,-3.03,,,2049469.0
1708002582.453125,-6.73,,,2050886.0
1708002582.46875,-10.33,,,2052396.0
1708002582.484375,-13.92,,,2053998.0
1708002582.5,-17.46,,,2055263.0
1708002582.515625,-20.93,,,2054157.0
1708002582.53125,-24.35,,,2052531.0
1708002582.546875,-27.93,,,2050666.0
1708002582.5625,-32.02,,,2050750.0
1708002582.578125,-36.85,,,2050772.0
1708002582.59375,-42.42,,,2051290.0
1708002582.609375,-48.31,,,2051256.0
1708002582.625,-53.75,,,2051534.0
1708002582.640625,-57.79,,,2051840.0
1708002582.65625,-59.53,,,2052145.0
1708002582.671875,-58.35,,,2052588.0
1708002582.6875,-54.03,,,2052818.0
1708002582.703125,-46.77,,,2053144.0
1708002582.71875,-37.21,,,2053799.0
1708002582.734375,-26.28,,,2054468.0
1708002582.75,-15.13,,,2055417.0
1708002582.765625,-4.86,,,2051496.0
1708002582.78125,3.68,,,2054898.0
1708002582.796875,10.08,,,2055688.0
1708002582.8125,14.38,,,2056208.0
1708002582.828125,17.0,,,2056662.0
1708002582.84375,18.41,,,2057261.0
1708002582.859375,19.06,,,2057866.0
1708002582.875,19.15,,,2059534.0
1708002582.890625,18.77,,,2058864.0
1708002582.90625,17.97,,,2060834.0
1708002582.921875,16.89,,,2061113.0
1708002582.9375,15.75,,,2059631.0
1708002582.953125,14.85,,,2057327.0
1708002582.96875,14.44,,,2060158.0
1708002582.984375,14.65,,,2058264.0
1708002583.0,15.5,,,2055464.0
1708002583.015625,16.94,,,2054236.0
1708002583.03125,18.9,,,2053466.0
1708002583.046875,21.31,,,2053053.0
1708002583.0625,24.01,,,2052693.0
1708002583.078125,26.77,,,2052227.0
1708002583.09375,29.23,,,2051639.0
1708002583.109375,30.99,,,2051082.0
1708002583.125,31.8,,,2050536.0
1708002583.140625,31.61,,,2050277.0
1708002583.15625,30.63,,,2050301.0
1708002583.171875,29.14,,,2050497.0
1708002583.1875,27.42,,,2050734.0
1708002583.203125,25.53,,,2051130.0
1708002583.21875,23.4,,,2051601.0
1708002583.234375,20.84,,,2052008.0
1708002583.25,17.74,,,2052527.0
1708002583.265625,14.05,,,2052836.0
1708002583.28125,9.89,,,2053267.0
1708002583.296875,5.49,,,2053942.0
1708002583.3125,1.1,,,2054439.0
1708002583.328125,-3.03,,,2055231.0
1708002583.34375,-6.83,,,2056040.0
1708002583.359375,-10.6,,,2057458.0
1708002583.375,-15.19,,,2058570.0
1708002583.390625,-21.75,,,2058484.0
1708002583.40625,-31.24,,,2057282.0
1708002583.421875,-43.68,,,2055776.0
1708002583.4375,-57.68,,,2055313.0
1708002583.453125,-70.84,,,2055323.0
1708002583.46875,-80.64,,,2055853.0
1708002583.484375,-85.43,,,2056497.0
1708002583.5,-84.65,,,2057087.0
1708002583.515625,-78.46,,,2057425.0
1708002583.53125,-67.07,,,2057284.0
1708002583.546875,-50.47,,,2057582.0
1708002583.5625,-28.74,,,2057979.0
1708002583.578125,-2.7,,,2058610.0
1708002583.59375,25.66,,,2059561.0
1708002583.609375,53.54,,,2061882.0
1708002583.625,78.06,,,2060562.0
1708002583.640625,97.18,,,2062771.0
1708002583.65625,109.93,,,2063620.0
1708002583.671875,115.98,,,2064551.0
1708002583.6875,115.09,,,2065440.0
1708002583.703125,106.94,,,2066338.0
1708002583.71875,91.48,,,2067345.0
1708002583.734375,69.69,,,2068313.0
1708002583.75,43.99,,,2069494.0
1708002583.765625,17.75,,,2070628.0
1708002583.78125,-5.57,,,2071365.0
1708002583.796875,-23.45,,,2070575.0
1708002583.8125,-34.87,,,2068689.0
1708002583.828125,-40.26,,,2067023.0
1708002583.84375,-40.89,,,2065680.0
1708002583.859375,-38.32,,,2065177.0
1708002583.875,-33.93,,,2064749.0
1708002583.890625,-28.63,,,2064759.0
1708002583.90625,-23.02,,,2064415.0
1708002583.921875,-17.52,,,2063679.0
1708002583.9375,-12.58,,,2063065.0
1708002583.953125,-8.67,,,2062315.0
1708002583.96875,-6.13,,,2061911.0
1708002583.984375,-4.93,,,2061707.0
1708002584.0,-4.58,,,2061687.0
1708002584.015625,-4.31,,,2061943.0
1708002584.03125,-3.42,,,2062207.0
1708002584.046875,-1.68,,,2062459.0
1708002584.0625,0.58,,,2062824.0
1708002584.078125,2.65,,,2063243.0
1708002584.09375,3.91,,,2063608.0
1708002584.109375,4.15,,,2063882.0
1708002584.125,3.68,,,2064108.0
1708002584.140625,3.15,,,2064597.0
1708002584.15625,3.15,,,2065054.0
1708002584.171875,3.95,,,2065591.0
1708002584.1875,5.38,,,2065370.0
1708002584.203125,6.97,,,2062715.0
1708002584.21875,8.19,,,2059056.0
1708002584.234375,8.68,,,2056210.0
1708002584.25,8.37,,,2053922.0
1708002584.265625,7.45,,,2052162.0
1708002584.28125,6.22,,,2051025.0
1708002584.296875,4.92,,,2049830.0
1708002584.3125,3.65,,,2048653.0
1708002584.328125,2.36,,,2047272.0
1708002584.34375,0.89,,,2045685.0
1708002584.359375,-0.81,,,2044326.0
1708002584.375,-2.66,,,2043249.0
1708002584.390625,-4.45,,,2042603.0
1708002584.40625,-5.98,,,2042354.0
1708002584.421875,-7.16,,,2042031.0
1708002584.4375,-8.13,,,2041934.0
1708002584.453125,-9.17,,,2041921.0
1708002584.46875,-10.6,,,2041644.0
1708002584.484375,-12.65,,,2041716.0
1708002584.5,-15.37,,,2041964.0
1708002584.515625,-18.6,,,2042436.0
1708002584.53125,-21.98,,,2042986.0
1708002584.546875,-25.0,,,2043690.0
1708002584.5625,-27.05,,,2044394.0
1708002584.578125,-27.57,,,2044216.0
1708002584.59375,-26.17,,,2041948.0
1708002584.609375,-22.83,,,2039166.0
1708002584.625,-17.88,,,2036667.0
1708002584.640625,-11.97,,,2035188.0
1708002584.65625,-5.81,,,2034206.0
1708002584.671875,-0.02,,,2033776.0
1708002584.6875,4.99,,,2033425.0
1708002584.703125,9.05,,,2032830.0
1708002584.71875,12.13,,,2031952.0
1708002584.734375,14.23,,,2031016.0
1708002584.75,15.4,,,2030832.0
1708002584.765625,15.72,,,2030889.0
1708002584.78125,15.38,,,2031043.0
1708002584.796875,14.65,,,2031576.0
1708002584.8125,13.88,,,2032083.0
1708002584.828125,13.28,,,2032784.0
1708002584.84375,12.98,,,2034006.0
1708002584.859375,12.84,,,2034643.0
1708002584.875,12.71,,,2035502.0
1708002584.890625,12.43,,,2036077.0
1708002584.90625,12.04,,,2036924.0
1708002584.921875,11.76,,,2037844.0
1708002584.9375,11.89,,,2038599.0
1708002584.953125,12.66,,,2039581.0
1708002584.96875,14.02,,,2040756.0
1708002584.984375,15.73,,,2039303.0
1708002585.0,17.4,,,2036861.0
1708002585.015625,18.73,,,2034382.0
1708002585.03125,19.59,,,2032779.0
1708002585.046875,20.01,,,2031871.0
1708002585.0625,20.05,,,2031205.0
1708002585.078125,19.73,,,2030918.0
1708002585.09375,18.96,,,2030620.0
1708002585.109375,17.62,,,2029933.0
1708002585.125,15.72,,,2029263.0
1708002585.140625,13.45,,,2028743.0
1708002585.15625,11.09,,,2028570.0
1708002585.171875,8.97,,,2028647.0
1708002585.1875,7.25,,,2029070.0
1708002585.203125,5.88,,,2029729.0
1708002585.21875,4.65,,,2030419.0
1708002585.234375,3.32,,,2030989.0
1708002585.25,1.71,,,2031714.0
1708002585.265625,-0.19,,,2032304.0
1708002585.28125,-2.29,,,2033222.0
1708002585.296875,-4.42,,,2033866.0
1708002585.3125,-6.41,,,2034740.0
1708002585.328125,-8.16,,,2035908.0
1708002585.34375,-9.61,,,2036540.0
1708002585.359375,-10.77,,,2037572.0
1708002585.375,-11.73,,,2038583.0
1708002585.390625,-12.66,,,2039816.0
1708002585.40625,-13.78,,,2040222.0
1708002585.421875,-15.26,,,2038576.0
1708002585.4375,-17.09,,,2035886.0
1708002585.453125,-19.0,,,2033615.0
1708002585.46875,-20.49,,,2032435.0
1708002585.484375,-20.95,,,2031644.0
1708002585.5,-19.83,,,2030949.0
1708002585.515625,-16.89,,,2030513.0
1708002585.53125,-12.19,,,2030120.0
1708002585.546875,-6.14,,,2029167.0
1708002585.5625,0.67,,,2028262.0
1708002585.578125,7.71,,,2027678.0
1708002585.59375,14.55,,,2027207.0
1708002585.609375,20.92,,,2027193.0
1708002585.625,26.7,,,2027171.0
1708002585.640625,31.77,,,2027442.0
1708002585.65625,35.96,,,2027746.0
1708002585.671875,39.16,,,2028145.0
1708002585.6875,41.26,,,2028393.0
1708002585.703125,42.38,,,2028969.0
1708002585.71875,42.82,,,2029269.0
1708002585.734375,43.0,,,2029533.0
1708002585.75,43.32,,,2030237.0
1708002585.765625,43.99,,,2030970.0
1708002585.78125,45.04,,,2031534.0
1708002585.796875,46.4,,,2032294.0
1708002585.8125,48.1,,,2032956.0
1708002585.828125,50.32,,,2033753.0
1708002585.84375,53.34,,,2033915.0
1708002585.859375,57.34,,,2032353.0
1708002585.875,62.19,,,2030152.0
1708002585.890625,67.47,,,2028957.0
1708002585.90625,72.57,,,2028487.0
1708002585.921875,76.98,,,2028201.0
1708002585.9375,80.44,,,2028318.0
1708002585.953125,82.98,,,2028517.0
1708002585.96875,84.7,,,2028479.0
1708002585.984375,85.49,,,2028447.0
1708002586.0,84.96,,,2028386.0
1708002586.015625,82.45,,,2028453.0
1708002586.03125,77.4,,,2028726.0
1708002586.046875,69.56,,,2029371.0
1708002586.0625,59.05,,,2030287.0
1708002586.078125,46.16,,,2031187.0
1708002586.09375,31.05,,,2032143.0
1708002586.109375,13.65,,,2033145.0
1708002586.125,-6.25,,,2034070.0
1708002586.140625,-28.6,,,2035067.0
1708002586.15625,-52.81,,,2036638.0
1708002586.171875,-77.64,,,2037346.0
1708002586.1875,-101.48,,,2038477.0
1708002586.203125,-122.86,,,2039741.0
1708002586.21875,-140.69,,,2040904.0
1708002586.234375,-154.45,,,2042114.0
1708002586.25,-163.94,,,2043379.0
1708002586.265625,-169.08,,,2042911.0
1708002586.28125,-169.9,,,2040983.0
1708002586.296875,-166.65,,,2038967.0
1708002586.3125,-160.03,,,2038058.0
1708002586.328125,-151.09,,,2037608.0
1708002586.34375,-141.04,,,2037574.0
1708002586.359375,-130.74,,,2037798.0
1708002586.375,-120.4,,,2037899.0
1708002586.390625,-109.57,,,2037778.0
1708002586.40625,-97.46,,,2037573.0
1708002586.421875,-83.53,,,2037612.0
1708002586.4375,-68.0,,,2038030.0
1708002586.453125,-51.73,,,2038609.0
1708002586.46875,-35.84,,,2039252.0
1708002586.484375,-21.0,,,2039899.0
1708002586.5,-7.1,,,2040596.0
1708002586.515625,6.5,,,2041705.0
1708002586.53125,20.3,,,2042624.0
1708002586.546875,34.24,,,2043281.0
1708002586.5625,47.61,,,2044212.0
1708002586.578125,59.51,,,2045103.0
1708002586.59375,69.5,,,2046100.0
1708002586.609375,77.74,,,2047238.0
1708002586.625,84.62,,,2048340.0
1708002586.640625,90.06,,,2049368.0
1708002586.65625,93.16,,,2050793.0
1708002586.671875,92.4,,,2052082.0
1708002586.6875,86.67,,,2053245.0
1708002586.703125,76.17,,,2054208.0
1708002586.71875,62.74,,,2053173.0
1708002586.734375,49.25,,,2051178.0
1708002586.75,38.33,,,2049555.0
1708002586.765625,31.31,,,2048528.0
1708002586.78125,27.87,,,2047905.0
1708002586.796875,26.61,,,2047578.0
1708002586.8125,25.9,,,2047528.0
1708002586.828125,24.71,,,2047245.0
1708002586.84375,22.76,,,2046916.0
1708002586.859375,20.32,,,2046404.0
1708002586.875,17.71,,,2045695.0
1708002586.890625,15.06,,,2045300.0
1708002586.90625,12.22,,,2045395.0
1708002586.921875,9.01,,,2045541.0
1708002586.9375,5.38,,,2045776.0
1708002586.953125,1.49,,,2046015.0
1708002586.96875,-2.4,,,2046094.0
1708002586.984375,-6.04,,,2046568.0
1708002587.0,-9.38,,,2046827.0
1708002587.015625,-12.46,,,2047103.0
1708002587.03125,-15.44,,,2047500.0
1708002587.046875,-18.49,,,2047914.0
1708002587.0625,-21.7,,,2048557.0
1708002587.078125,-25.12,,,2049383.0
1708002587.09375,-28.69,,,2050142.0
1708002587.109375,-32.27,,,2050877.0
1708002587.125,-35.58,,,2051915.0
1708002587.140625,-38.32,,,2052634.0
1708002587.15625,-40.26,,,2051728.0
1708002587.171875,-41.39,,,2049549.0
1708002587.1875,-41.95,,,2046927.0
1708002587.203125,-42.42,,,2045251.0
1708002587.21875,-43.32,,,2044408.0
1708002587.234375,-45.03,,,2043908.0
1708002587.25,-47.58,,,2043752.0
1708002587.265625,-50.64,,,2043492.0
1708002587.28125,-53.53,,,2042987.0
1708002587.296875,-55.51,,,2042100.0
1708002587.3125,-55.97,,,2041702.0
1708002587.328125,-54.65,,,2041663.0
1708002587.34375,-51.61,,,2041697.0
1708002587.359375,-47.16,,,2041962.0
1708002587.375,-41.7,,,2042255.0
1708002587.390625,-35.55,,,2042896.0
1708002587.40625,-28.99,,,2043617.0
1708002587.421875,-22.26,,,2044467.0
1708002587.4375,-15.66,,,2044855.0
1708002587.453125,-9.56,,,2045785.0
1708002587.46875,-4.29,,,2046695.0
1708002587.484375,-0.05,,,2047645.0
1708002587.5,3.17,,,2048645.0
1708002587.515625,5.48,,,2049621.0
1708002587.53125,7.02,,,2050817.0
1708002587.546875,7.87,,,2051843.0
1708002587.5625,8.07,,,2052547.0
1708002587.578125,7.72,,,2051297.0
1708002587.59375,7.07,,,2049315.0
1708002587.609375,6.5,,,2047257.0
1708002587.625,6.41,,,2045844.0
1708002587.640625,7.04,,,2045212.0
1708002587.65625,8.39,,,2044711.0
1708002587.671875,10.24,,,2044859.0
1708002587.6875,12.25,,,2043493.0
1708002587.703125,14.14,,,2044668.0
1708002587.71875,15.82,,,2044031.0
1708002587.734375,17.31,,,2043023.0
1708002587.75,18.65,,,2042915.0
1708002587.765625,19.78,,,2043007.0
1708002587.78125,20.53,,,2043410.0
1708002587.796875,20.7,,,2043875.0
1708002587.8125,20.2,,,2044469.0
1708002587.828125,19.16,,,2044886.0
1708002587.84375,17.9,,,2045607.0
1708002587.859375,16.77,,,2046155.0
1708002587.875,15.99,,,2046531.0
1708002587.890625,15.46,,,2047202.0
1708002587.90625,14.9,,,2048315.0
1708002587.921875,13.91,,,2050293.0
1708002587.9375,12.31,,,2050506.0
1708002587.953125,10.19,,,2049345.0
1708002587.96875,7.89,,,2048942.0
1708002587.984375,5.75,,,2047765.0
1708002588.0,3.96,,,2044673.0
1708002588.015625,2.44,,,2044673.0
1708002588.03125,0.9,,,2038995.0
1708002588.046875,-0.96,,,2033547.0
1708002588.0625,-3.26,,,2028811.0
1708002588.078125,-5.91,,,2025076.0
1708002588.09375,-8.7,,,2022514.0
1708002588.109375,-11.4,,,2019297.0
1708002588.125,-13.94,,,2016568.0
1708002588.140625,-16.37,,,2014942.0
1708002588.15625,-18.82,,,2013269.0
1708002588.171875,-21.42,,,2012897.0
1708002588.1875,-24.16,,,2013941.0
1708002588.203125,-27.03,,,2015674.0
1708002588.21875,-29.96,,,2017491.0
1708002588.234375,-32.94,,,2019712.0
1708002588.25,-35.97,,,2022583.0
1708002588.265625,-39.01,,,2025466.0
1708002588.28125,-41.86,,,2027716.0
1708002588.296875,-44.11,,,2029713.0
1708002588.3125,-45.18,,,2031304.0
1708002588.328125,-44.45,,,2032902.0
1708002588.34375,-41.53,,,2034803.0
1708002588.359375,-36.43,,,2036207.0
1708002588.375,-29.6,,,2037594.0
1708002588.390625,-21.85,,,2039062.0
1708002588.40625,-14.11,,,2040306.0
1708002588.421875,-7.18,,,2041231.0
1708002588.4375,-1.62,,,2042358.0
1708002588.453125,2.36,,,2041499.0
1708002588.46875,4.74,,,2038546.0
1708002588.484375,5.63,,,2035466.0
1708002588.5,5.22,,,2033144.0
1708002588.515625,3.74,,,2031660.0
1708002588.53125,1.46,,,2030115.0
1708002588.546875,-1.29,,,2029312.0
1708002588.5625,-4.28,,,2028548.0
1708002588.578125,-7.38,,,2027411.0
1708002588.59375,-10.6,,,2026409.0
1708002588.609375,-14.12,,,2025098.0
1708002588.625,-18.14,,,2024339.0
1708002588.640625,-22.75,,,2024012.0
1708002588.65625,-27.75,,,2023824.0
1708002588.671875,-32.71,,,2023894.0
1708002588.6875,-37.03,,,2024076.0
1708002588.703125,-40.32,,,2024178.0
1708002588.71875,-42.68,,,2024365.0
1708002588.734375,-44.75,,,2024488.0
1708002588.75,-47.47,,,2024612.0
1708002588.765625,-51.55,,,2024855.0
1708002588.78125,-57.15,,,2025188.0
1708002588.796875,-63.63,,,2025851.0
1708002588.8125,-69.93,,,2026992.0
1708002588.828125,-74.99,,,2028629.0
1708002588.84375,-78.09,,,2029867.0
1708002588.859375,-78.93,,,2031134.0
1708002588.875,-77.31,,,2031010.0
1708002588.890625,-72.96,,,2029013.0
1708002588.90625,-65.6,,,2025406.0
1708002588.921875,-55.13,,,2022173.0
1708002588.9375,-41.78,,,2021170.0
1708002588.953125,-26.14,,,2020905.0
1708002588.96875,-8.75,,,2021913.0
1708002588.984375,10.31,,,2023388.0
1708002589.0,31.52,,,2024878.0
1708002589.015625,55.43,,,2025856.0
1708002589.03125,81.91,,,2027242.0
1708002589.046875,109.58,,,2028410.0
1708002589.0625,135.81,,,2029993.0
1708002589.078125,157.68,,,2031535.0
1708002589.09375,173.1,,,2033131.0
1708002589.109375,181.58,,,2034658.0
1708002589.125,184.21,,,2036066.0
1708002589.140625,182.66,,,2037470.0
1708002589.15625,178.15,,,2038892.0
1708002589.171875,170.73,,,2040281.0
1708002589.1875,159.55,,,2041955.0
1708002589.203125,143.68,,,2043352.0
1708002589.21875,122.97,,,2044781.0
1708002589.234375,98.41,,,2046162.0
1708002589.25,71.9,,,2047245.0
1708002589.265625,45.5,,,2048637.0
1708002589.28125,20.65,,,2049781.0
1708002589.296875,-1.96,,,2049494.0
1708002589.3125,-22.18,,,2047685.0
1708002589.328125,-40.01,,,2044903.0
1708002589.34375,-55.2,,,2043125.0
1708002589.359375,-67.29,,,2042078.0
1708002589.375,-75.8,,,2041232.0
1708002589.390625,-80.41,,,2040722.0
1708002589.40625,-81.17,,,2040564.0
1708002589.421875,-78.58,,,2040237.0
1708002589.4375,-73.41,,,2039190.0
1708002589.453125,-66.61,,,2038367.0
1708002589.46875,-59.06,,,2037511.0
1708002589.484375,-51.42,,,2037013.0
1708002589.5,-44.03,,,2036907.0
1708002589.515625,-36.98,,,2037162.0
1708002589.53125,-30.25,,,2037004.0
1708002589.546875,-23.93,,,2037288.0
1708002589.5625,-18.28,,,2037427.0
1708002589.578125,-13.62,,,2037508.0
1708002589.59375,-10.18,,,2037691.0
1708002589.609375,-7.87,,,2037653.0
1708002589.625,-6.25,,,2037643.0
1708002589.640625,-4.63,,,2037907.0
1708002589.65625,-2.33,,,2038343.0
1708002589.671875,1.06,,,2038628.0
1708002589.6875,5.44,,,2038893.0
1708002589.703125,10.34,,,2039270.0
1708002589.71875,15.13,,,2039668.0
1708002589.734375,19.28,,,2038538.0
1708002589.75,22.59,,,2034788.0
1708002589.765625,25.21,,,2030312.0
1708002589.78125,27.46,,,2026582.0
1708002589.796875,29.61,,,2023710.0
1708002589.8125,31.77,,,2021204.0
1708002589.828125,33.79,,,2019446.0
1708002589.84375,35.39,,,2018039.0
1708002589.859375,36.29,,,2015976.0
1708002589.875,36.35,,,2013805.0
1708002589.890625,35.59,,,2011768.0
1708002589.90625,34.16,,,2009887.0
1708002589.921875,32.27,,,2008753.0
1708002589.9375,30.06,,,2007748.0
1708002589.953125,27.62,,,2006129.0
1708002589.96875,24.99,,,2003764.0
1708002589.984375,22.19,,,2000389.0
1708002590.0,19.23,,,1998545.0
1708002590.015625,16.22,,,1998141.0
1708002590.03125,13.28,,,1997946.0
1708002590.046875,10.56,,,1999289.0
1708002590.0625,8.12,,,2001928.0
1708002590.078125,5.92,,,2004454.0
1708002590.09375,3.81,,,2007180.0
1708002590.109375,1.57,,,2009432.0
1708002590.125,-0.95,,,2011987.0
1708002590.140625,-3.81,,,2013531.0
1708002590.15625,-6.86,,,2012088.0
1708002590.171875,-9.84,,,2008533.0
1708002590.1875,-12.53,,,2005527.0
1708002590.203125,-14.86,,,2003462.0
1708002590.21875,-16.98,,,2002475.0
1708002590.234375,-19.2,,,2002106.0
1708002590.25,-21.84,,,2002111.0
1708002590.265625,-25.06,,,2001493.0
1708002590.28125,-28.72,,,2000343.0
1708002590.296875,-32.41,,,1999286.0
1708002590.3125,-35.44,,,1998702.0
1708002590.328125,-37.1,,,1998436.0
1708002590.34375,-36.76,,,1998909.0
1708002590.359375,-34.08,,,2000300.0
1708002590.375,-29.06,,,1999555.0
1708002590.390625,-22.11,,,2001247.0
1708002590.40625,-13.91,,,2001787.0
1708002590.421875,-5.35,,,2003004.0
1708002590.4375,2.7,,,2004822.0
1708002590.453125,9.54,,,2003712.0
1708002590.46875,14.8,,,2005908.0
1708002590.484375,18.41,,,2007040.0
1708002590.5,20.61,,,2008262.0
1708002590.515625,21.71,,,2009452.0
1708002590.53125,21.98,,,2010876.0
1708002590.546875,21.63,,,2012155.0
1708002590.5625,20.78,,,2011208.0
1708002590.578125,19.56,,,2006982.0
1708002590.59375,18.23,,,2002134.0
1708002590.609375,17.13,,,1998678.0
1708002590.625,16.64,,,1996387.0
1708002590.640625,17.06,,,1994629.0
1708002590.65625,18.5,,,1993780.0
1708002590.671875,20.82,,,1993067.0
1708002590.6875,23.76,,,1992473.0
1708002590.703125,26.93,,,1991306.0
1708002590.71875,29.98,,,1990173.0
1708002590.734375,32.65,,,1989511.0
1708002590.75,34.76,,,1989556.0
1708002590.765625,36.2,,,1990154.0
1708002590.78125,36.91,,,1990884.0
1708002590.796875,36.9,,,1991705.0
1708002590.8125,36.19,,,1992316.0
1708002590.828125,34.87,,,1993336.0
1708002590.84375,33.03,,,1994064.0
1708002590.859375,30.87,,,1994837.0
1708002590.875,28.59,,,1995551.0
1708002590.890625,26.41,,,1996322.0
1708002590.90625,24.41,,,1996322.0
1708002590.921875,22.55,,,1997391.0
1708002590.9375,20.66,,,1998392.0
1708002590.953125,18.46,,,1999314.0
1708002590.96875,15.81,,,2000604.0
1708002590.984375,12.73,,,2002277.0
1708002591.0,9.41,,,2004006.0
1708002591.015625,6.22,,,2002782.0
1708002591.03125,3.46,,,1998776.0
1708002591.046875,1.32,,,1994615.0
1708002591.0625,-0.3,,,1992142.0
1708002591.078125,-1.68,,,1990465.0
1708002591.09375,-3.27,,,1989667.0
1708002591.109375,-5.49,,,1989075.0
1708002591.125,-8.67,,,1988731.0
1708002591.140625,-12.92,,,1988300.0
1708002591.15625,-18.16,,,1987707.0
1708002591.171875,-24.1,,,1986823.0
1708002591.1875,-30.27,,,1986655.0
1708002591.203125,-36.09,,,1986956.0
1708002591.21875,-40.99,,,1987769.0
1708002591.234375,-44.48,,,1988735.0
1708002591.25,-46.17,,,1989927.0
1708002591.265625,-45.97,,,1990943.0
1708002591.28125,-44.0,,,1991887.0
1708002591.296875,-40.58,,,1992844.0
1708002591.3125,-36.19,,,1993958.0
1708002591.328125,-31.28,,,1995280.0
1708002591.34375,-26.27,,,1996538.0
1708002591.359375,-21.5,,,1997688.0
1708002591.375,-17.31,,,1999169.0
1708002591.390625,-13.99,,,2000829.0
1708002591.40625,-11.83,,,2002231.0
1708002591.421875,-10.94,,,2003938.0
1708002591.4375,-11.21,,,2005227.0
1708002591.453125,-12.26,,,2003940.0
1708002591.46875,-13.57,,,2000862.0
1708002591.484375,-14.7,,,1997927.0
1708002591.5,-15.42,,,1996134.0
1708002591.515625,-15.74,,,1995241.0
1708002591.53125,-15.84,,,1995248.0
1708002591.546875,-15.84,,,1995453.0
1708002591.5625,-15.73,,,1995211.0
1708002591.578125,-15.3,,,1995075.0
1708002591.59375,-14.32,,,1995042.0
1708002591.609375,-12.66,,,1995224.0
1708002591.625,-10.39,,,1995300.0
1708002591.640625,-7.72,,,1996156.0
1708002591.65625,-4.91,,,1997683.0
1708002591.671875,-2.13,,,1998909.0
1708002591.6875,0.53,,,2000362.0
1708002591.703125,3.05,,,2001960.0
1708002591.71875,5.34,,,2003409.0
1708002591.734375,7.22,,,2003676.0
1708002591.75,8.43,,,2004813.0
1708002591.765625,8.72,,,2005396.0
1708002591.78125,7.96,,,2003868.0
1708002591.796875,6.22,,,2004437.0
1708002591.8125,3.77,,,2005642.0
1708002591.828125,0.99,,,2006525.0
1708002591.84375,-1.72,,,2006860.0
1708002591.859375,-4.08,,,2003970.0
1708002591.875,-5.98,,,2000885.0
1708002591.890625,-7.5,,,1998731.0
1708002591.90625,-8.86,,,1997479.0
1708002591.921875,-10.27,,,1996624.0
1708002591.9375,-11.89,,,1995402.0
1708002591.953125,-13.73,,,1992223.0
1708002591.96875,-15.68,,,1989736.0
1708002591.984375,-17.59,,,1988912.0
1708002592.0,-19.3,,,1988061.0
1708002592.015625,-20.8,,,1990596.0
1708002592.03125,-22.14,,,1992944.0
1708002592.046875,-23.46,,,1997243.0
1708002592.0625,-24.95,,,2001505.0
1708002592.078125,-26.73,,,2005073.0
1708002592.09375,-28.84,,,2007877.0
1708002592.109375,-31.3,,,2010978.0
1708002592.125,-34.09,,,2013885.0
1708002592.140625,-37.18,,,1989459.0
1708002592.15625,-40.48,,,2016467.0
1708002592.171875,-43.78,,,2018926.0
1708002592.1875,-46.67,,,2021549.0
1708002592.203125,-48.63,,,2023823.0
1708002592.21875,-49.03,,,2025930.0
1708002592.234375,-47.4,,,2028272.0
1708002592.25,-43.55,,,2030317.0
1708002592.265625,-37.65,,,2032005.0
1708002592.28125,-30.21,,,2031691.0
1708002592.296875,-21.94,,,2029612.0
1708002592.3125,-13.52,,,2027495.0
1708002592.328125,-5.46,,,2026085.0
1708002592.34375,1.93,,,2025264.0
1708002592.359375,8.5,,,2025677.0
1708002592.375,14.17,,,2025570.0
1708002592.390625,18.85,,,2025570.0
1708002592.40625,22.43,,,2025457.0
1708002592.421875,24.83,,,2025195.0
1708002592.4375,26.05,,,2025302.0
1708002592.453125,26.3,,,2025439.0
1708002592.46875,25.91,,,2025792.0
1708002592.484375,25.28,,,2026569.0
1708002592.5,24.76,,,2028187.0
1708002592.515625,24.54,,,2027242.0
1708002592.53125,24.72,,,2029222.0
1708002592.546875,25.29,,,2030345.0
1708002592.5625,26.29,,,2031226.0
1708002592.578125,27.73,,,2032366.0
1708002592.59375,29.61,,,2033372.0
1708002592.609375,31.82,,,2034536.0
1708002592.625,34.17,,,2035692.0
1708002592.640625,36.36,,,2037021.0
1708002592.65625,38.17,,,2038297.0
1708002592.671875,39.42,,,2039258.0
1708002592.6875,40.06,,,2040649.0
1708002592.703125,40.15,,,2041659.0
1708002592.71875,39.75,,,2040781.0
1708002592.734375,38.94,,,2037812.0
1708002592.75,37.79,,,2034498.0
1708002592.765625,36.33,,,2032226.0
1708002592.78125,34.61,,,2030568.0
1708002592.796875,32.62,,,2029321.0
1708002592.8125,30.36,,,2028401.0
1708002592.828125,27.85,,,2027702.0
1708002592.84375,25.17,,,2026990.0
1708002592.859375,22.46,,,2025440.0
1708002592.875,19.87,,,2024239.0
1708002592.890625,17.49,,,2023379.0
1708002592.90625,15.28,,,2022695.0
1708002592.921875,13.08,,,2022365.0
1708002592.9375,10.7,,,2022255.0
1708002592.953125,8.03,,,2022680.0
1708002592.96875,5.06,,,2023043.0
1708002592.984375,1.96,,,2022825.0
1708002593.0,-1.07,,,2023157.0
1708002593.015625,-3.84,,,2023619.0
1708002593.03125,-6.27,,,2024216.0
1708002593.046875,-8.4,,,2024708.0
1708002593.0625,-10.36,,,2025185.0
1708002593.078125,-12.23,,,2025986.0
1708002593.09375,-14.08,,,2026676.0
1708002593.109375,-15.94,,,2027303.0
1708002593.125,-17.85,,,2028387.0
1708002593.140625,-19.92,,,2028830.0
1708002593.15625,-22.24,,,2027291.0
1708002593.171875,-24.8,,,2023689.0
1708002593.1875,-27.29,,,2020696.0
1708002593.203125,-29.09,,,2019213.0
1708002593.21875,-29.29,,,2018254.0
1708002593.234375,-27.06,,,2017718.0
1708002593.25,-21.96,,,2017609.0
1708002593.265625,-14.15,,,2017276.0
1708002593.28125,-4.36,,,2016878.0
1708002593.296875,6.31,,,2016166.0
1708002593.3125,16.78,,,2015643.0
1708002593.328125,26.26,,,2015513.0
1708002593.34375,34.32,,,2015998.0
1708002593.359375,40.83,,,2016818.0
1708002593.375,45.8,,,2017685.0
1708002593.390625,49.23,,,2018413.0
1708002593.40625,51.18,,,2019390.0
1708002593.421875,51.75,,,2020300.0
1708002593.4375,51.21,,,2021524.0
1708002593.453125,49.97,,,2022693.0
1708002593.46875,48.47,,,2023862.0
1708002593.484375,47.1,,,2025123.0
1708002593.5,46.1,,,2026518.0
1708002593.515625,45.58,,,2028109.0
1708002593.53125,45.48,,,2029516.0
1708002593.546875,45.65,,,2030105.0
1708002593.5625,45.84,,,2027737.0
1708002593.578125,45.81,,,2024646.0
1708002593.59375,45.3,,,2022097.0
1708002593.609375,44.18,,,2020606.0
1708002593.625,42.26,,,2019449.0
1708002593.640625,39.39,,,2018938.0
1708002593.65625,35.36,,,2018765.0
1708002593.671875,30.03,,,2018590.0
1708002593.6875,23.57,,,2017813.0
1708002593.703125,16.44,,,2017188.0
1708002593.71875,9.34,,,2016836.0
1708002593.734375,2.79,,,2016780.0
1708002593.75,-3.14,,,2017120.0
1708002593.765625,-9.0,,,2017998.0
1708002593.78125,-15.67,,,2018737.0
1708002593.796875,-23.75,,,2019542.0
1708002593.8125,-33.12,,,2020488.0
1708002593.828125,-42.84,,,2021219.0
1708002593.84375,-51.46,,,2022148.0
1708002593.859375,-57.84,,,2022874.0
1708002593.875,-61.64,,,2023879.0
1708002593.890625,-63.58,,,2024747.0
1708002593.90625,-65.07,,,2025858.0
1708002593.921875,-67.39,,,2026871.0
1708002593.9375,-71.21,,,2028245.0
1708002593.953125,-76.21,,,2029432.0
1708002593.96875,-81.39,,,2030056.0
1708002593.984375,-85.66,,,2028136.0
1708002594.0,-88.27,,,2024656.0
1708002594.015625,-89.25,,,2021198.0
1708002594.03125,-89.2,,,2018972.0
1708002594.046875,-89.05,,,2017525.0
1708002594.0625,-89.59,,,2016612.0
1708002594.078125,-91.22,,,2016208.0
1708002594.09375,-93.9,,,2015621.0
1708002594.109375,-97.06,,,2014847.0
1708002594.125,-99.67,,,2014190.0
1708002594.140625,-100.28,,,2013809.0
1708002594.15625,-97.1,,,2013678.0
1708002594.171875,-88.4,,,2013853.0
1708002594.1875,-72.94,,,2014687.0
1708002594.203125,-50.31,,,2015257.0
1708002594.21875,-21.25,,,2016503.0
1708002594.234375,12.28,,,2017350.0
1708002594.25,47.37,,,2018182.0
1708002594.265625,80.87,,,2018900.0
1708002594.28125,110.18,,,2019544.0
1708002594.296875,134.0,,,2020524.0
1708002594.3125,152.4,,,2021409.0
1708002594.328125,166.34,,,2022369.0
1708002594.34375,176.63,,,2023368.0
1708002594.359375,183.15,,,2024414.0
1708002594.375,184.56,,,2025587.0
1708002594.390625,178.98,,,2026929.0
1708002594.40625,165.02,,,2027416.0
1708002594.421875,142.84,,,2025619.0
1708002594.4375,114.48,,,2022123.0
1708002594.453125,83.32,,,2018893.0
1708002594.46875,53.05,,,2016767.0
1708002594.484375,26.54,,,2015437.0
1708002594.5,5.36,,,2014486.0
1708002594.515625,-10.24,,,2013749.0
1708002594.53125,-20.86,,,2013335.0
1708002594.546875,-27.45,,,2012508.0
1708002594.5625,-31.08,,,2011181.0
1708002594.578125,-32.71,,,2010535.0
1708002594.59375,-33.24,,,2010046.0
1708002594.609375,-33.47,,,2009735.0
1708002594.625,-34.15,,,2010096.0
1708002594.640625,-35.9,,,2010220.0
1708002594.65625,-39.02,,,2010659.0
1708002594.671875,-43.35,,,2011058.0
1708002594.6875,-48.19,,,2011626.0
1708002594.703125,-52.49,,,2012197.0
1708002594.71875,-55.25,,,2012599.0
1708002594.734375,-55.9,,,2013465.0
1708002594.75,-54.63,,,2014222.0
1708002594.765625,-52.21,,,2015251.0
1708002594.78125,-49.7,,,2016302.0
1708002594.796875,-47.91,,,2016987.0
1708002594.8125,-47.12,,,2015670.0
1708002594.828125,-47.05,,,2014402.0
1708002594.84375,-47.09,,,2014402.0
1708002594.859375,-46.65,,,2010633.0
1708002594.875,-45.41,,,2006996.0
1708002594.890625,-43.48,,,2004865.0
1708002594.90625,-41.24,,,2003714.0
1708002594.921875,-39.17,,,2002870.0
1708002594.9375,-37.63,,,2003166.0
1708002594.953125,-36.79,,,2002851.0
1708002594.96875,-36.64,,,2001782.0
1708002594.984375,-37.1,,,2000296.0
1708002595.0,-38.09,,,1999971.0
1708002595.015625,-39.59,,,1999224.0
1708002595.03125,-41.53,,,2000360.0
1708002595.046875,-43.74,,,2000854.0
1708002595.0625,-45.79,,,2001954.0
1708002595.078125,-47.03,,,2005026.0
1708002595.09375,-46.74,,,2007945.0
1708002595.109375,-44.35,,,2010610.0
1708002595.125,-39.63,,,2012784.0
1708002595.140625,-32.82,,,2015530.0
1708002595.15625,-24.5,,,2018392.0
1708002595.171875,-15.44,,,2020834.0
1708002595.1875,-6.37,,,2023156.0
1708002595.203125,2.13,,,2025552.0
1708002595.21875,9.67,,,2027955.0
1708002595.234375,16.03,,,2030207.0
1708002595.25,21.06,,,2030027.0
1708002595.265625,24.72,,,2028471.0
1708002595.28125,27.06,,,2026978.0
1708002595.296875,28.28,,,2026567.0
1708002595.3125,28.7,,,2026615.0
1708002595.328125,28.67,,,2026890.0
1708002595.34375,28.47,,,2027459.0
1708002595.359375,28.21,,,2028260.0
1708002595.375,27.86,,,2028575.0
1708002595.390625,27.3,,,2028896.0
1708002595.40625,26.47,,,2029089.0
1708002595.421875,25.5,,,2029702.0
1708002595.4375,24.66,,,2030748.0
1708002595.453125,24.31,,,2031458.0
1708002595.46875,24.76,,,2032874.0
1708002595.484375,26.1,,,2034219.0
1708002595.5,28.16,,,2035567.0
1708002595.515625,30.52,,,2037027.0
1708002595.53125,32.65,,,2038164.0
1708002595.546875,34.09,,,2040997.0
1708002595.5625,34.49,,,2039606.0
1708002595.578125,33.78,,,2042257.0
1708002595.59375,32.1,,,2043349.0
1708002595.609375,29.77,,,2044799.0
1708002595.625,27.21,,,2046380.0
1708002595.640625,24.77,,,2047352.0
1708002595.65625,22.64,,,2046011.0
1708002595.671875,20.81,,,2043709.0
1708002595.6875,19.11,,,2041820.0
1708002595.703125,17.27,,,2040807.0
1708002595.71875,15.07,,,2039944.0
1708002595.734375,12.39,,,2039469.0
1708002595.75,9.27,,,2039362.0
1708002595.765625,5.91,,,2039065.0
1708002595.78125,2.59,,,2038534.0
1708002595.796875,-0.43,,,2037868.0
1708002595.8125,-3.01,,,2037276.0
1708002595.828125,-5.16,,,2037288.0
1708002595.84375,-7.04,,,2037124.0
1708002595.859375,-8.92,,,2037701.0
1708002595.875,-11.01,,,2037929.0
1708002595.890625,-13.41,,,2038437.0
1708002595.90625,-16.1,,,2038666.0
1708002595.921875,-18.96,,,2039225.0
1708002595.9375,-21.88,,,2039655.0
1708002595.953125,-24.86,,,2040158.0
1708002595.96875,-28.05,,,2040488.0
1708002595.984375,-31.71,,,2040804.0
1708002596.0,-36.11,,,2041314.0
1708002596.015625,-41.39,,,2041879.0
1708002596.03125,-47.5,,,2042465.0
1708002596.046875,-54.11,,,2042664.0
1708002596.0625,-60.7,,,2040661.0
1708002596.078125,-66.52,,,2038275.0
1708002596.09375,-70.74,,,2036333.0
1708002596.109375,-72.58,,,2035091.0
1708002596.125,-71.49,,,2034541.0
1708002596.140625,-67.36,,,2034306.0
1708002596.15625,-60.62,,,2034930.0
1708002596.171875,-52.16,,,2035052.0
1708002596.1875,-43.16,,,2034774.0
1708002596.203125,-34.75,,,2034519.0
1708002596.21875,-27.72,,,2034564.0
1708002596.234375,-22.43,,,2035206.0
1708002596.25,-18.78,,,2035917.0
1708002596.265625,-16.44,,,2036961.0
1708002596.28125,-15.02,,,2037869.0
1708002596.296875,-14.15,,,2038952.0
1708002596.3125,-13.56,,,2040189.0
1708002596.328125,-13.05,,,2041241.0
1708002596.34375,-12.46,,,2042459.0
1708002596.359375,-11.59,,,2043599.0
1708002596.375,-10.21,,,2044896.0
1708002596.390625,-8.05,,,2046433.0
1708002596.40625,-4.76,,,2047690.0
1708002596.421875,0.03,,,2049300.0
1708002596.4375,6.66,,,2050738.0
1708002596.453125,15.28,,,2051685.0
1708002596.46875,25.68,,,2051047.0
1708002596.484375,37.21,,,2049112.0
1708002596.5,48.91,,,2047527.0
1708002596.515625,59.68,,,2046764.0
1708002596.53125,68.69,,,2045990.0
1708002596.546875,75.59,,,2046275.0
1708002596.5625,80.6,,,2046219.0
1708002596.578125,84.34,,,2046050.0
1708002596.59375,87.56,,,2045688.0
1708002596.609375,90.88,,,2045494.0
1708002596.625,94.71,,,2045644.0
1708002596.640625,99.36,,,2045938.0
1708002596.65625,104.86,,,2046241.0
1708002596.671875,110.95,,,2046737.0
1708002596.6875,116.97,,,2047487.0
1708002596.703125,122.17,,,2050689.0
1708002596.71875,126.12,,,2048232.0
1708002596.734375,129.02,,,2049809.0
1708002596.75,131.58,,,2048900.0
1708002596.765625,134.39,,,2051562.0
1708002596.78125,137.17,,,2055504.0
1708002596.796875,138.44,,,2057431.0
1708002596.8125,135.8,,,2052470.0
1708002596.828125,126.94,,,2053462.0
1708002596.84375,110.72,,,2054256.0
1708002596.859375,87.66,,,2056355.0
1708002596.875,59.78,,,2058117.0
1708002596.890625,29.73,,,2052230.0
1708002596.90625,-0.04,,,2048309.0
1708002596.921875,-27.76,,,2056126.0
1708002596.9375,-52.32,,,2044934.0
1708002596.953125,-73.06,,,2042558.0
1708002596.96875,-89.63,,,2040548.0
1708002596.984375,-101.95,,,2039527.0
1708002597.0,-110.42,,,2038877.0
1708002597.015625,-115.88,,,2037527.0
1708002597.03125,-119.42,,,2035993.0
1708002597.046875,-122.13,,,2034125.0
1708002597.0625,-124.79,,,2033595.0
1708002597.078125,-127.67,,,2033708.0
1708002597.09375,-130.5,,,2033644.0
1708002597.109375,-132.48,,,2034877.0
1708002597.125,-132.51,,,2033618.0
1708002597.140625,-129.58,,,2033768.0
1708002597.15625,-123.09,,,2033943.0
1708002597.171875,-113.07,,,2034054.0
1708002597.1875,-100.21,,,2034453.0
1708002597.203125,-85.65,,,2034717.0
1708002597.21875,-70.61,,,2034983.0
1708002597.234375,-56.07,,,2033738.0
1708002597.25,-42.68,,,2035268.0
1708002597.265625,-30.74,,,2035268.0
1708002597.28125,-20.34,,,2036252.0
1708002597.296875,-11.56,,,2035938.0
1708002597.3125,-4.47,,,2032556.0
1708002597.328125,0.81,,,2036190.0
1708002597.34375,4.31,,,2023909.0
1708002597.359375,6.27,,,2018476.0
1708002597.375,7.13,,,2011704.0
1708002597.390625,7.48,,,2011237.0
1708002597.40625,7.81,,,2009608.0
1708002597.421875,8.44,,,2007408.0
1708002597.4375,9.48,,,2004861.0
1708002597.453125,10.88,,,2006443.0
1708002597.46875,12.58,,,2008913.0
1708002597.484375,14.56,,,2010853.0
1708002597.5,16.94,,,2014617.0
1708002597.515625,19.86,,,2020006.0
1708002597.53125,23.42,,,2024213.0
1708002597.546875,27.52,,,2027391.0
1708002597.5625,31.92,,,2029709.0
1708002597.578125,36.21,,,2032308.0
1708002597.59375,39.98,,,2034894.0
1708002597.609375,42.86,,,2037242.0
1708002597.625,44.69,,,2040081.0
1708002597.640625,45.44,,,2042741.0
1708002597.65625,45.24,,,2045529.0
1708002597.671875,44.21,,,2048382.0
1708002597.6875,42.45,,,2051642.0
1708002597.703125,40.02,,,2054841.0
1708002597.71875,37.03,,,2058250.0
1708002597.734375,33.69,,,2062393.0
1708002597.75,30.31,,,2065619.0
1708002597.765625,27.21,,,2066398.0
1708002597.78125,24.59,,,2066628.0
1708002597.796875,22.42,,,2067110.0
1708002597.8125,20.46,,,2067863.0
1708002597.828125,18.36,,,2068511.0
1708002597.84375,15.85,,,2069099.0
1708002597.859375,12.81,,,2069803.0
1708002597.875,9.3,,,2070458.0
1708002597.890625,5.55,,,2070662.0
1708002597.90625,1.83,,,2070473.0
1708002597.921875,-1.58,,,2070686.0
1708002597.9375,-4.5,,,2070904.0
1708002597.953125,-6.89,,,2071376.0
1708002597.96875,-8.88,,,2071806.0
1708002597.984375,-10.78,,,2072413.0
1708002598.0,-12.92,,,2072988.0
1708002598.015625,-15.61,,,2073533.0
1708002598.03125,-18.98,,,2074200.0
1708002598.046875,-22.96,,,2074796.0
1708002598.0625,-27.24,,,2075286.0
1708002598.078125,-31.32,,,2075813.0
1708002598.09375,-34.49,,,2076484.0
1708002598.109375,-35.91,,,2077004.0
1708002598.125,-34.76,,,2077788.0
1708002598.140625,-30.45,,,2078512.0
1708002598.15625,-22.84,,,2079287.0
1708002598.171875,-12.32,,,2079728.0
1708002598.1875,0.16,,,2077997.0
1708002598.203125,13.4,,,2075867.0
1708002598.21875,26.21,,,2073272.0
1708002598.234375,37.68,,,2070923.0
1708002598.25,47.26,,,2069705.0
1708002598.265625,54.74,,,2068065.0
1708002598.28125,60.11,,,2064280.0
1708002598.296875,63.47,,,2060615.0
1708002598.3125,64.99,,,2057686.0
1708002598.328125,64.89,,,2055395.0
1708002598.34375,63.47,,,2053690.0
1708002598.359375,61.05,,,2053161.0
1708002598.375,57.99,,,2053640.0
1708002598.390625,54.62,,,2054201.0
1708002598.40625,51.26,,,2054878.0
1708002598.421875,48.27,,,2055276.0
1708002598.4375,45.98,,,2056126.0
1708002598.453125,44.67,,,2056588.0
1708002598.46875,44.44,,,2057174.0
1708002598.484375,45.14,,,2057682.0
1708002598.5,46.35,,,2058545.0
1708002598.515625,47.48,,,2059595.0
1708002598.53125,47.91,,,2060431.0
1708002598.546875,47.13,,,2061356.0
1708002598.5625,44.86,,,2062276.0
1708002598.578125,41.03,,,2063497.0
1708002598.59375,35.77,,,2064341.0
1708002598.609375,29.36,,,2063420.0
1708002598.625,22.18,,,2061327.0
1708002598.640625,14.71,,,2059358.0
1708002598.65625,7.37,,,2058227.0
1708002598.671875,0.5,,,2057414.0
1708002598.6875,-5.79,,,2057133.0
1708002598.703125,-11.65,,,2057062.0
1708002598.71875,-17.37,,,2056794.0
1708002598.734375,-23.26,,,2056135.0
1708002598.75,-29.47,,,2055679.0
1708002598.765625,-35.87,,,2055133.0
1708002598.78125,-42.11,,,2055056.0
1708002598.796875,-47.9,,,2055401.0
1708002598.8125,-53.2,,,2055979.0
1708002598.828125,-58.19,,,2056326.0
1708002598.84375,-63.23,,,2057024.0
1708002598.859375,-68.46,,,2057386.0
1708002598.875,-73.73,,,2057977.0
1708002598.890625,-78.63,,,2058470.0
1708002598.90625,-82.7,,,2059242.0
1708002598.921875,-85.76,,,2059756.0
1708002598.9375,-88.04,,,2060515.0
1708002598.953125,-90.08,,,2061269.0
1708002598.96875,-92.45,,,2062192.0
1708002598.984375,-95.55,,,2063214.0
1708002599.0,-99.33,,,2064086.0
1708002599.015625,-103.43,,,2063000.0
1708002599.03125,-107.35,,,2060628.0
1708002599.046875,-110.75,,,2058487.0
1708002599.0625,-113.56,,,2056884.0
1708002599.078125,-116.0,,,2056448.0
1708002599.09375,-118.3,,,2056580.0
1708002599.109375,-120.3,,,2057567.0
1708002599.125,-121.11,,,2058558.0
1708002599.140625,-119.3,,,2059842.0
1708002599.15625,-113.27,,,2061281.0
1708002599.171875,-101.98,,,2062293.0
1708002599.1875,-85.26,,,2062686.0
1708002599.203125,-63.61,,,2061392.0
1708002599.21875,-37.52,,,2059156.0
1708002599.234375,-6.96,,,2059125.0
1708002599.25,28.49,,,2061816.0
1708002599.265625,68.71,,,2062890.0
1708002599.28125,112.04,,,2063281.0
1708002599.296875,155.14,,,2063512.0
1708002599.3125,194.01,,,2063416.0
1708002599.328125,225.73,,,2064157.0
1708002599.34375,249.68,,,2066404.0
1708002599.359375,267.34,,,2070056.0
1708002599.375,280.71,,,2073776.0
1708002599.390625,290.35,,,2077246.0
1708002599.40625,294.6,,,2079926.0
1708002599.421875,290.43,,,2082540.0
1708002599.4375,275.49,,,2083234.0
1708002599.453125,249.91,,,2083364.0
1708002599.46875,216.61,,,2083536.0
1708002599.484375,179.96,,,2084170.0
1708002599.5,143.78,,,2085186.0
1708002599.515625,109.97,,,2086166.0
1708002599.53125,78.53,,,2087574.0
1708002599.546875,48.58,,,2088548.0
1708002599.5625,19.81,,,2089486.0
1708002599.578125,-7.04,,,2090372.0
1708002599.59375,-30.53,,,2091143.0
1708002599.609375,-49.46,,,2092376.0
1708002599.625,-63.52,,,2093430.0
1708002599.640625,-73.48,,,2094773.0
1708002599.65625,-80.7,,,2096115.0
1708002599.671875,-86.49,,,2097460.0
1708002599.6875,-91.63,,,2099023.0
1708002599.703125,-96.21,,,2100005.0
1708002599.71875,-99.93,,,2100005.0
1708002599.734375,-102.36,,,2101465.0
1708002599.75,-103.28,,,2102707.0
1708002599.765625,-102.77,,,2103953.0
1708002599.78125,-101.17,,,2105055.0
1708002599.796875,-98.99,,,2106343.0
1708002599.8125,-96.66,,,2107881.0
1708002599.828125,-94.41,,,2109044.0
1708002599.84375,-92.18,,,2110273.0
1708002599.859375,-89.66,,,2109707.0
1708002599.875,-86.52,,,2110748.0
1708002599.890625,-82.54,,,2108642.0
1708002599.90625,-77.79,,,2107906.0
1708002599.921875,-72.66,,,2107603.0
1708002599.9375,-67.76,,,2107680.0
1708002599.953125,-63.7,,,2108124.0
1708002599.96875,-60.82,,,2108083.0
1708002599.984375,-59.09,,,2108098.0
1708002600.0,-58.15,,,2107686.0
1708002600.015625,-57.48,,,2107222.0
1708002600.03125,-56.66,,,2107172.0
1708002600.046875,-55.6,,,2107277.0
1708002600.0625,-54.56,,,2107629.0
1708002600.078125,-54.02,,,2107846.0
1708002600.09375,-54.4,,,2108458.0
1708002600.109375,-55.75,,,2108789.0
1708002600.125,-57.66,,,2109042.0
1708002600.140625,-59.33,,,2109313.0
1708002600.15625,-59.79,,,2109063.0
1708002600.171875,-58.26,,,2108589.0
1708002600.1875,-54.38,,,2108581.0
1708002600.203125,-48.24,,,2109016.0
1708002600.21875,-40.22,,,2109247.0
1708002600.234375,-30.82,,,2108212.0
1708002600.25,-20.44,,,2105852.0
1708002600.265625,-9.49,,,2103343.0
1708002600.28125,1.65,,,2101271.0
1708002600.296875,12.44,,,2099751.0
1708002600.3125,22.26,,,2098631.0
1708002600.328125,30.51,,,2097730.0
1708002600.34375,36.86,,,2096662.0
1708002600.359375,41.29,,,2095038.0
1708002600.375,44.05,,,2093471.0
1708002600.390625,45.47,,,2092056.0
1708002600.40625,45.73,,,2090914.0
1708002600.421875,44.94,,,2090161.0
1708002600.4375,43.14,,,2089629.0
1708002600.453125,40.59,,,2089337.0
1708002600.46875,37.75,,,2088980.0
1708002600.484375,35.21,,,2088705.0
1708002600.5,33.48,,,2088217.0
1708002600.515625,32.79,,,2088013.0
1708002600.53125,33.06,,,2087939.0
1708002600.546875,34.03,,,2087950.0
1708002600.5625,35.47,,,2088186.0
1708002600.578125,37.23,,,2088581.0
1708002600.59375,39.22,,,2089113.0
1708002600.609375,41.32,,,2089106.0
1708002600.625,43.28,,,2086860.0
1708002600.640625,44.76,,,2082857.0
1708002600.65625,45.44,,,2078571.0
1708002600.671875,45.16,,,2075100.0
1708002600.6875,43.96,,,2072268.0
1708002600.703125,42.05,,,2069937.0
1708002600.71875,39.71,,,2068308.0
1708002600.734375,37.15,,,2066579.0
1708002600.75,34.52,,,2064537.0
1708002600.765625,31.86,,,2062387.0
1708002600.78125,29.21,,,2060688.0
1708002600.796875,26.59,,,2059913.0
1708002600.8125,24.02,,,2059223.0
1708002600.828125,21.54,,,2058979.0
1708002600.84375,19.17,,,2058900.0
1708002600.859375,16.96,,,2058962.0
1708002600.875,14.85,,,2058940.0
1708002600.890625,12.76,,,2059137.0
1708002600.90625,10.5,,,2059277.0
