timestamp,bvp,eda,temp,PPG GREEN
1533195665.234375,-10.58,0.394531,33.83,1826840.0
1533195665.25,-11.46,0.411183,33.83,1826742.0
1533195665.265625,-12.0,0.421431,33.83,1826685.0
1533195665.28125,-12.26,0.411183,33.83,1826689.0
1533195665.296875,-12.48,0.413745,33.81,1827162.0
1533195665.3125,-13.02,0.416307,33.81,1827459.0
1533195665.328125,-14.31,0.417588,33.81,1827870.0
1533195665.34375,-16.64,0.421431,33.81,1828340.0
1533195665.359375,-19.94,0.429117,33.81,1828954.0
1533195665.375,-23.65,0.432959,33.81,1829399.0
1533195665.390625,-26.82,0.431679,33.81,1830267.0
1533195665.40625,-28.46,0.436802,33.81,1830838.0
1533195665.421875,-27.94,0.436802,33.79,1831166.0
1533195665.4375,-25.36,0.443207,33.79,1831941.0
1533195665.453125,-21.62,0.438083,33.79,1832089.0
1533195665.46875,-18.16,0.441926,33.79,1832047.0
1533195665.484375,-16.48,0.44705,33.79,1831930.0
1533195665.5,-17.66,0.452174,33.79,1831539.0
1533195665.515625,-21.93,0.456017,33.79,1831409.0
1533195665.53125,-28.62,0.454736,33.79,1830992.0
1533195665.546875,-36.35,0.458578,33.79,1830698.0
1533195665.5625,-43.48,0.464983,33.79,1831045.0
1533195665.578125,-48.65,0.467545,33.79,1830832.0
1533195665.59375,-51.18,0.468826,33.79,1831437.0
1533195665.609375,-51.14,0.464983,33.79,1831543.0
1533195665.625,-49.18,0.467545,33.79,1831469.0
1533195665.640625,-46.11,0.468826,33.79,1831842.0
1533195665.65625,-42.64,0.470107,33.79,1832163.0
1533195665.671875,-39.23,0.471388,33.79,1832578.0
1533195665.6875,-36.19,0.470107,33.79,1832465.0
1533195665.703125,-33.85,0.47395,33.79,1832280.0
1533195665.71875,-32.44,0.470107,33.79,1831814.0
1533195665.734375,-32.11,0.463702,33.79,1831586.0
1533195665.75,-32.66,0.467545,33.79,1830973.0
1533195665.765625,-33.49,0.471388,33.79,1830495.0
1533195665.78125,-33.86,0.471388,33.79,1830344.0
1533195665.796875,-33.18,0.466264,33.81,1830601.0
1533195665.8125,-31.23,0.463702,33.81,1830403.0
1533195665.828125,-28.23,0.467545,33.81,1830559.0
1533195665.84375,-24.52,0.466264,33.81,1830700.0
1533195665.859375,-20.31,0.466264,33.81,1830897.0
1533195665.875,-15.58,0.46114,33.81,1831219.0
1533195665.890625,-10.23,0.467545,33.81,1831306.0
1533195665.90625,-4.4,0.464983,33.81,1831719.0
1533195665.921875,1.37,0.466264,33.79,1831976.0
1533195665.9375,6.19,0.462421,33.79,1831703.0
1533195665.953125,9.16,0.464983,33.79,1831232.0
1533195665.96875,9.8,0.466264,33.79,1830625.0
1533195665.984375,8.27,0.466264,33.81,1830102.0
1533195666.0,5.39,0.462421,33.81,1829472.0
1533195666.015625,2.23,0.46114,33.81,1829261.0
1533195666.03125,-0.27,0.466264,33.81,1828980.0
1533195666.046875,-1.82,0.462421,33.79,1828802.0
1533195666.0625,-2.96,0.459859,33.79,1828780.0
1533195666.078125,-4.99,0.457297,33.79,1828887.0
1533195666.09375,-9.56,0.462421,33.79,1828914.0
1533195666.109375,-18.08,0.470107,33.79,1828914.0
1533195666.125,-31.17,0.467545,33.79,1829207.0
1533195666.140625,-48.21,0.467545,33.79,1829517.0
1533195666.15625,-67.36,0.471388,33.79,1829680.0
1533195666.171875,-85.91,0.475231,33.81,1830021.0
1533195666.1875,-100.84,0.47395,33.81,1829708.0
1533195666.203125,-109.39,0.479074,33.81,1828656.0
1533195666.21875,-109.53,0.477793,33.81,1827670.0
1533195666.234375,-100.27,0.481635,33.79,1827036.0
1533195666.25,-81.78,0.480354,33.79,1826751.0
1533195666.265625,-55.44,0.476512,33.79,1826750.0
1533195666.28125,-23.72,0.476512,33.79,1826773.0
1533195666.296875,10.27,0.481635,33.79,1826745.0
1533195666.3125,43.52,0.482916,33.79,1826770.0
1533195666.328125,73.91,0.48804,33.79,1826914.0
1533195666.34375,100.96,0.490602,33.79,1827034.0
1533195666.359375,125.82,0.493164,33.81,1827189.0
1533195666.375,150.67,0.490602,33.81,1827066.0
1533195666.390625,177.44,0.48804,33.81,1827245.0
1533195666.40625,206.66,0.489321,33.81,1827310.0
1533195666.421875,236.82,0.493164,33.81,1826740.0
1533195666.4375,264.86,0.497007,33.81,1825912.0
1533195666.453125,287.65,0.498288,33.81,1825054.0
1533195666.46875,303.39,0.507254,33.81,1824092.0
1533195666.484375,312.46,0.50085,33.83,1823707.0
1533195666.5,316.8,0.502131,33.83,1823418.0
1533195666.515625,318.44,0.502131,33.83,1823287.0
1533195666.53125,318.1,0.498288,33.83,1823177.0
1533195666.546875,314.87,0.507254,33.83,1823334.0
1533195666.5625,306.88,0.525188,33.83,1823277.0
1533195666.578125,292.74,0.530311,33.83,1823429.0
1533195666.59375,272.13,0.523907,33.83,1823283.0
1533195666.609375,245.36,0.527749,33.81,1823293.0
1533195666.625,212.44,0.531592,33.81,1823323.0
1533195666.640625,172.52,0.535435,33.81,1822873.0
1533195666.65625,124.61,0.54184,33.81,1822357.0
1533195666.671875,69.27,0.543121,33.81,1821852.0
1533195666.6875,9.93,0.543121,33.81,1821084.0
1533195666.703125,-47.27,0.544402,33.81,1820516.0
1533195666.71875,-95.46,0.545683,33.81,1820541.0
1533195666.734375,-129.77,0.550806,33.81,1820475.0
1533195666.75,-149.34,0.557211,33.81,1820787.0
1533195666.765625,-157.22,0.572583,33.81,1820983.0
1533195666.78125,-158.45,0.572583,33.81,1821625.0
1533195666.796875,-157.61,0.570021,33.81,1821942.0
1533195666.8125,-157.04,0.570021,33.81,1822322.0
1533195666.828125,-156.83,0.56874,33.81,1821834.0
1533195666.84375,-155.94,0.561054,33.81,1820584.0
1533195666.859375,-153.58,0.550806,33.81,1818359.0
1533195666.875,-149.9,0.548245,33.81,1816009.0
1533195666.890625,-145.86,0.544402,33.81,1813974.0
1533195666.90625,-142.51,0.543121,33.81,1812177.0
1533195666.921875,-140.36,0.534154,33.83,1810166.0
1533195666.9375,-139.16,0.532873,33.83,1809258.0
1533195666.953125,-137.92,0.536716,33.83,1808311.0
1533195666.96875,-135.43,0.535435,33.83,1807925.0
1533195666.984375,-130.6,0.532873,33.81,1807323.0
1533195667.0,-122.98,0.527749,33.81,1807249.0
1533195667.015625,-112.84,0.52903,33.81,1807622.0
1533195667.03125,-101.08,0.532873,33.81,1809046.0
1533195667.046875,-88.81,0.535435,33.83,1811271.0
1533195667.0625,-76.93,0.531592,33.83,1814286.0
1533195667.078125,-65.76,0.535435,33.83,1819048.0
1533195667.09375,-55.04,0.532873,33.83,1824190.0
1533195667.109375,-44.28,0.535435,33.83,1831233.0
1533195667.125,-33.19,0.531592,33.83,1838886.0
1533195667.140625,-22.08,0.52903,33.83,1846394.0
1533195667.15625,-11.83,0.527749,33.83,1854556.0
1533195667.171875,-3.56,0.52903,33.83,1861667.0
1533195667.1875,1.95,0.527749,33.83,1867081.0
1533195667.203125,4.59,0.521345,33.83,1869701.0
1533195667.21875,5.06,0.521345,33.83,1869968.0
1533195667.234375,4.54,0.525188,33.84,1868743.0
1533195667.25,4.14,0.526469,33.84,1866904.0
1533195667.265625,4.56,0.521345,33.84,1864994.0
1533195667.28125,5.83,0.522626,33.84,1863876.0
1533195667.296875,7.49,0.522626,33.83,1862860.0
1533195667.3125,8.83,0.527749,33.83,1861071.0
1533195667.328125,9.27,0.530311,33.83,1858518.0
1533195667.34375,8.56,0.522626,33.83,1856795.0
1533195667.359375,6.82,0.52903,33.83,1854715.0
1533195667.375,4.46,0.525188,33.83,1852860.0
1533195667.390625,1.95,0.526469,33.83,1851246.0
1533195667.40625,-0.38,0.523907,33.83,1850137.0
1533195667.421875,-2.49,0.523907,33.83,1849200.0
1533195667.4375,-4.61,0.530311,33.83,1848227.0
1533195667.453125,-7.21,0.537997,33.83,1847193.0
1533195667.46875,-10.77,0.55593,33.83,1846642.0
1533195667.484375,-15.61,0.567459,33.83,1845919.0
1533195667.5,-21.73,0.575144,33.83,1845273.0
1533195667.515625,-28.87,0.58283,33.83,1845009.0
1533195667.53125,-36.53,0.589235,33.83,1844416.0
1533195667.546875,-44.05,0.578987,33.81,1843798.0
1533195667.5625,-50.68,0.575144,33.81,1843020.0
1533195667.578125,-55.58,0.573864,33.81,1841545.0
1533195667.59375,-57.95,0.564897,33.81,1839998.0
1533195667.609375,-57.16,0.563616,33.83,1839998.0
1533195667.625,-52.98,0.558492,33.83,1838622.0
1533195667.640625,-45.67,0.557211,33.83,1837600.0
1533195667.65625,-35.96,0.550806,33.83,1836620.0
1533195667.671875,-24.81,0.54184,33.83,1836373.0
1533195667.6875,-13.2,0.539278,33.83,1835789.0
1533195667.703125,-1.8,0.544402,33.83,1834960.0
1533195667.71875,9.04,0.54184,33.83,1834700.0
1533195667.734375,19.18,0.54184,33.81,1835203.0
1533195667.75,28.42,0.535435,33.81,1834483.0
1533195667.765625,36.25,0.536716,33.81,1834368.0
1533195667.78125,41.85,0.539278,33.81,1834363.0
1533195667.796875,44.34,0.537997,33.81,1834584.0
1533195667.8125,43.19,0.535435,33.81,1833343.0
1533195667.828125,38.55,0.540559,33.81,1832359.0
1533195667.84375,31.29,0.544402,33.81,1834715.0
1533195667.859375,22.68,0.543121,33.83,1831223.0
1533195667.875,13.91,0.545683,33.83,1830265.0
1533195667.890625,5.66,0.548245,33.83,1829398.0
1533195667.90625,-2.06,0.550806,33.83,1828651.0
1533195667.921875,-9.7,0.552087,33.81,1828215.0
1533195667.9375,-17.76,0.546964,33.81,1827570.0
1533195667.953125,-26.37,0.548245,33.81,1827194.0
1533195667.96875,-35.3,0.550806,33.81,1826624.0
1533195667.984375,-43.86,0.550806,33.79,1826300.0
1533195668.0,-51.52,0.54184,33.79,1826045.0
1533195668.015625,-57.86,0.537997,33.79,1825781.0
1533195668.03125,-62.83,0.540559,33.79,1825481.0
1533195668.046875,-66.67,0.540559,33.81,1825350.0
1533195668.0625,-69.62,0.534154,33.81,1824807.0
1533195668.078125,-71.92,0.536716,33.81,1823878.0
1533195668.09375,-73.75,0.536716,33.81,1822845.0
1533195668.109375,-75.62,0.540559,33.81,1821788.0
1533195668.125,-78.44,0.537997,33.81,1821007.0
1533195668.140625,-83.24,0.539278,33.81,1820137.0
1533195668.15625,-90.47,0.535435,33.81,1819464.0
1533195668.171875,-99.3,0.540559,33.79,1818489.0
1533195668.1875,-107.43,0.54184,33.79,1817919.0
1533195668.203125,-111.64,0.546964,33.79,1817547.0
1533195668.21875,-109.18,0.544402,33.79,1817153.0
1533195668.234375,-99.02,0.550806,33.79,1816910.0
1533195668.25,-82.51,0.550806,33.79,1816572.0
1533195668.265625,-62.75,0.548245,33.79,1816409.0
1533195668.28125,-43.21,0.549525,33.79,1815955.0
1533195668.296875,-26.22,0.554649,33.79,1816346.0
1533195668.3125,-12.39,0.557211,33.79,1815040.0
1533195668.328125,-0.97,0.552087,33.79,1813961.0
1533195668.34375,9.01,0.554649,33.79,1812790.0
1533195668.359375,17.8,0.558492,33.81,1811783.0
1533195668.375,24.77,0.564897,33.81,1810966.0
1533195668.390625,28.95,0.566178,33.81,1810744.0
1533195668.40625,29.97,0.563616,33.81,1811057.0
1533195668.421875,28.56,0.570021,33.79,1811169.0
1533195668.4375,26.3,0.586673,33.79,1811462.0
1533195668.453125,24.99,0.600763,33.79,1812003.0
1533195668.46875,25.76,0.613573,33.79,1812610.0
1533195668.484375,28.85,0.635349,33.79,1813100.0
1533195668.5,33.41,0.644315,33.79,1813829.0
1533195668.515625,38.24,0.635349,33.79,1814328.0
1533195668.53125,42.26,0.639192,33.79,1813935.0
1533195668.546875,44.88,0.65072,33.79,1813326.0
1533195668.5625,46.13,0.666092,33.79,1814241.0
1533195668.578125,46.39,0.681463,33.79,1812901.0
1533195668.59375,46.07,0.544669,33.79,1812489.0
1533195668.609375,45.32,0.551073,33.79,1812439.0
1533195668.625,43.93,0.554916,33.79,1812548.0
1533195668.640625,41.4,0.562602,33.79,1812753.0
1533195668.65625,37.22,0.570287,33.79,1813010.0
1533195668.671875,31.05,0.558759,33.79,1810912.0
1533195668.6875,22.96,0.54595,33.79,1813136.0
1533195668.703125,13.43,0.543388,33.79,1813587.0
1533195668.71875,3.23,0.534421,33.79,1814185.0
1533195668.734375,-6.71,0.525454,33.77,1813820.0
1533195668.75,-15.47,0.51905,33.77,1814915.0
1533195668.765625,-22.23,0.51905,33.77,1814468.0
1533195668.78125,-26.35,0.522892,33.77,1814672.0
1533195668.796875,-27.41,0.51905,33.75,1815020.0
1533195668.8125,-25.21,0.512645,33.75,1813473.0
1533195668.828125,-19.83,0.520331,33.75,1812477.0
1533195668.84375,-11.62,0.51905,33.75,1812295.0
1533195668.859375,-1.04,0.517769,33.77,1812435.0
1533195668.875,11.32,0.512645,33.77,1812334.0
1533195668.890625,24.83,0.515207,33.77,1812382.0
1533195668.90625,38.79,0.520331,33.77,1812634.0
1533195668.921875,52.34,0.524173,33.77,1814250.0
1533195668.9375,64.45,0.522892,33.77,1813159.0
1533195668.953125,74.01,0.522892,33.77,1812963.0
1533195668.96875,80.06,0.517769,33.77,1813253.0
1533195668.984375,82.06,0.520331,33.73,1813366.0
1533195669.0,80.17,0.511364,33.73,1813788.0
1533195669.015625,75.3,0.510083,33.73,1814213.0
1533195669.03125,68.85,0.516488,33.73,1814039.0
1533195669.046875,62.38,0.515207,33.77,1813491.0
1533195669.0625,57.01,0.515207,33.77,1812654.0
1533195669.078125,53.12,0.515207,33.77,1812237.0
1533195669.09375,50.23,0.517769,33.77,1811532.0
1533195669.109375,47.41,0.522892,33.75,1811095.0
1533195669.125,43.73,0.524173,33.75,1810932.0
1533195669.140625,38.83,0.528016,33.75,1810535.0
1533195669.15625,33.06,0.535702,33.75,1810487.0
1533195669.171875,27.32,0.538264,33.75,1810506.0
1533195669.1875,22.61,0.543388,33.75,1810504.0
1533195669.203125,19.48,0.539545,33.75,1810935.0
1533195669.21875,17.76,0.544669,33.75,1811213.0
1533195669.234375,16.54,0.539545,33.75,1811647.0
1533195669.25,14.4,0.54595,33.75,1811852.0
1533195669.265625,9.86,0.544669,33.75,1811560.0
1533195669.28125,1.75,0.534421,33.75,1810873.0
1533195669.296875,-10.2,0.542107,33.75,1810068.0
1533195669.3125,-25.22,0.54595,33.75,1809262.0
1533195669.328125,-41.44,0.54723,33.75,1808513.0
1533195669.34375,-56.35,0.54723,33.75,1807765.0
1533195669.359375,-67.51,0.54595,33.75,1807758.0
1533195669.375,-73.23,0.544669,33.75,1807680.0
1533195669.390625,-73.0,0.551073,33.75,1806890.0
1533195669.40625,-67.26,0.54723,33.75,1806121.0
1533195669.421875,-57.02,0.54723,33.75,1805689.0
1533195669.4375,-43.35,0.54723,33.75,1805086.0
1533195669.453125,-27.23,0.551073,33.75,1804443.0
1533195669.46875,-9.66,0.552354,33.75,1803906.0
1533195669.484375,8.17,0.556197,33.73,1803682.0
1533195669.5,24.91,0.558759,33.73,1803908.0
1533195669.515625,39.29,0.563883,33.73,1803400.0
1533195669.53125,50.65,0.567726,33.73,1802922.0
1533195669.546875,59.17,0.565164,33.75,1801890.0
1533195669.5625,65.78,0.567726,33.75,1800718.0
1533195669.578125,71.64,0.57413,33.75,1800320.0
1533195669.59375,77.65,0.575411,33.75,1800377.0
1533195669.609375,84.1,0.572849,33.73,1800460.0
1533195669.625,90.79,0.575411,33.73,1800904.0
1533195669.640625,97.21,0.581816,33.73,1801050.0
1533195669.65625,102.91,0.588221,33.73,1801705.0
1533195669.671875,107.48,0.584378,33.73,1802259.0
1533195669.6875,110.64,0.579254,33.73,1802747.0
1533195669.703125,112.09,0.58694,33.73,1803406.0
1533195669.71875,111.64,0.58694,33.73,1803847.0
1533195669.734375,109.25,0.58694,33.73,1804314.0
1533195669.75,105.14,0.585659,33.73,1804307.0
1533195669.765625,99.61,0.595906,33.73,1803674.0
1533195669.78125,92.93,0.60103,33.73,1803282.0
1533195669.796875,85.13,0.60103,33.71,1802314.0
1533195669.8125,76.07,0.599749,33.71,1801804.0
1533195669.828125,65.66,0.602311,33.71,1801672.0
1533195669.84375,54.15,0.609997,33.71,1801397.0
1533195669.859375,42.3,0.615121,33.71,1801622.0
1533195669.875,31.38,0.612559,33.71,1801880.0
1533195669.890625,22.72,0.607435,33.71,1801922.0
1533195669.90625,17.28,0.611278,33.71,1801997.0
1533195669.921875,15.17,0.61384,33.71,1802266.0
1533195669.9375,15.66,0.608716,33.71,1802603.0
1533195669.953125,17.5,0.609997,33.71,1802670.0
1533195669.96875,19.53,0.617682,33.71,1803178.0
1533195669.984375,21.17,0.62793,33.68,1803230.0
1533195670.0,22.68,0.622806,33.68,1802274.0
1533195670.015625,24.82,0.62793,33.68,1801665.0
1533195670.03125,28.31,0.630492,33.68,1800916.0
1533195670.046875,33.28,0.62793,33.71,1800069.0
1533195670.0625,39.03,0.625368,33.71,1799479.0
1533195670.078125,44.19,0.617682,33.71,1799247.0
1533195670.09375,47.3,0.612559,33.71,1799344.0
1533195670.109375,47.47,0.615121,33.71,1799449.0
1533195670.125,44.88,0.615121,33.71,1799711.0
1533195670.140625,40.9,0.612559,33.71,1799711.0
1533195670.15625,37.67,0.604873,33.71,1799678.0
1533195670.171875,37.27,0.609997,33.71,1799883.0
1533195670.1875,40.63,0.612559,33.71,1800150.0
1533195670.203125,46.55,0.612559,33.71,1800447.0
1533195670.21875,51.56,0.618963,33.71,1800705.0
1533195670.234375,50.58,0.612559,33.71,1801148.0
1533195670.25,38.51,0.620244,33.71,1800671.0
1533195670.265625,12.28,0.61384,33.71,1800290.0
1533195670.28125,-27.74,0.612559,33.71,1799334.0
1533195670.296875,-77.48,0.61384,33.71,1798680.0
1533195670.3125,-130.48,0.616401,33.71,1797866.0
1533195670.328125,-180.05,0.617682,33.71,1797411.0
1533195670.34375,-221.43,0.611278,33.71,1797375.0
1533195670.359375,-252.93,0.620244,33.71,1797477.0
1533195670.375,-275.67,0.640739,33.71,1797636.0
1533195670.390625,-292.31,0.652268,33.71,1797803.0
1533195670.40625,-305.43,0.670201,33.71,1798205.0
1533195670.421875,-316.47,0.68173,33.71,1798359.0
1533195670.4375,-325.42,0.694539,33.71,1798592.0
1533195670.453125,-331.24,0.706068,33.71,1798620.0
1533195670.46875,-332.46,0.713753,33.71,1798691.0
1533195670.484375,-327.88,0.72272,33.68,1798527.0
1533195670.5,-316.72,0.738091,33.68,1797984.0
1533195670.515625,-298.75,0.743215,33.68,1796873.0
1533195670.53125,-274.24,0.741934,33.68,1796294.0
1533195670.546875,-244.0,0.725282,33.66,1796056.0
1533195670.5625,-209.3,0.725282,33.66,1795495.0
1533195670.578125,-171.86,0.725282,33.66,1795073.0
1533195670.59375,-133.63,0.724001,33.66,1794965.0
1533195670.609375,-96.46,0.72272,33.68,1794939.0
1533195670.625,-61.92,0.715034,33.68,1795495.0
1533195670.640625,-31.1,0.721439,33.68,1795902.0
1533195670.65625,-4.52,0.730406,33.68,1796241.0
1533195670.671875,17.71,0.730406,33.68,1796859.0
1533195670.6875,35.85,0.724001,33.68,1797433.0
1533195670.703125,50.37,0.721439,33.68,1797785.0
1533195670.71875,61.85,0.735529,33.68,1797564.0
1533195670.734375,70.91,0.730406,33.66,1796652.0
1533195670.75,78.1,0.731687,33.66,1795556.0
1533195670.765625,83.86,0.739372,33.66,1794391.0
1533195670.78125,88.38,0.743215,33.66,1793246.0
1533195670.796875,91.71,0.743215,33.66,1792218.0
1533195670.8125,93.81,0.74962,33.66,1791081.0
1533195670.828125,94.69,0.744496,33.66,1790656.0
1533195670.84375,94.52,0.745777,33.66,1790325.0
1533195670.859375,93.63,0.745777,33.68,1790430.0
1533195670.875,92.39,0.740653,33.68,1790709.0
1533195670.890625,91.1,0.740653,33.68,1791100.0
1533195670.90625,89.8,0.73681,33.68,1790813.0
1533195670.921875,88.26,0.740653,33.66,1790834.0
1533195670.9375,86.06,0.739372,33.66,1791617.0
1533195670.953125,82.71,0.740653,33.66,1791672.0
1533195670.96875,77.84,0.739372,33.66,1791741.0
1533195670.984375,71.34,0.73681,33.66,1791186.0
1533195671.0,63.32,0.740653,33.66,1790530.0
1533195671.015625,54.12,0.738091,33.66,1790016.0
1533195671.03125,44.22,0.734248,33.66,1789678.0
1533195671.046875,34.25,0.740653,33.66,1789667.0
1533195671.0625,25.05,0.74962,33.66,1789709.0
1533195671.078125,17.6,0.758586,33.66,1789689.0
1533195671.09375,12.92,0.767553,33.66,1789850.0
1533195671.109375,11.89,0.784205,33.66,1790264.0
1533195671.125,14.9,0.800858,33.66,1790620.0
1533195671.140625,21.75,0.820072,33.66,1790875.0
1533195671.15625,31.62,0.839286,33.66,1791366.0
1533195671.171875,43.35,0.857219,33.66,1791783.0
1533195671.1875,55.8,0.850815,33.66,1791823.0
1533195671.203125,68.11,0.840567,33.66,1791428.0
1533195671.21875,79.76,0.836724,33.66,1791101.0
1533195671.234375,90.36,0.826477,33.68,1790306.0
1533195671.25,99.35,0.820072,33.68,1789676.0
1533195671.265625,105.94,0.822634,33.68,1789156.0
1533195671.28125,109.27,0.814948,33.68,1788875.0
1533195671.296875,108.73,0.816229,33.65,1789101.0
1533195671.3125,104.4,0.822634,33.65,1788942.0
1533195671.328125,97.13,0.8316,33.65,1789195.0
1533195671.34375,88.4,0.834162,33.65,1789462.0
1533195671.359375,79.79,0.832881,33.65,1789808.0
1533195671.375,72.47,0.836724,33.65,1790381.0
1533195671.390625,66.8,0.843129,33.65,1790880.0
1533195671.40625,62.24,0.852095,33.65,1791576.0
1533195671.421875,57.74,0.853376,33.65,1791739.0
1533195671.4375,52.22,0.846972,33.65,1791407.0
1533195671.453125,45.06,0.852095,33.65,1790996.0
1533195671.46875,36.27,0.846972,33.65,1790518.0
1533195671.484375,26.47,0.848253,33.65,1789813.0
1533195671.5,16.51,0.8316,33.65,1789401.0
1533195671.515625,7.25,0.822634,33.65,1789495.0
1533195671.53125,-0.71,0.821353,33.65,1789369.0
1533195671.546875,-7.05,0.820072,33.65,1789682.0
1533195671.5625,-11.74,0.814948,33.65,1789875.0
1533195671.578125,-15.0,0.812386,33.65,1790064.0
1533195671.59375,-17.35,0.812386,33.65,1790212.0
1533195671.609375,-19.52,0.814948,33.65,1790555.0
1533195671.625,-22.26,0.820072,33.65,1790531.0
1533195671.640625,-26.11,0.821353,33.65,1790547.0
1533195671.65625,-31.14,0.821353,33.65,1790351.0
1533195671.671875,-36.76,0.830319,33.66,1789775.0
1533195671.6875,-41.87,0.843129,33.66,1788944.0
1533195671.703125,-45.14,0.8585,33.66,1788062.0
1533195671.71875,-45.38,0.881557,33.66,1787569.0
1533195671.734375,-41.91,0.902052,33.65,1787427.0
1533195671.75,-34.71,0.919986,33.65,1787191.0
1533195671.765625,-24.42,0.916143,33.65,1787444.0
1533195671.78125,-12.17,0.903333,33.65,1787703.0
1533195671.796875,0.78,0.902052,33.66,1788061.0
1533195671.8125,13.35,0.896929,33.66,1788389.0
1533195671.828125,24.84,0.893086,33.66,1788736.0
1533195671.84375,34.97,0.880276,33.66,1789231.0
1533195671.859375,43.75,0.863624,33.65,1789704.0
1533195671.875,51.24,0.855938,33.65,1789843.0
1533195671.890625,57.33,0.850815,33.65,1789775.0
1533195671.90625,61.75,0.839286,33.65,1789023.0
1533195671.921875,64.26,0.835443,33.65,1788114.0
1533195671.9375,64.82,0.8316,33.65,1787110.0
1533195671.953125,63.71,0.835443,33.65,1786532.0
1533195671.96875,61.44,0.834162,33.65,1786178.0
1533195671.984375,58.57,0.827757,33.66,1786047.0
1533195672.0,55.5,0.8316,33.66,1786493.0
1533195672.015625,52.43,0.826477,33.66,1786566.0
1533195672.03125,49.37,0.826477,33.66,1786726.0
1533195672.046875,46.3,0.821353,33.63,1786866.0
1533195672.0625,43.3,0.81751,33.63,1786883.0
1533195672.078125,40.52,0.823915,33.63,1786917.0
1533195672.09375,38.06,0.826477,33.63,1786729.0
1533195672.109375,35.93,0.826477,33.65,1786388.0
1533195672.125,34.0,0.825196,33.65,1785932.0
1533195672.140625,32.09,0.8316,33.65,1785804.0
1533195672.15625,30.05,0.8316,33.65,1785259.0
1533195672.171875,27.94,0.830319,33.63,1784687.0
1533195672.1875,25.88,0.829038,33.63,1784158.0
1533195672.203125,23.99,0.836724,33.63,1784208.0
1533195672.21875,22.26,0.84441,33.63,1784630.0
1533195672.234375,20.39,0.846972,33.65,1785279.0
1533195672.25,17.9,0.846972,33.65,1785616.0
1533195672.265625,14.34,0.849534,33.65,1786085.0
1533195672.28125,9.59,0.852095,33.65,1786599.0
1533195672.296875,4.07,0.854657,33.63,1787220.0
1533195672.3125,-1.16,0.852095,33.63,1787876.0
1533195672.328125,-4.62,0.850815,33.63,1788699.0
1533195672.34375,-4.82,0.848253,33.63,1789236.0
1533195672.359375,-0.81,0.852095,33.63,1789223.0
1533195672.375,7.47,0.850815,33.63,1788846.0
1533195672.390625,19.17,0.855938,33.63,1788615.0
1533195672.40625,32.79,0.855938,33.63,1788350.0
1533195672.421875,46.79,0.859781,33.63,1788544.0
1533195672.4375,60.02,0.859781,33.63,1788785.0
1533195672.453125,71.92,0.854657,33.63,1789105.0
1533195672.46875,82.38,0.8585,33.63,1789827.0
1533195672.484375,91.38,0.859781,33.66,1790354.0
1533195672.5,98.72,0.861062,33.66,1790941.0
1533195672.515625,103.96,0.849534,33.66,1791403.0
1533195672.53125,106.52,0.852095,33.66,1792156.0
1533195672.546875,105.91,0.863624,33.63,1792691.0
1533195672.5625,101.85,0.866186,33.63,1793228.0
1533195672.578125,94.31,0.868748,33.63,1793031.0
1533195672.59375,83.47,0.862343,33.63,1792436.0
1533195672.609375,69.68,0.862343,33.63,1791717.0
1533195672.625,53.48,0.872591,33.63,1791098.0
1533195672.640625,35.73,0.870029,33.63,1791098.0
1533195672.65625,17.59,0.872591,33.63,1790619.0
1533195672.671875,0.32,0.866186,33.65,1790526.0
1533195672.6875,-14.98,0.870029,33.65,1790511.0
1533195672.703125,-27.76,0.87131,33.65,1790422.0
1533195672.71875,-38.15,0.866186,33.65,1790576.0
1533195672.734375,-46.93,0.873872,33.63,1790874.0
1533195672.75,-55.18,0.880276,33.63,1791325.0
1533195672.765625,-63.83,0.882838,33.63,1791581.0
1533195672.78125,-73.28,0.884119,33.63,1792039.0
1533195672.796875,-83.28,0.890524,33.63,1792358.0
1533195672.8125,-93.08,0.895648,33.63,1792547.0
1533195672.828125,-101.93,0.895648,33.63,1792240.0
1533195672.84375,-109.4,0.894367,33.63,1791323.0
1533195672.859375,-115.72,0.903333,33.63,1790372.0
1533195672.875,-121.5,0.922547,33.63,1789228.0
1533195672.890625,-127.34,0.946885,33.63,1787952.0
1533195672.90625,-133.25,0.963538,33.63,1787302.0
1533195672.921875,-138.45,0.975066,33.63,1786643.0
1533195672.9375,-141.45,0.998123,33.63,1786407.0
1533195672.953125,-140.67,1.010933,33.63,1785791.0
1533195672.96875,-135.06,1.010933,33.63,1785388.0
1533195672.984375,-124.53,0.999404,33.61,1785015.0
1533195673.0,-109.96,0.989157,33.61,1784455.0
1533195673.015625,-92.86,0.982752,33.61,1784452.0
1533195673.03125,-74.8,0.973785,33.61,1784331.0
1533195673.046875,-56.96,0.9661,33.61,1783340.0
1533195673.0625,-39.98,0.955852,33.61,1782162.0
1533195673.078125,-24.1,0.958414,33.61,1780776.0
1533195673.09375,-9.45,0.958414,33.61,1779401.0
1533195673.109375,3.73,0.960976,33.63,1778048.0
1533195673.125,14.98,0.968661,33.63,1777419.0
1533195673.140625,23.84,0.982752,33.63,1777256.0
1533195673.15625,30.07,1.000685,33.63,1777732.0
1533195673.171875,33.84,1.004528,33.63,1778465.0
1533195673.1875,35.64,1.003247,33.63,1779070.0
1533195673.203125,36.14,1.005809,33.63,1780163.0
1533195673.21875,35.85,1.016056,33.63,1781192.0
1533195673.234375,34.95,1.017337,33.61,1782730.0
1533195673.25,33.25,1.017337,33.61,1784460.0
1533195673.265625,30.49,1.022461,33.61,1786422.0
1533195673.28125,26.45,0.950797,33.61,1786867.0
1533195673.296875,21.2,0.959764,33.63,1787548.0
1533195673.3125,15.09,0.963607,33.63,1788760.0
1533195673.328125,8.61,0.963607,33.63,1789970.0
1533195673.34375,2.29,0.959764,33.63,1790502.0
1533195673.359375,-3.43,0.96745,33.61,1793278.0
1533195673.375,-8.08,0.959764,33.61,1793903.0
1533195673.390625,-11.17,0.961045,33.61,1793478.0
1533195673.40625,-12.11,0.966169,33.61,1793456.0
1533195673.421875,-10.39,0.961045,33.61,1792622.0
1533195673.4375,-5.83,0.968731,33.61,1791307.0
1533195673.453125,1.25,0.958483,33.61,1793035.0
1533195673.46875,9.84,0.959764,33.61,1799191.0
1533195673.484375,18.43,0.957202,33.61,1792714.0
1533195673.5,25.36,0.95464,33.61,1805250.0
1533195673.515625,29.45,0.946954,33.61,1794436.0
1533195673.53125,30.42,0.946954,33.61,1803723.0
1533195673.546875,29.22,0.953359,33.63,1803799.0
1533195673.5625,27.76,0.964888,33.63,1801207.0
1533195673.578125,28.35,0.982821,33.63,1797993.0
1533195673.59375,32.91,1.00844,33.63,1794936.0
1533195673.609375,42.26,1.037902,33.61,1794936.0
1533195673.625,55.97,1.055835,33.61,1791506.0
1533195673.640625,72.53,1.060959,33.61,1795820.0
1533195673.65625,89.97,1.054554,33.61,1802236.0
1533195673.671875,106.54,1.060959,33.61,1807777.0
1533195673.6875,121.13,1.053273,33.61,1812461.0
1533195673.703125,133.4,1.04943,33.61,1817623.0
1533195673.71875,143.7,1.045587,33.61,1823007.0
1533195673.734375,152.69,1.045587,33.63,1830070.0
1533195673.75,161.12,1.045587,33.63,1838617.0
1533195673.765625,169.43,1.04943,33.63,1850319.0
1533195673.78125,177.41,1.063521,33.63,1860753.0
1533195673.796875,184.15,1.082735,33.61,1871793.0
1533195673.8125,188.21,1.098106,33.61,1883119.0
1533195673.828125,188.28,1.113477,33.61,1895530.0
1533195673.84375,183.84,1.116039,33.61,1904576.0
1533195673.859375,175.35,1.114758,33.59,1913806.0
1533195673.875,163.9,1.109635,33.59,1921129.0
1533195673.890625,150.36,1.109635,33.59,1927911.0
1533195673.90625,134.55,1.101949,33.59,1934084.0
1533195673.921875,115.18,1.095544,33.61,1939963.0
1533195673.9375,90.44,1.078892,33.61,1946964.0
1533195673.953125,59.09,1.077611,33.61,1953287.0
1533195673.96875,21.2,1.071206,33.61,1958921.0
1533195673.984375,-21.9,1.064801,33.61,1964746.0
1533195674.0,-68.25,1.060959,33.61,1968608.0
1533195674.015625,-116.03,1.053273,33.61,1972017.0
1533195674.03125,-163.89,1.050711,33.61,1975392.0
1533195674.046875,-210.58,1.053273,33.61,1978021.0
1533195674.0625,-254.55,1.059678,33.61,1980802.0
1533195674.078125,-293.77,1.04943,33.61,1982486.0
1533195674.09375,-326.27,1.04943,33.61,1985067.0
1533195674.109375,-351.03,1.058397,33.61,1987389.0
1533195674.125,-368.41,1.058397,33.61,1989144.0
1533195674.140625,-379.78,1.057116,33.61,1989032.0
1533195674.15625,-386.4,1.06224,33.61,1989564.0
1533195674.171875,-388.45,1.058397,33.59,1990410.0
1533195674.1875,-384.63,1.06224,33.59,1990662.0
1533195674.203125,-372.91,1.07633,33.59,1989253.0
1533195674.21875,-351.79,1.07633,33.59,1989532.0
1533195674.234375,-321.55,1.078892,33.63,1989790.0
1533195674.25,-284.57,1.082735,33.63,1990559.0
1533195674.265625,-244.6,1.087858,33.63,1990836.0
1533195674.28125,-205.45,1.095544,33.63,1992035.0
1533195674.296875,-169.78,1.087858,33.57,1993886.0
1533195674.3125,-138.52,1.082735,33.57,1995958.0
1533195674.328125,-111.12,1.084016,33.57,1997567.0
1533195674.34375,-86.3,1.086578,33.57,2000325.0
1533195674.359375,-62.95,1.086578,33.61,2003689.0
1533195674.375,-40.62,1.081454,33.61,2008429.0
1533195674.390625,-19.56,1.081454,33.61,2013569.0
1533195674.40625,-0.38,1.084016,33.61,2019913.0
1533195674.421875,16.35,1.09042,33.59,2025356.0
1533195674.4375,30.38,1.081454,33.59,2030454.0
1533195674.453125,41.8,1.084016,33.59,2034627.0
1533195674.46875,50.96,1.086578,33.59,2039318.0
1533195674.484375,58.23,1.089139,33.61,2044174.0
1533195674.5,63.88,1.091701,33.61,2048885.0
1533195674.515625,67.99,1.098106,33.61,2053473.0
1533195674.53125,70.54,1.100668,33.61,2057195.0
1533195674.546875,71.48,1.104511,33.59,2061364.0
1533195674.5625,70.96,1.105792,33.59,2066189.0
1533195674.578125,69.29,1.10323,33.59,2070391.0
1533195674.59375,67.02,1.10323,33.59,2070391.0
1533195674.609375,64.74,1.105792,33.57,2074317.0
1533195674.625,62.91,1.108354,33.57,2077899.0
1533195674.640625,61.7,1.104511,33.57,2081227.0
1533195674.65625,60.87,1.104511,33.57,2083778.0
1533195674.671875,59.93,1.099387,33.61,2085452.0
1533195674.6875,58.27,1.100668,33.61,2086900.0
1533195674.703125,55.4,1.096825,33.61,2087779.0
1533195674.71875,51.12,1.099387,33.61,2088655.0
1533195674.734375,45.44,1.100668,33.59,2089877.0
1533195674.75,38.55,1.109635,33.59,2091865.0
1533195674.765625,30.7,1.112196,33.59,2093859.0
1533195674.78125,22.25,1.10323,33.59,2096291.0
1533195674.796875,13.76,1.104511,33.59,2098134.0
1533195674.8125,6.04,1.107073,33.59,2100199.0
1533195674.828125,0.17,1.114758,33.59,2102666.0
1533195674.84375,-2.81,1.112196,33.59,2104525.0
1533195674.859375,-2.21,1.112196,33.59,2106585.0
1533195674.875,1.96,1.118601,33.59,2107651.0
1533195674.890625,8.92,1.125006,33.59,2108502.0
1533195674.90625,17.36,1.125006,33.59,2109235.0
1533195674.921875,25.86,1.125006,33.61,2110122.0
1533195674.9375,33.37,1.126287,33.61,2111312.0
1533195674.953125,39.47,1.136534,33.61,2113274.0
1533195674.96875,44.35,1.146782,33.61,2115829.0
1533195674.984375,48.49,1.148063,33.59,2119127.0
1533195675.0,52.27,1.158311,33.59,2122167.0
1533195675.015625,55.76,1.168558,33.59,2125573.0
1533195675.03125,58.71,1.180086,33.59,2129791.0
1533195675.046875,60.7,1.18521,33.57,2133474.0
1533195675.0625,61.44,1.18521,33.57,2136920.0
1533195675.078125,60.83,1.191615,33.57,2138886.0
1533195675.09375,59.07,1.187772,33.57,2141509.0
1533195675.109375,56.49,1.186491,33.59,2144000.0
1533195675.125,53.51,1.178806,33.59,2146041.0
1533195675.140625,50.41,1.174963,33.59,2147912.0
1533195675.15625,47.38,1.173682,33.59,2150550.0
1533195675.171875,44.45,1.180086,33.61,2153568.0
1533195675.1875,41.6,1.177525,33.61,2157268.0
1533195675.203125,38.78,1.172401,33.61,2160355.0
1533195675.21875,36.02,1.167277,33.61,2164063.0
1533195675.234375,33.38,1.176244,33.59,2162309.0
1533195675.25,30.94,1.176244,33.59,2165817.0
1533195675.265625,28.77,1.17112,33.59,2168778.0
1533195675.28125,26.8,1.165996,33.59,2167221.0
1533195675.296875,24.94,1.164715,33.59,2166651.0
1533195675.3125,23.04,1.173682,33.59,2168019.0
1533195675.328125,20.96,1.169839,33.59,2165060.0
1533195675.34375,18.57,1.168558,33.59,2163592.0
1533195675.359375,15.73,1.168558,33.57,2163519.0
1533195675.375,12.27,1.173682,33.57,2166109.0
1533195675.390625,7.99,1.173682,33.57,2167653.0
1533195675.40625,2.94,1.173682,33.57,2169225.0
1533195675.421875,-2.48,1.169839,33.57,2169810.0
1533195675.4375,-7.37,1.176244,33.57,2170747.0
1533195675.453125,-10.54,1.180086,33.57,2172060.0
1533195675.46875,-10.88,1.181368,33.57,2173041.0
1533195675.484375,-7.73,1.177525,33.59,2173857.0
1533195675.5,-1.2,1.178806,33.59,2171103.0
1533195675.515625,7.94,1.187772,33.59,2172820.0
1533195675.53125,18.56,1.194177,33.59,2169400.0
1533195675.546875,29.61,1.189053,33.57,2167813.0
1533195675.5625,40.37,1.191615,33.57,2166183.0
1533195675.578125,50.51,1.199301,33.57,2165319.0
1533195675.59375,59.91,1.206986,33.57,2164457.0
1533195675.609375,68.46,1.203144,33.57,2163650.0
1533195675.625,75.96,1.203144,33.57,2162949.0
1533195675.640625,82.16,1.206986,33.57,2162704.0
1533195675.65625,86.89,1.214672,33.57,2162461.0
1533195675.671875,90.08,1.214672,33.55,2162808.0
1533195675.6875,91.68,1.215953,33.55,2162880.0
1533195675.703125,91.6,1.222358,33.55,2161852.0
1533195675.71875,89.66,1.222358,33.55,2159674.0
1533195675.734375,85.68,1.223639,33.57,2156299.0
1533195675.75,79.68,1.22492,33.57,2153973.0
1533195675.765625,71.9,1.218515,33.57,2151596.0
1533195675.78125,62.77,1.22492,33.57,2150462.0
1533195675.796875,52.76,1.226201,33.57,2149462.0
1533195675.8125,42.25,1.233886,33.57,2149032.0
1533195675.828125,31.58,1.233886,33.57,2148736.0
1533195675.84375,21.04,1.233886,33.57,2148327.0
1533195675.859375,11.04,1.230043,33.59,2148089.0
1533195675.875,2.08,1.232605,33.59,2148406.0
1533195675.890625,-5.38,1.227481,33.59,2149089.0
1533195675.90625,-11.07,1.214672,33.59,2147808.0
1533195675.921875,-14.98,1.214672,33.55,2145221.0
1533195675.9375,-17.36,1.215953,33.55,2142538.0
1533195675.953125,-18.74,1.219796,33.55,2139563.0
1533195675.96875,-19.81,1.21211,33.55,2137197.0
1533195675.984375,-21.43,1.206986,33.57,2135826.0
1533195676.0,-24.55,1.209548,33.57,2134739.0
1533195676.015625,-29.94,1.218515,33.57,2134419.0
1533195676.03125,-37.85,1.206986,33.57,2133829.0
1533195676.046875,-47.77,1.206986,33.53,2133632.0
1533195676.0625,-58.52,1.209548,33.53,2133763.0
1533195676.078125,-68.53,1.213391,33.53,2134277.0
1533195676.09375,-76.48,1.210829,33.53,2134771.0
1533195676.109375,-81.71,1.210829,33.55,2135033.0
1533195676.125,-84.38,1.21211,33.55,2132997.0
1533195676.140625,-85.14,1.21211,33.55,2130427.0
1533195676.15625,-84.62,1.219796,33.55,2127281.0
1533195676.171875,-83.05,1.227481,33.55,2124612.0
1533195676.1875,-80.02,1.223639,33.55,2122208.0
1533195676.203125,-74.74,1.226201,33.55,2121749.0
1533195676.21875,-66.36,1.230043,33.55,2121766.0
1533195676.234375,-54.5,1.227481,33.55,2121903.0
1533195676.25,-39.42,1.217234,33.55,2122345.0
1533195676.265625,-22.08,1.22492,33.55,2122705.0
1533195676.28125,-4.03,1.231324,33.55,2123357.0
1533195676.296875,13.02,1.231324,33.55,2124866.0
1533195676.3125,27.59,1.237729,33.55,2125990.0
1533195676.328125,39.02,1.244134,33.55,2126283.0
1533195676.34375,47.67,1.249258,33.55,2124091.0
1533195676.359375,54.79,1.258224,33.57,2121004.0
1533195676.375,61.93,1.272315,33.57,2117399.0
1533195676.390625,70.05,1.268472,33.57,2114865.0
1533195676.40625,78.91,1.2531,33.57,2112734.0
1533195676.421875,86.98,1.256943,33.55,2111915.0
1533195676.4375,92.21,1.255662,33.55,2111272.0
1533195676.453125,93.17,1.255662,33.55,2111316.0
1533195676.46875,89.95,1.256943,33.55,2111118.0
1533195676.484375,84.39,1.247977,33.55,2111462.0
1533195676.5,79.15,1.242853,33.55,2112450.0
1533195676.515625,76.44,1.247977,33.55,2113624.0
1533195676.53125,76.86,1.245415,33.55,2114730.0
1533195676.546875,79.18,1.245415,33.55,2114323.0
1533195676.5625,80.96,1.23901,33.55,2112527.0
1533195676.578125,79.74,1.244134,33.55,2109401.0
1533195676.59375,74.03,1.255662,33.55,2106098.0
1533195676.609375,63.68,1.264629,33.55,2103243.0
1533195676.625,49.57,1.264629,33.55,2101074.0
1533195676.640625,33.14,1.264629,33.55,2100454.0
1533195676.65625,16.04,1.268472,33.55,2099917.0
1533195676.671875,0.18,1.272315,33.55,2099765.0
1533195676.6875,-12.29,1.26591,33.55,2099302.0
1533195676.703125,-19.23,1.256943,33.55,2099685.0
1533195676.71875,-19.39,1.262067,33.55,2100347.0
1533195676.734375,-13.5,1.269753,33.55,2100697.0
1533195676.75,-4.9,1.26591,33.55,2101414.0
1533195676.765625,0.85,1.26591,33.55,2101894.0
1533195676.78125,-2.39,1.259505,33.55,2100284.0
1533195676.796875,-19.09,1.269753,33.53,2097446.0
1533195676.8125,-50.17,1.300495,33.53,2094296.0
1533195676.828125,-92.51,1.336362,33.53,2091716.0
1533195676.84375,-140.06,1.404252,33.53,2089308.0
1533195676.859375,-186.06,1.451647,33.55,2087832.0
1533195676.875,-225.33,1.477266,33.55,2087512.0
1533195676.890625,-255.51,1.468398,33.55,2087553.0
1533195676.90625,-276.82,1.482489,33.55,2087446.0
1533195676.921875,-290.81,1.491455,33.55,2087478.0
1533195676.9375,-298.88,1.491455,33.55,2087999.0
1533195676.953125,-301.57,1.479927,33.55,2088554.0
1533195676.96875,-298.81,1.465836,33.55,2089837.0
1533195676.984375,-290.69,1.459432,33.53,2090559.0
1533195677.0,-278.17,1.450465,33.53,2090535.0
1533195677.015625,-263.01,1.451746,33.53,2088190.0
1533195677.03125,-247.05,1.440217,33.53,2085087.0
1533195677.046875,-231.28,1.418441,33.55,2081816.0
1533195677.0625,-215.34,1.413318,33.55,2079051.0
1533195677.078125,-197.76,1.410756,33.55,2077394.0
1533195677.09375,-177.01,1.394104,33.55,2077254.0
1533195677.109375,-152.43,1.390261,33.53,2076961.0
1533195677.125,-124.95,1.372327,33.53,2076645.0
1533195677.140625,-96.75,1.377451,33.53,2076583.0
1533195677.15625,-70.66,1.37617,33.53,2077268.0
1533195677.171875,-49.0,1.385137,33.53,2078028.0
1533195677.1875,-32.94,1.390261,33.53,2080345.0
1533195677.203125,-22.4,1.378732,33.53,2079133.0
1533195677.21875,-16.34,1.374889,33.53,2081474.0
1533195677.234375,-13.43,1.382575,33.5,2080068.0
1533195677.25,-12.43,1.374889,33.5,2077179.0
1533195677.265625,-12.36,1.353113,33.5,2071799.0
1533195677.28125,-12.31,1.350551,33.5,2069931.0
1533195677.296875,-11.35,1.353113,33.53,2069694.0
1533195677.3125,-8.47,1.354394,33.53,2069973.0
1533195677.328125,-2.82,1.356956,33.53,2070407.0
1533195677.34375,5.87,1.350551,33.53,2070852.0
1533195677.359375,17.14,1.351832,33.53,2071516.0
1533195677.375,29.85,1.34927,33.53,2072951.0
1533195677.390625,42.63,1.350551,33.53,2074567.0
1533195677.40625,54.41,1.351832,33.53,2076206.0
1533195677.421875,64.71,1.339023,33.5,2078456.0
1533195677.4375,73.69,1.339023,33.5,2078234.0
1533195677.453125,81.76,1.355675,33.5,2075642.0
1533195677.46875,89.17,1.365923,33.5,2072587.0
1533195677.484375,95.78,1.363361,33.5,2074451.0
1533195677.5,101.12,1.365923,33.5,2070244.0
1533195677.515625,104.75,1.374889,33.5,2068531.0
1533195677.53125,106.58,1.372327,33.5,2068371.0
1533195677.546875,106.98,1.368485,33.5,2068843.0
1533195677.5625,106.62,1.355675,33.5,2069683.0
1533195677.578125,106.05,1.344147,33.5,2070464.0
1533195677.59375,105.46,1.34927,33.5,2071626.0
1533195677.609375,104.57,1.351832,33.53,2072678.0
1533195677.625,102.85,1.347989,33.53,2077556.0
1533195677.640625,99.87,1.340304,33.53,2077734.0
1533195677.65625,95.53,1.340304,33.53,2078668.0
1533195677.671875,90.11,1.342866,33.5,2074766.0
1533195677.6875,84.08,1.342866,33.5,2071275.0
1533195677.703125,77.84,1.33518,33.5,2068714.0
1533195677.71875,71.5,1.341585,33.5,2066606.0
1533195677.734375,64.91,1.341585,33.53,2065344.0
1533195677.75,57.78,1.336461,33.53,2075875.0
1533195677.765625,49.8,1.337742,33.53,2065361.0
1533195677.78125,40.89,1.33518,33.53,2065252.0
1533195677.796875,31.15,1.331337,33.53,2065767.0
1533195677.8125,20.88,1.337742,33.53,2065795.0
1533195677.828125,10.46,1.344147,33.53,2073999.0
1533195677.84375,0.35,1.346709,33.53,2070921.0
1533195677.859375,-8.93,1.356956,33.55,2066549.0
1533195677.875,-16.78,1.360799,33.55,2068717.0
1533195677.890625,-22.52,1.369766,33.55,2071490.0
1533195677.90625,-25.51,1.378732,33.55,2067422.0
1533195677.921875,-25.31,1.383856,33.5,2070114.0
1533195677.9375,-21.9,1.382575,33.5,2067455.0
1533195677.953125,-15.72,1.394104,33.5,2064596.0
1533195677.96875,-7.64,1.396665,33.5,2062196.0
1533195677.984375,1.27,1.395384,33.53,2060857.0
1533195678.0,10.1,1.38898,33.53,2061042.0
1533195678.015625,18.34,1.377451,33.53,2060688.0
1533195678.03125,25.98,1.369766,33.53,2061448.0
1533195678.046875,33.29,1.364642,33.53,2062390.0
1533195678.0625,40.54,1.356956,33.53,2063870.0
1533195678.078125,47.69,1.358237,33.53,2064955.0
1533195678.09375,54.35,1.34927,33.53,2066577.0
1533195678.109375,59.89,1.350551,33.49,2068167.0
1533195678.125,63.75,1.355675,33.49,2068217.0
1533195678.140625,65.65,1.358237,33.49,2066298.0
1533195678.15625,65.74,1.350551,33.49,2063827.0
1533195678.171875,64.41,1.34927,33.49,2061050.0
1533195678.1875,62.19,1.34927,33.49,2061787.0
1533195678.203125,59.52,1.350551,33.49,2059149.0
1533195678.21875,56.68,1.342866,33.49,2057991.0
1533195678.234375,53.79,1.340304,33.49,2058607.0
1533195678.25,50.91,1.330056,33.49,2057977.0
1533195678.265625,47.99,1.344147,33.49,2059883.0
1533195678.28125,44.92,1.353113,33.49,2059291.0
1533195678.296875,41.55,1.36208,33.49,2060602.0
1533195678.3125,37.73,1.363361,33.49,2061871.0
1533195678.328125,33.43,1.381294,33.49,2063483.0
1533195678.34375,28.79,1.386418,33.49,2065158.0
1533195678.359375,24.1,1.385137,33.49,2067676.0
1533195678.375,19.69,1.378732,33.49,2066863.0
1533195678.390625,15.7,1.372327,33.49,2066617.0
1533195678.40625,11.97,1.371046,33.49,2064396.0
1533195678.421875,8.16,1.372327,33.49,2061886.0
1533195678.4375,3.8,1.374889,33.49,2060026.0
1533195678.453125,-1.41,1.364642,33.49,2058692.0
1533195678.46875,-7.4,1.363361,33.49,2058742.0
1533195678.484375,-13.59,1.363361,33.49,2059105.0
1533195678.5,-19.0,1.365923,33.49,2059800.0
1533195678.515625,-22.37,1.358237,33.49,2060479.0
1533195678.53125,-22.55,1.34927,33.49,2061490.0
1533195678.546875,-18.79,1.34927,33.49,2062846.0
1533195678.5625,-11.02,1.350551,33.49,2064031.0
1533195678.578125,0.15,1.356956,33.49,2065597.0
1533195678.59375,13.58,1.364642,33.49,2067288.0
1533195678.609375,27.92,1.367204,33.49,2068305.0
1533195678.625,41.99,1.372327,33.49,2067668.0
1533195678.640625,55.0,1.381294,33.49,2064989.0
1533195678.65625,66.54,1.386418,33.49,2062328.0
1533195678.671875,76.43,1.382575,33.49,2058730.0
1533195678.6875,84.51,1.381294,33.49,2053678.0
1533195678.703125,90.55,1.381294,33.49,2048986.0
1533195678.71875,94.26,1.386418,33.49,2049213.0
1533195678.734375,95.36,1.382575,33.49,2048055.0
1533195678.75,93.73,1.37617,33.49,2047929.0
1533195678.765625,89.43,1.380013,33.49,2047485.0
1533195678.78125,82.63,1.385137,33.49,2049168.0
1533195678.796875,73.76,1.385137,33.49,2054397.0
1533195678.8125,63.38,1.381294,33.49,2060777.0
1533195678.828125,52.11,1.37617,33.49,2072698.0
1533195678.84375,40.6,1.365923,33.49,2075394.0
1533195678.859375,29.23,1.364642,33.49,2073157.0
1533195678.875,18.02,1.372327,33.49,2071685.0
1533195678.890625,6.59,1.369766,33.49,2068558.0
1533195678.90625,-5.61,1.363361,33.49,2068008.0
1533195678.921875,-18.9,1.359518,33.49,2068486.0
1533195678.9375,-32.99,1.360799,33.49,2069898.0
1533195678.953125,-46.85,1.365923,33.49,2071893.0
1533195678.96875,-58.85,1.367204,33.49,2073855.0
1533195678.984375,-67.33,1.36208,33.49,2075760.0
1533195679.0,-71.21,1.356956,33.49,2077418.0
1533195679.015625,-70.36,1.36208,33.49,2079572.0
1533195679.03125,-65.66,1.369766,33.49,2081840.0
1533195679.046875,-58.77,1.365923,33.49,2086303.0
1533195679.0625,-51.59,1.363361,33.49,2084075.0
1533195679.078125,-45.74,1.365923,33.49,2087759.0
1533195679.09375,-42.23,1.367204,33.49,2086792.0
1533195679.109375,-41.17,1.363361,33.49,2084816.0
1533195679.125,-41.78,1.360799,33.49,2082878.0
1533195679.140625,-42.64,1.354394,33.49,2081056.0
1533195679.15625,-42.12,1.358237,33.49,2080209.0
1533195679.171875,-38.89,1.372327,33.49,2080594.0
1533195679.1875,-32.37,1.383856,33.49,2081603.0
1533195679.203125,-22.82,1.391542,33.49,2082531.0
1533195679.21875,-11.24,1.38898,33.49,2083339.0
1533195679.234375,1.06,1.394104,33.49,2084091.0
1533195679.25,12.86,1.40307,33.49,2085221.0
1533195679.265625,23.29,1.392823,33.49,2086668.0
1533195679.28125,31.84,1.380013,33.49,2088321.0
1533195679.296875,38.41,1.381294,33.47,2089929.0
1533195679.3125,43.15,1.37617,33.47,2089568.0
1533195679.328125,46.35,1.381294,33.47,2088117.0
1533195679.34375,48.4,1.381294,33.47,2086265.0
1533195679.359375,49.62,1.37617,33.47,2084458.0
1533195679.375,50.15,1.37617,33.47,2082704.0
1533195679.390625,49.93,1.377451,33.47,2082275.0
1533195679.40625,48.81,1.381294,33.47,2082562.0
1533195679.421875,46.56,1.380013,33.47,2082862.0
1533195679.4375,43.01,1.372327,33.47,2083442.0
1533195679.453125,37.95,1.373608,33.47,2084007.0
1533195679.46875,31.2,1.373608,33.47,2084867.0
1533195679.484375,22.67,1.380013,33.49,2085944.0
1533195679.5,12.52,1.37617,33.49,2087114.0
1533195679.515625,1.44,1.369766,33.49,2088781.0
1533195679.53125,-9.41,1.365923,33.49,2090191.0
1533195679.546875,-18.62,1.367204,33.47,2090275.0
1533195679.5625,-25.09,1.364642,33.47,2088636.0
1533195679.578125,-28.45,1.365923,33.47,2085932.0
1533195679.59375,-29.23,1.36208,33.47,2083505.0
1533195679.609375,-28.54,1.36208,33.49,2081754.0
1533195679.625,-27.59,1.367204,33.49,2080439.0
1533195679.640625,-27.22,1.37617,33.49,2080310.0
1533195679.65625,-27.66,1.373608,33.49,2080552.0
1533195679.671875,-28.58,1.368485,33.47,2081010.0
1533195679.6875,-29.22,1.368485,33.47,2081120.0
1533195679.703125,-28.58,1.37617,33.47,2082285.0
1533195679.71875,-25.59,1.373608,33.47,2082730.0
1533195679.734375,-19.29,1.372327,33.47,2083487.0
1533195679.75,-9.26,1.369766,33.47,2084729.0
1533195679.765625,4.08,1.373608,33.47,2086378.0
1533195679.78125,19.22,1.382575,33.47,2086431.0
1533195679.796875,33.96,1.394104,33.47,2085161.0
1533195679.8125,46.16,1.397946,33.47,2082940.0
1533195679.828125,54.76,1.390261,33.47,2081029.0
1533195679.84375,60.31,1.405632,33.47,2079283.0
1533195679.859375,64.88,1.408194,33.5,2078069.0
1533195679.875,70.99,1.413318,33.5,2077776.0
1533195679.890625,80.35,1.417161,33.5,2078335.0
1533195679.90625,93.05,1.410756,33.5,2079158.0
1533195679.921875,107.51,1.412037,33.49,2079768.0
1533195679.9375,121.44,1.41588,33.49,2080703.0
1533195679.953125,132.97,1.417161,33.49,2081697.0
1533195679.96875,141.26,1.413318,33.49,2082913.0
1533195679.984375,146.39,1.40307,33.49,2084279.0
1533195680.0,148.53,1.397946,33.49,2086317.0
1533195680.015625,147.22,1.400508,33.49,2087687.0
1533195680.03125,141.54,1.401789,33.49,2087677.0
1533195680.046875,130.83,1.409475,33.47,2086419.0
1533195680.0625,115.66,1.408194,33.47,2084453.0
1533195680.078125,98.11,1.401789,33.47,2082935.0
1533195680.09375,81.13,1.400508,33.47,2081680.0
1533195680.109375,67.29,1.396665,33.47,2081733.0
1533195680.125,57.68,1.40307,33.47,2081982.0
1533195680.140625,51.57,1.40307,33.47,2082786.0
1533195680.15625,46.87,1.406913,33.47,2083407.0
1533195680.171875,41.03,1.404351,33.49,2084380.0
1533195680.1875,31.71,1.406913,33.49,2085686.0
1533195680.203125,17.06,1.409475,33.49,2086809.0
1533195680.21875,-4.21,1.408194,33.49,2088332.0
1533195680.234375,-32.66,1.40307,33.47,2089922.0
1533195680.25,-67.71,1.397946,33.47,2091669.0
1533195680.265625,-107.24,1.405632,33.47,2091896.0
1533195680.28125,-147.87,1.412037,33.47,2091194.0
1533195680.296875,-185.74,1.400508,33.47,2089482.0
1533195680.3125,-217.82,1.400508,33.47,2088351.0
1533195680.328125,-242.79,1.401789,33.47,2087804.0
1533195680.34375,-261.17,1.409475,33.47,2088024.0
1533195680.359375,-274.52,1.410756,33.47,2089201.0
1533195680.375,-284.33,1.404351,33.47,2090347.0
1533195680.390625,-291.24,1.400508,33.47,2091512.0
1533195680.40625,-294.85,1.401789,33.47,2092696.0
1533195680.421875,-294.21,1.40307,33.47,2094499.0
1533195680.4375,-288.53,1.395384,33.47,2095895.0
1533195680.453125,-277.63,1.386418,33.47,2097932.0
1533195680.46875,-262.19,1.394104,33.47,2099637.0
1533195680.484375,-243.4,1.390261,33.47,2099637.0
1533195680.5,-222.66,1.396665,33.47,2101403.0
1533195680.515625,-201.28,1.390261,33.47,2100644.0
1533195680.53125,-180.33,1.396665,33.47,2099225.0
1533195680.546875,-160.53,1.390261,33.47,2097225.0
1533195680.5625,-142.31,1.394104,33.47,2096118.0
1533195680.578125,-125.8,1.392823,33.47,2095728.0
1533195680.59375,-110.81,1.382575,33.47,2095761.0
1533195680.609375,-96.98,1.394104,33.47,2096458.0
1533195680.625,-83.8,1.391542,33.47,2096852.0
1533195680.640625,-70.73,1.397946,33.47,2096939.0
1533195680.65625,-57.38,1.397946,33.47,2097896.0
1533195680.671875,-43.68,1.392823,33.47,2099030.0
1533195680.6875,-29.93,1.396665,33.47,2100250.0
1533195680.703125,-16.81,1.409475,33.47,2101906.0
1533195680.71875,-5.18,1.405632,33.47,2103036.0
1533195680.734375,4.26,1.401789,33.47,2102695.0
1533195680.75,11.18,1.394104,33.47,2100716.0
1533195680.765625,15.83,1.391542,33.47,2099039.0
1533195680.78125,18.95,1.404351,33.47,2097016.0
1533195680.796875,21.36,1.418441,33.47,2095326.0
1533195680.8125,23.71,1.426127,33.47,2095132.0
1533195680.828125,26.1,1.440217,33.47,2095295.0
1533195680.84375,28.03,1.461994,33.47,2095578.0
1533195680.859375,28.74,1.458151,33.47,2095450.0
1533195680.875,27.51,1.461994,33.47,2095854.0
1533195680.890625,24.13,1.461994,33.47,2096902.0
1533195680.90625,19.14,1.460713,33.47,2097816.0
1533195680.921875,13.71,1.472241,33.45,2099419.0
1533195680.9375,9.31,1.465836,33.45,2100380.0
1533195680.953125,7.33,1.463274,33.45,2100848.0
1533195680.96875,8.57,1.454308,33.45,2099761.0
1533195680.984375,13.16,1.450465,33.45,2097485.0
1533195681.0,20.6,1.442779,33.45,2095177.0
1533195681.015625,29.99,1.437656,33.45,2093018.0
1533195681.03125,40.39,1.436375,33.45,2091644.0
1533195681.046875,51.09,1.436375,33.47,2090926.0
1533195681.0625,61.63,1.428689,33.47,2090900.0
1533195681.078125,71.79,1.440217,33.47,2091082.0
1533195681.09375,81.34,1.441499,33.47,2091281.0
1533195681.109375,89.85,1.441499,33.47,2091425.0
1533195681.125,96.62,1.432532,33.47,2092558.0
1533195681.140625,100.87,1.433813,33.47,2093561.0
1533195681.15625,102.01,1.423565,33.47,2094506.0
1533195681.171875,99.96,1.427408,33.45,2095031.0
1533195681.1875,95.31,1.431251,33.45,2093787.0
1533195681.203125,89.22,1.422284,33.45,2091419.0
1533195681.21875,83.01,1.412037,33.45,2089531.0
1533195681.234375,77.7,1.418441,33.47,2087317.0
1533195681.25,73.63,1.427408,33.47,2086083.0
1533195681.265625,70.45,1.42997,33.47,2085958.0
1533195681.28125,67.45,1.42997,33.47,2085987.0
1533195681.296875,63.94,1.45687,33.45,2086513.0
1533195681.3125,59.6,1.495298,33.45,2087033.0
1533195681.328125,54.5,1.549098,33.45,2087632.0
1533195681.34375,48.93,1.608021,33.45,2088489.0
1533195681.359375,43.13,1.661821,33.43,2089696.0
1533195681.375,37.14,1.691283,33.43,2091198.0
1533195681.390625,30.76,1.711778,33.43,2092686.0
1533195681.40625,23.79,1.723306,33.43,2094421.0
1533195681.421875,16.19,1.724587,33.45,2095608.0
1533195681.4375,8.09,1.713059,33.45,2094397.0
1533195681.453125,-0.26,1.681035,33.45,2092248.0
1533195681.46875,-8.6,1.693845,33.45,2090395.0
1533195681.484375,-16.75,1.700249,33.45,2088265.0
1533195681.5,-24.38,1.704092,33.45,2086904.0
1533195681.515625,-31.01,1.698969,33.45,2086337.0
1533195681.53125,-35.9,1.693845,33.45,2086560.0
1533195681.546875,-38.22,1.68744,33.45,2086940.0
1533195681.5625,-37.4,1.686159,33.45,2087855.0
1533195681.578125,-33.28,1.675911,33.45,2088663.0
1533195681.59375,-26.27,1.656697,33.45,2089818.0
1533195681.609375,-17.18,1.645169,33.45,2091237.0
1533195681.625,-6.93,1.643888,33.45,2092718.0
1533195681.640625,3.65,1.641326,33.45,2094611.0
1533195681.65625,14.06,1.63364,33.45,2096190.0
1533195681.671875,23.97,1.629797,33.45,2096887.0
1533195681.6875,33.22,1.623393,33.45,2095620.0
1533195681.703125,41.6,1.616988,33.45,2093927.0
1533195681.71875,48.79,1.616988,33.45,2091942.0
1533195681.734375,54.4,1.604179,33.43,2090606.0
1533195681.75,58.16,1.629797,33.43,2089869.0
1533195681.765625,59.98,1.620831,33.43,2090093.0
1533195681.78125,60.04,1.615707,33.43,2090259.0
1533195681.796875,58.76,1.622112,33.43,2090820.0
1533195681.8125,56.55,1.611864,33.43,2091279.0
1533195681.828125,53.63,1.604179,33.43,2094578.0
1533195681.84375,49.93,1.608021,33.43,2096110.0
1533195681.859375,45.08,1.608021,33.45,2093290.0
1533195681.875,38.69,1.60674,33.45,2097969.0
1533195681.890625,30.72,1.590088,33.45,2092080.0
1533195681.90625,21.62,1.590088,33.45,2098858.0
1533195681.921875,12.28,1.586245,33.45,2098453.0
1533195681.9375,3.79,1.586245,33.45,2096539.0
1533195681.953125,-3.11,1.587526,33.45,2093567.0
1533195681.96875,-8.15,1.582402,33.45,2092302.0
1533195681.984375,-11.63,1.584964,33.45,2091976.0
1533195682.0,-14.19,1.59265,33.45,2092169.0
1533195682.015625,-16.47,1.601617,33.45,2092867.0
1533195682.03125,-19.01,1.600336,33.45,2093570.0
1533195682.046875,-22.1,1.588807,33.45,2095061.0
1533195682.0625,-25.94,1.583683,33.45,2094440.0
1533195682.078125,-30.59,1.584964,33.45,2095669.0
1533195682.09375,-35.93,1.59265,33.45,2096852.0
1533195682.109375,-41.52,1.591369,33.45,2098179.0
1533195682.125,-46.63,1.583683,33.45,2099716.0
1533195682.140625,-50.39,1.583683,33.45,2101484.0
1533195682.15625,-52.06,1.581122,33.45,2101828.0
1533195682.171875,-51.41,1.581122,33.43,2101047.0
1533195682.1875,-48.63,1.563188,33.43,2099277.0
1533195682.203125,-44.22,1.561907,33.43,2097912.0
1533195682.21875,-38.64,1.560626,33.43,2096188.0
1533195682.234375,-32.05,1.563188,33.41,2095390.0
1533195682.25,-24.31,1.56575,33.41,2095398.0
1533195682.265625,-15.17,1.56575,33.41,2096988.0
1533195682.28125,-4.63,1.561907,33.41,2097957.0
1533195682.296875,6.89,1.567031,33.41,2099116.0
1533195682.3125,18.52,1.568312,33.41,2101755.0
1533195682.328125,29.22,1.559345,33.41,2095948.0
1533195682.34375,38.17,1.559345,33.41,2103199.0
1533195682.359375,44.9,1.559345,33.41,2100363.0
1533195682.375,49.28,1.554222,33.41,2106619.0
1533195682.390625,51.32,1.561907,33.41,2107324.0
1533195682.40625,50.79,1.559345,33.41,2106470.0
1533195682.421875,47.19,1.550379,33.43,2105294.0
1533195682.4375,39.85,1.547817,33.43,2104194.0
1533195682.453125,28.39,1.545255,33.43,2103829.0
1533195682.46875,13.12,1.536288,33.43,2104436.0
1533195682.484375,-4.6,1.53885,33.47,2105614.0
1533195682.5,-22.62,1.529884,33.47,2106958.0
1533195682.515625,-38.53,1.53885,33.47,2109041.0
1533195682.53125,-50.5,1.543974,33.47,2110810.0
1533195682.546875,-57.9,1.545255,33.47,2112373.0
1533195682.5625,-61.47,1.540131,33.47,2113969.0
1533195682.578125,-62.82,1.540131,33.47,2118484.0
1533195682.59375,-63.69,1.545255,33.47,2116689.0
1533195682.609375,-65.17,1.543974,33.43,2104991.0
1533195682.625,-67.36,1.541412,33.43,2116378.0
1533195682.640625,-69.54,1.53885,33.43,2117230.0
1533195682.65625,-70.61,1.536288,33.43,2119325.0
1533195682.671875,-69.61,1.53885,33.43,2121783.0
1533195682.6875,-65.82,1.536288,33.43,2129007.0
1533195682.703125,-58.88,1.533727,33.43,2127129.0
1533195682.71875,-48.62,1.527322,33.43,2116204.0
1533195682.734375,-35.1,1.523479,33.43,2103211.0
1533195682.75,-18.76,1.522198,33.43,2107814.0
1533195682.765625,-0.5,1.533727,33.43,2115998.0
1533195682.78125,18.27,1.529884,33.43,2118026.0
1533195682.796875,36.02,1.549098,33.43,2118978.0
1533195682.8125,51.46,1.546536,33.43,2117846.0
1533195682.828125,63.97,1.549098,33.43,2129240.0
1533195682.84375,73.64,1.559345,33.43,2118269.0
1533195682.859375,81.16,1.555503,33.43,2120527.0
1533195682.875,87.31,1.543974,33.43,2123426.0
1533195682.890625,92.53,1.536288,33.43,2125216.0
1533195682.90625,96.7,1.543974,33.43,2128626.0
1533195682.921875,99.22,1.53885,33.43,2127157.0
1533195682.9375,99.38,1.53885,33.43,2115721.0
1533195682.953125,96.95,1.53885,33.43,2126124.0
1533195682.96875,92.44,1.53885,33.43,2125345.0
1533195682.984375,87.11,1.545255,33.41,2124793.0
1533195683.0,82.43,1.550379,33.41,2125219.0
1533195683.015625,79.42,1.545255,33.41,2126433.0
1533195683.03125,78.17,1.541412,33.41,2126033.0
1533195683.046875,77.88,1.549098,33.43,2126972.0
1533195683.0625,77.33,1.542693,33.43,2134518.0
1533195683.078125,75.66,1.541412,33.43,2130424.0
1533195683.09375,72.97,1.536288,33.43,2131883.0
1533195683.109375,70.42,1.542693,33.41,2129142.0
1533195683.125,69.82,1.543974,33.41,2128161.0
1533195683.140625,72.74,1.55166,33.41,2133339.0
1533195683.15625,79.91,1.555503,33.41,2133839.0
1533195683.171875,90.77,1.550379,33.41,2132846.0
1533195683.1875,103.79,1.545255,33.41,2131699.0
1533195683.203125,116.98,1.543974,33.41,2130389.0
1533195683.21875,128.39,1.550379,33.41,2129369.0
1533195683.234375,136.47,1.55166,33.43,2129048.0
1533195683.25,140.08,1.546536,33.43,2129849.0
1533195683.265625,138.56,1.543974,33.43,2130256.0
1533195683.28125,131.89,1.555503,33.43,2131111.0
1533195683.296875,121.08,1.554222,33.39,2131882.0
1533195683.3125,108.29,1.547817,33.39,2133159.0
1533195683.328125,96.53,1.531165,33.39,2134271.0
1533195683.34375,88.7,1.532446,33.39,2135885.0
1533195683.359375,86.35,1.532446,33.41,2137359.0
1533195683.375,88.96,1.540131,33.41,2138987.0
1533195683.390625,94.08,1.542693,33.41,2140169.0
1533195683.40625,98.7,1.53885,33.41,2140176.0
1533195683.421875,100.53,1.543974,33.43,2138834.0
1533195683.4375,98.79,1.55166,33.43,2137951.0
1533195683.453125,93.77,1.563188,33.43,2137951.0
1533195683.46875,85.56,1.559345,33.43,2136791.0
1533195683.484375,73.11,1.555503,33.41,2135624.0
1533195683.5,54.12,1.556784,33.41,2135464.0
1533195683.515625,26.2,1.563188,33.41,2135493.0
1533195683.53125,-11.48,1.577279,33.41,2135978.0
1533195683.546875,-57.05,1.573436,33.43,2136789.0
1533195683.5625,-106.1,1.567031,33.43,2137496.0
1533195683.578125,-153.2,1.563188,33.43,2138134.0
1533195683.59375,-193.88,1.567031,33.43,2139117.0
1533195683.609375,-226.32,1.556784,33.41,2140246.0
1533195683.625,-251.71,1.547817,33.41,2141865.0
1533195683.640625,-273.2,1.550379,33.41,2143173.0
1533195683.65625,-294.05,1.554222,33.41,2143704.0
1533195683.671875,-315.75,1.555503,33.41,2143074.0
1533195683.6875,-336.99,1.554222,33.41,2141826.0
1533195683.703125,-354.12,1.55166,33.41,2140647.0
1533195683.71875,-362.67,1.541412,33.41,2139687.0
1533195683.734375,-359.31,1.541412,33.39,2139062.0
1533195683.75,-343.53,1.53885,33.39,2139521.0
1533195683.765625,-317.86,1.53885,33.39,2140078.0
1533195683.78125,-286.97,1.533727,33.39,2140617.0
1533195683.796875,-255.82,1.537569,33.41,2141349.0
1533195683.8125,-228.07,1.537569,33.41,2142530.0
1533195683.828125,-205.21,1.545255,33.41,2143777.0
1533195683.84375,-186.78,1.549098,33.41,2145116.0
1533195683.859375,-171.35,1.549098,33.41,2146642.0
1533195683.875,-157.44,1.541412,33.41,2148577.0
1533195683.890625,-144.14,1.536288,33.41,2149605.0
1533195683.90625,-131.0,1.547817,33.41,2149790.0
1533195683.921875,-117.64,1.55166,33.41,2148696.0
1533195683.9375,-103.33,1.55166,33.41,2147015.0
1533195683.953125,-87.07,1.545255,33.41,2145769.0
1533195683.96875,-67.92,1.549098,33.41,2144590.0
1533195683.984375,-45.58,1.555503,33.39,2143911.0
1533195684.0,-20.85,1.555503,33.39,2143707.0
1533195684.015625,4.43,1.549098,33.39,2143939.0
1533195684.03125,27.83,1.545255,33.39,2144210.0
1533195684.046875,47.16,1.541412,33.41,2144622.0
1533195684.0625,61.24,1.546536,33.41,2145696.0
1533195684.078125,70.25,1.546536,33.41,2146667.0
1533195684.09375,75.54,1.546536,33.41,2147286.0
1533195684.109375,78.98,1.545255,33.41,2148359.0
1533195684.125,82.14,1.558064,33.41,2149723.0
1533195684.140625,85.7,1.563188,33.41,2150512.0
1533195684.15625,89.39,1.561907,33.41,2149700.0
1533195684.171875,92.33,1.572155,33.39,2148451.0
1533195684.1875,93.64,1.586245,33.39,2146415.0
1533195684.203125,92.87,1.627236,33.39,2145006.0
1533195684.21875,90.18,1.690002,33.39,2144040.0
1533195684.234375,86.16,1.751487,33.39,2143540.0
1533195684.25,81.57,1.810411,33.39,2144097.0
1533195684.265625,77.03,1.839872,33.39,2144396.0
1533195684.28125,72.93,1.859087,33.39,2144659.0
1533195684.296875,69.29,1.861649,33.39,2145268.0
1533195684.3125,65.82,1.862929,33.39,2145974.0
1533195684.328125,62.01,1.856525,33.39,2146986.0
1533195684.34375,57.13,1.846277,33.39,2148128.0
1533195684.359375,50.49,1.855244,33.39,2149444.0
1533195684.375,41.63,1.859087,33.39,2150378.0
1533195684.390625,30.5,1.868053,33.39,2150668.0
1533195684.40625,17.54,1.861649,33.39,2150034.0
1533195684.421875,3.77,1.842434,33.37,2148491.0
1533195684.4375,-9.42,1.825782,33.37,2147084.0
1533195684.453125,-20.49,1.810411,33.37,2146137.0
1533195684.46875,-28.1,1.79632,33.37,2145416.0
1533195684.484375,-31.38,1.779668,33.39,2145244.0
1533195684.5,-30.2,1.750206,33.39,2145541.0
1533195684.515625,-25.15,1.737397,33.39,2145808.0
1533195684.53125,-17.35,1.716902,33.39,2146588.0
1533195684.546875,-8.08,1.715621,33.37,2147305.0
1533195684.5625,1.64,1.697688,33.37,2148238.0
1533195684.578125,11.27,1.679754,33.37,2149506.0
1533195684.59375,20.77,1.674631,33.37,2150951.0
1533195684.609375,30.37,1.668226,33.37,2152613.0
1533195684.625,40.32,1.663102,33.37,2153952.0
1533195684.640625,50.58,1.664383,33.37,2153448.0
1533195684.65625,60.82,1.664383,33.37,2152596.0
1533195684.671875,70.42,1.670788,33.37,2151190.0
1533195684.6875,78.64,1.672069,33.37,2150464.0
1533195684.703125,84.88,1.675911,33.37,2150068.0
1533195684.71875,88.8,1.657978,33.37,2150582.0
1533195684.734375,90.35,1.651574,33.37,2151158.0
1533195684.75,89.77,1.642607,33.37,2152023.0
1533195684.765625,87.37,1.642607,33.37,2152581.0
1533195684.78125,83.55,1.641326,33.37,2153657.0
1533195684.796875,78.69,1.637483,33.37,2154814.0
1533195684.8125,73.25,1.627236,33.37,2155683.0
1533195684.828125,67.69,1.629797,33.37,2156924.0
1533195684.84375,62.5,1.628516,33.37,2158411.0
1533195684.859375,57.95,1.620831,33.34,2159870.0
1533195684.875,54.08,1.614426,33.34,2159921.0
1533195684.890625,50.66,1.60674,33.34,2158612.0
1533195684.90625,47.36,1.613145,33.34,2157708.0
1533195684.921875,43.96,1.602898,33.34,2156798.0
1533195684.9375,40.44,1.604179,33.34,2155706.0
1533195684.953125,36.91,1.596493,33.34,2155256.0
1533195684.96875,33.48,1.591369,33.34,2155972.0
1533195684.984375,30.04,1.596493,33.37,2156144.0
1533195685.0,26.35,1.596493,33.37,2157071.0
1533195685.015625,22.25,1.591369,33.37,2157548.0
1533195685.03125,17.99,1.583683,33.37,2158605.0
1533195685.046875,14.37,1.583683,33.34,2159780.0
1533195685.0625,12.72,1.583683,33.34,2161133.0
1533195685.078125,14.43,1.59265,33.34,2162456.0
1533195685.09375,20.49,1.591369,33.34,2163702.0
1533195685.109375,31.1,1.584964,33.37,2164547.0
1533195685.125,45.59,1.582402,33.37,2163386.0
1533195685.140625,62.5,1.583683,33.37,2162263.0
1533195685.15625,80.11,1.595212,33.37,2161076.0
1533195685.171875,96.83,1.600336,33.37,2160178.0
1533195685.1875,111.69,1.590088,33.37,2159454.0
1533195685.203125,124.55,1.582402,33.37,2159220.0
1533195685.21875,135.82,1.587526,33.37,2160120.0
1533195685.234375,146.14,1.588807,33.33,2160335.0
1533195685.25,155.72,1.59265,33.33,2161230.0
1533195685.265625,164.0,1.605459,33.33,2161686.0
1533195685.28125,169.69,1.611864,33.33,2162747.0
1533195685.296875,171.3,1.605459,33.33,2163933.0
1533195685.3125,167.97,1.611864,33.33,2164969.0
1533195685.328125,159.92,1.55166,33.33,2166254.0
1533195685.34375,148.53,1.55166,33.33,2167171.0
1533195685.359375,135.72,1.56575,33.34,2166704.0
1533195685.375,123.2,1.55166,33.34,2165420.0
1533195685.390625,111.96,1.590088,33.34,2164698.0
1533195685.40625,102.33,1.59265,33.34,2163318.0
1533195685.421875,94.3,1.692564,33.34,2162766.0
1533195685.4375,87.9,1.692564,33.34,2162495.0
1533195685.453125,83.13,1.679754,33.34,2163117.0
1533195685.46875,79.68,1.677192,33.34,2163468.0
1533195685.484375,76.49,1.681035,33.34,2163552.0
1533195685.5,72.03,1.674631,33.34,2164152.0
1533195685.515625,64.68,1.665664,33.34,2164919.0
1533195685.53125,53.44,1.629797,33.34,2165929.0
1533195685.546875,38.08,,,2167207.0
1533195685.5625,18.84,,,2168226.0
1533195685.578125,-4.36,,,2168922.0
1533195685.59375,-32.35,,,2168600.0
1533195685.609375,-66.43,,,2167310.0
1533195685.625,-107.36,,,2165835.0
1533195685.640625,-154.15,,,2164705.0
1533195685.65625,-203.46,,,2163574.0
1533195685.671875,-250.24,,,2163329.0
1533195685.6875,-289.3,,,2162895.0
1533195685.703125,-317.08,,,2163135.0
1533195685.71875,-332.78,,,2163448.0
1533195685.734375,-338.27,,,2164026.0
1533195685.75,-336.7,,,2164596.0
1533195685.765625,-330.95,,,2165275.0
1533195685.78125,-322.3,,,2166051.0
1533195685.796875,-310.23,,,2167305.0
1533195685.8125,-293.2,,,2167999.0
1533195685.828125,-269.88,,,2168063.0
1533195685.84375,-240.27,,,2166536.0
1533195685.859375,-206.08,,,2165547.0
1533195685.875,-170.24,,,2164606.0
1533195685.890625,-135.93,,,2163463.0
1533195685.90625,-105.48,,,2163557.0
1533195685.921875,-79.82,,,2163896.0
1533195685.9375,-58.51,,,2164144.0
1533195685.953125,-40.37,,,2164357.0
1533195685.96875,-24.31,,,2164711.0
1533195685.984375,-9.99,,,2165338.0
1533195686.0,2.09,,,2166157.0
1533195686.015625,11.12,,,2166850.0
1533195686.03125,16.63,,,2167909.0
1533195686.046875,19.05,,,2168723.0
1533195686.0625,19.6,,,2167938.0
1533195686.078125,19.77,,,2166799.0
1533195686.09375,20.51,,,2165704.0
1533195686.109375,21.81,,,2164895.0
1533195686.125,22.79,,,2164597.0
1533195686.140625,22.32,,,2164318.0
1533195686.15625,19.69,,,2164879.0
1533195686.171875,14.99,,,2165624.0
1533195686.1875,8.99,,,2165806.0
1533195686.203125,2.67,,,2166313.0
1533195686.21875,-3.15,,,2167205.0
1533195686.234375,-8.0,,,2168246.0
1533195686.25,-11.57,,,2169207.0
1533195686.265625,-13.47,,,2170515.0
1533195686.28125,-13.13,,,2171154.0
1533195686.296875,-10.0,,,2170244.0
1533195686.3125,-3.79,,,2169225.0
1533195686.328125,5.25,,,2168096.0
1533195686.34375,16.37,,,2167585.0
1533195686.359375,28.55,,,2166984.0
1533195686.375,40.73,,,2167606.0
1533195686.390625,52.14,,,2168102.0
1533195686.40625,62.32,,,2168709.0
1533195686.421875,71.03,,,2169169.0
1533195686.4375,78.15,,,2169905.0
1533195686.453125,83.51,,,2171172.0
1533195686.46875,86.86,,,2171985.0
1533195686.484375,87.98,,,2173106.0
1533195686.5,86.82,,,2174257.0
1533195686.515625,83.6,,,2173965.0
1533195686.53125,78.89,,,2172870.0
1533195686.546875,73.44,,,2171977.0
1533195686.5625,68.0,,,2171134.0
1533195686.578125,63.04,,,2170771.0
1533195686.59375,58.65,,,2171348.0
1533195686.609375,54.56,,,2171943.0
1533195686.625,50.36,,,2172747.0
1533195686.640625,45.74,,,2173177.0
1533195686.65625,40.54,,,2174002.0
1533195686.671875,34.85,,,2175107.0
1533195686.6875,28.79,,,2176356.0
1533195686.703125,22.44,,,2177287.0
1533195686.71875,15.83,,,2178092.0
1533195686.734375,8.93,,,2177966.0
1533195686.75,1.64,,,2176695.0
1533195686.765625,-6.23,,,2175278.0
1533195686.78125,-14.9,,,2174171.0
1533195686.796875,-24.53,,,2173382.0
1533195686.8125,-34.97,,,2173350.0
1533195686.828125,-45.58,,,2173350.0
1533195686.84375,-55.18,,,2173688.0
1533195686.859375,-62.26,,,2173767.0
1533195686.875,-65.52,,,2173818.0
1533195686.890625,-64.27,,,2174277.0
1533195686.90625,-58.75,,,2174842.0
1533195686.921875,-49.98,,,2175739.0
1533195686.9375,-39.36,,,2176479.0
1533195686.953125,-28.1,,,2177475.0
1533195686.96875,-16.82,,,2177044.0
1533195686.984375,-5.5,,,2175472.0
1533195687.0,6.26,,,2173353.0
1533195687.015625,18.69,,,2171747.0
1533195687.03125,31.49,,,2169924.0
1533195687.046875,43.68,,,2168930.0
1533195687.0625,53.84,,,2168721.0
1533195687.078125,60.65,,,2168515.0
1533195687.09375,63.34,,,2168461.0
1533195687.109375,61.95,,,2168233.0
1533195687.125,57.24,,,2168516.0
1533195687.140625,50.37,,,2168845.0
1533195687.15625,42.53,,,2169567.0
1533195687.171875,34.62,,,2170791.0
1533195687.1875,27.23,,,2171402.0
1533195687.203125,20.59,,,2170983.0
1533195687.21875,14.68,,,2168855.0
1533195687.234375,9.39,,,2166811.0
1533195687.25,4.63,,,2164533.0
1533195687.265625,0.47,,,2162631.0
1533195687.28125,-2.76,,,2161524.0
1533195687.296875,-4.57,,,2160857.0
1533195687.3125,-4.61,,,2160387.0
1533195687.328125,-3.04,,,2160130.0
1533195687.34375,-0.67,,,2160468.0
1533195687.359375,1.19,,,2160824.0
1533195687.375,1.22,,,2161436.0
1533195687.390625,-1.37,,,2162173.0
1533195687.40625,-6.53,,,2163313.0
1533195687.421875,-13.47,,,2164286.0
1533195687.4375,-21.07,,,2164693.0
1533195687.453125,-28.29,,,2163192.0
1533195687.46875,-34.43,,,2160781.0
1533195687.484375,-39.05,,,2158507.0
1533195687.5,-41.82,,,2156330.0
1533195687.515625,-42.38,,,2154774.0
1533195687.53125,-40.53,,,2153748.0
1533195687.546875,-36.35,,,2153360.0
1533195687.5625,-30.4,,,2153097.0
1533195687.578125,-23.6,,,2153177.0
1533195687.59375,-16.89,,,2153735.0
1533195687.609375,-10.76,,,2153985.0
1533195687.625,-5.12,,,2154609.0
1533195687.640625,0.61,,,2155682.0
1533195687.65625,6.9,,,2156483.0
1533195687.671875,13.56,,,2157448.0
1533195687.6875,19.65,,,2157360.0
1533195687.703125,23.81,,,2155516.0
1533195687.71875,25.15,,,2153357.0
1533195687.734375,23.86,,,2151315.0
1533195687.75,21.29,,,2149558.0
1533195687.765625,19.34,,,2149085.0
1533195687.78125,19.38,,,2148993.0
1533195687.796875,21.57,,,2149314.0
1533195687.8125,24.86,,,2149831.0
1533195687.828125,27.82,,,2150347.0
1533195687.84375,29.61,,,2151129.0
1533195687.859375,30.5,,,2152177.0
1533195687.875,31.61,,,2153166.0
1533195687.890625,34.01,,,2154601.0
1533195687.90625,37.85,,,2156064.0
1533195687.921875,42.09,,,2157182.0
1533195687.9375,44.95,,,2156861.0
1533195687.953125,44.81,,,2154968.0
1533195687.96875,40.98,,,2152960.0
1533195687.984375,33.95,,,2151258.0
1533195688.0,25.12,,,2149842.0
1533195688.015625,16.24,,,2149005.0
1533195688.03125,8.82,,,2148878.0
1533195688.046875,3.88,,,2149085.0
1533195688.0625,1.88,,,2149526.0
1533195688.078125,2.87,,,2150137.0
1533195688.09375,6.51,,,2150727.0
1533195688.109375,12.24,,,2151888.0
1533195688.125,19.26,,,2153024.0
1533195688.140625,26.71,,,2154583.0
1533195688.15625,33.82,,,2155995.0
1533195688.171875,40.09,,,2157187.0
1533195688.1875,45.41,,,2157049.0
1533195688.203125,49.97,,,2155724.0
1533195688.21875,54.12,,,2153633.0
1533195688.234375,58.15,,,2151776.0
1533195688.25,62.22,,,2149717.0
1533195688.265625,66.35,,,2148686.0
1533195688.28125,70.52,,,2148686.0
1533195688.296875,74.63,,,2148630.0
1533195688.3125,78.48,,,2148878.0
1533195688.328125,81.63,,,2149138.0
1533195688.34375,83.53,,,2149632.0
1533195688.359375,83.74,,,2150468.0
1533195688.375,82.3,,,2151337.0
1533195688.390625,80.0,,,2152495.0
1533195688.40625,78.29,,,2153753.0
1533195688.421875,78.85,,,2155128.0
1533195688.4375,82.92,,,2156841.0
1533195688.453125,90.8,,,2158030.0
1533195688.46875,101.58,,,2157564.0
1533195688.484375,113.29,,,2155816.0
1533195688.5,123.31,,,2154152.0
1533195688.515625,129.0,,,2152547.0
1533195688.53125,128.38,,,2151114.0
1533195688.546875,120.59,,,2150833.0
1533195688.5625,106.2,,,2151151.0
1533195688.578125,87.04,,,2151108.0
1533195688.59375,65.59,,,2151847.0
1533195688.609375,44.32,,,2152350.0
1533195688.625,25.06,,,2152964.0
1533195688.640625,8.81,,,2154335.0
1533195688.65625,-4.0,,,2155397.0
1533195688.671875,-13.04,,,2157200.0
1533195688.6875,-17.69,,,2158642.0
1533195688.703125,-17.0,,,2160514.0
1533195688.71875,-10.21,,,2160965.0
1533195688.734375,2.67,,,2160555.0
1533195688.75,20.27,,,2159064.0
1533195688.765625,39.73,,,2157898.0
1533195688.78125,57.07,,,2156473.0
1533195688.796875,68.02,,,2156007.0
1533195688.8125,68.93,,,2156244.0
1533195688.828125,57.57,,,2156512.0
1533195688.84375,33.41,,,2157115.0
1533195688.859375,-2.41,,,2157727.0
1533195688.875,-47.35,,,2158958.0
1533195688.890625,-97.89,,,2160373.0
1533195688.90625,-149.9,,,2161527.0
1533195688.921875,-199.09,,,2163060.0
1533195688.9375,-241.44,,,2164462.0
1533195688.953125,-273.83,,,2166168.0
1533195688.96875,-294.54,,,2166962.0
1533195688.984375,-303.51,,,2166378.0
1533195689.0,-302.13,,,2165056.0
1533195689.015625,-292.69,,,2163423.0
1533195689.03125,-277.65,,,2162319.0
1533195689.046875,-259.12,,,2161855.0
1533195689.0625,-238.68,,,2162574.0
1533195689.078125,-217.51,,,2163121.0
1533195689.09375,-196.7,,,2163642.0
1533195689.109375,-177.2,,,2164670.0
1533195689.125,-159.69,,,2165458.0
1533195689.140625,-144.24,,,2166400.0
1533195689.15625,-130.26,,,2167722.0
1533195689.171875,-116.63,,,2169020.0
1533195689.1875,-102.12,,,2170577.0
1533195689.203125,-85.94,,,2171595.0
1533195689.21875,-67.94,,,2172018.0
1533195689.234375,-48.62,,,2170911.0
1533195689.25,-28.84,,,2168797.0
1533195689.265625,-9.46,,,2166795.0
1533195689.28125,8.88,,,2165532.0
1533195689.296875,25.79,,,2163984.0
1533195689.3125,41.03,,,2162879.0
1533195689.328125,54.33,,,2161411.0
1533195689.34375,65.23,,,2159674.0
1533195689.359375,73.14,,,2156798.0
1533195689.375,77.43,,,2153997.0
1533195689.390625,77.65,,,2152846.0
1533195689.40625,73.85,,,2152351.0
1533195689.421875,66.65,,,2152333.0
1533195689.4375,57.28,,,2153071.0
1533195689.453125,47.3,,,2153870.0
1533195689.46875,38.17,,,2153964.0
1533195689.484375,30.86,,,2151794.0
1533195689.5,25.66,,,2148677.0
1533195689.515625,22.21,,,2146679.0
1533195689.53125,19.85,,,2144615.0
1533195689.546875,17.91,,,2143467.0
1533195689.5625,15.95,,,2142364.0
1533195689.578125,13.82,,,2141433.0
1533195689.59375,11.46,,,2141054.0
1533195689.609375,8.62,,,2140617.0
1533195689.625,4.82,,,2140340.0
1533195689.640625,-0.57,,,2140434.0
1533195689.65625,-7.93,,,2141051.0
1533195689.671875,-17.02,,,2141482.0
1533195689.6875,-26.75,,,2141359.0
1533195689.703125,-35.38,,,2140989.0
1533195689.71875,-41.04,,,2140124.0
1533195689.734375,-42.43,,,2140124.0
1533195689.75,-39.21,,,2138179.0
1533195689.765625,-32.07,,,2135334.0
1533195689.78125,-22.38,,,2132346.0
1533195689.796875,-11.62,,,2130139.0
1533195689.8125,-0.88,,,2127634.0
1533195689.828125,9.24,,,2126595.0
1533195689.84375,18.51,,,2125591.0
1533195689.859375,26.77,,,2124827.0
1533195689.875,33.76,,,2124113.0
1533195689.890625,39.09,,,2124319.0
1533195689.90625,42.35,,,2124776.0
1533195689.921875,43.37,,,2125413.0
1533195689.9375,42.31,,,2125791.0
1533195689.953125,39.64,,,2126436.0
1533195689.96875,36.03,,,2126428.0
1533195689.984375,32.12,,,2125733.0
1533195690.0,28.31,,,2123208.0
1533195690.015625,24.65,,,2120243.0
1533195690.03125,21.0,,,2117633.0
1533195690.046875,17.12,,,2115274.0
1533195690.0625,12.95,,,2113123.0
1533195690.078125,8.71,,,2112362.0
1533195690.09375,4.8,,,2111517.0
1533195690.109375,1.62,,,2111362.0
1533195690.125,-0.74,,,2110927.0
1533195690.140625,-2.59,,,2110850.0
1533195690.15625,-4.58,,,2110668.0
1533195690.171875,-7.43,,,2110622.0
1533195690.1875,-11.6,,,2110995.0
1533195690.203125,-17.01,,,2111410.0
1533195690.21875,-23.0,,,2111970.0
1533195690.234375,-28.43,,,2111356.0
1533195690.25,-32.06,,,2109464.0
1533195690.265625,-32.86,,,2107289.0
1533195690.28125,-30.27,,,2104668.0
1533195690.296875,-24.37,,,2102715.0
1533195690.3125,-15.61,,,2101116.0
1533195690.328125,-4.72,,,2100466.0
1533195690.34375,7.56,,,2100454.0
1533195690.359375,20.56,,,2100157.0
1533195690.375,33.64,,,2100289.0
1533195690.390625,46.14,,,2100359.0
1533195690.40625,57.36,,,2101015.0
1533195690.421875,66.59,,,2101392.0
1533195690.4375,73.36,,,2102220.0
1533195690.453125,77.51,,,2103360.0
1533195690.46875,79.28,,,2104394.0
1533195690.484375,79.16,,,2104535.0
1533195690.5,77.64,,,2103404.0
1533195690.515625,75.0,,,2101360.0
1533195690.53125,71.24,,,2099232.0
1533195690.546875,66.27,,,2097470.0
1533195690.5625,60.07,,,2096667.0
1533195690.578125,52.85,,,2096537.0
1533195690.59375,45.07,,,2096702.0
1533195690.609375,37.21,,,2096533.0
1533195690.625,29.48,,,2096561.0
1533195690.640625,21.67,,,2096622.0
1533195690.65625,13.26,,,2096697.0
1533195690.671875,3.74,,,2097132.0
1533195690.6875,-7.03,,,2097672.0
1533195690.703125,-18.65,,,2097759.0
1533195690.71875,-30.25,,,2098439.0
1533195690.734375,-40.76,,,2099270.0
1533195690.75,-49.11,,,2099182.0
1533195690.765625,-54.45,,,2097569.0
1533195690.78125,-56.14,,,2095929.0
1533195690.796875,-53.88,,,2094288.0
1533195690.8125,-47.77,,,2093317.0
1533195690.828125,-38.41,,,2093775.0
1533195690.84375,-26.8,,,2094403.0
1533195690.859375,-14.16,,,2095163.0
1533195690.875,-1.57,,,2095658.0
1533195690.890625,10.33,,,2096083.0
1533195690.90625,21.34,,,2096119.0
1533195690.921875,31.48,,,2096843.0
1533195690.9375,40.72,,,2097030.0
1533195690.953125,48.72,,,2097708.0
1533195690.96875,54.91,,,2098676.0
1533195690.984375,58.64,,,2099025.0
1533195691.0,59.5,,,2098344.0
1533195691.015625,57.49,,,2096593.0
1533195691.03125,53.13,,,2094748.0
1533195691.046875,47.32,,,2093058.0
1533195691.0625,41.2,,,2091639.0
1533195691.078125,35.77,,,2091716.0
1533195691.09375,31.55,,,2092215.0
1533195691.109375,28.41,,,2092678.0
1533195691.125,25.62,,,2093360.0
1533195691.140625,22.16,,,2094412.0
1533195691.15625,17.32,,,2095409.0
1533195691.171875,11.13,,,2096274.0
1533195691.1875,4.45,,,2097632.0
1533195691.203125,-1.41,,,2098964.0
1533195691.21875,-5.32,,,2100114.0
1533195691.234375,-6.93,,,2100460.0
1533195691.25,-6.77,,,2099421.0
1533195691.265625,-5.9,,,2097945.0
1533195691.28125,-5.22,,,2096338.0
1533195691.296875,-4.88,,,2095235.0
1533195691.3125,-4.25,,,2094597.0
1533195691.328125,-2.39,,,2094794.0
1533195691.34375,1.34,,,2095592.0
1533195691.359375,6.86,,,2096036.0
1533195691.375,13.43,,,2096601.0
1533195691.390625,20.25,,,2097748.0
1533195691.40625,26.88,,,2095421.0
1533195691.421875,33.43,,,2098969.0
1533195691.4375,40.24,,,2100342.0
1533195691.453125,47.39,,,2101928.0
1533195691.46875,54.43,,,2103456.0
1533195691.484375,60.66,,,2104302.0
1533195691.5,65.63,,,2103283.0
1533195691.515625,69.67,,,2101824.0
1533195691.53125,73.87,,,2098356.0
1533195691.546875,79.6,,,2100118.0
1533195691.5625,87.72,,,2097573.0
1533195691.578125,98.08,,,2098070.0
1533195691.59375,109.48,,,2098380.0
1533195691.609375,120.21,,,2099156.0
1533195691.625,128.73,,,2097723.0
1533195691.640625,134.1,,,2099776.0
1533195691.65625,136.0,,,2100292.0
1533195691.671875,134.51,,,2101323.0
1533195691.6875,129.84,,,2101894.0
1533195691.703125,122.23,,,2102278.0
1533195691.71875,112.05,,,2102807.0
1533195691.734375,99.89,,,2103366.0
1533195691.75,86.58,,,2103286.0
1533195691.765625,73.06,,,2102660.0
1533195691.78125,60.09,,,2101068.0
1533195691.796875,47.73,,,2099611.0
1533195691.8125,35.08,,,2097788.0
1533195691.828125,20.15,,,2098415.0
1533195691.84375,0.37,,,2097674.0
1533195691.859375,-26.5,,,2098573.0
1533195691.875,-61.29,,,2099856.0
1533195691.890625,-102.57,,,2100343.0
1533195691.90625,-146.66,,,2100097.0
1533195691.921875,-188.55,,,2100448.0
1533195691.9375,-223.47,,,2100726.0
1533195691.953125,-248.33,,,2101546.0
1533195691.96875,-262.53,,,2102059.0
1533195691.984375,-267.71,,,2102919.0
1533195692.0,-266.68,,,2103821.0
1533195692.015625,-262.16,,,2103870.0
1533195692.03125,-255.9,,,2102634.0
1533195692.046875,-248.42,,,2100477.0
1533195692.0625,-239.4,,,2096979.0
1533195692.078125,-228.15,,,2096032.0
1533195692.09375,-214.16,,,2098700.0
1533195692.109375,-197.39,,,2095555.0
1533195692.125,-178.43,,,2095390.0
1533195692.140625,-158.38,,,2095342.0
1533195692.15625,-138.56,,,2096319.0
1533195692.171875,-120.17,,,2097304.0
1533195692.1875,-103.92,,,2095716.0
1533195692.203125,-89.98,,,2100049.0
1533195692.21875,-78.15,,,2103022.0
1533195692.234375,-68.33,,,2104442.0
1533195692.25,-60.71,,,2104405.0
1533195692.265625,-55.83,,,2103700.0
1533195692.28125,-54.16,,,2102854.0
1533195692.296875,-55.76,,,2102280.0
1533195692.3125,-59.88,,,2098657.0
1533195692.328125,-65.11,,,2101391.0
1533195692.34375,-69.7,,,2102304.0
1533195692.359375,-72.08,,,2102991.0
1533195692.375,-71.24,,,2104343.0
1533195692.390625,-66.78,,,2105463.0
1533195692.40625,-58.78,,,2106717.0
1533195692.421875,-47.61,,,2107787.0
1533195692.4375,-33.74,,,2108616.0
1533195692.453125,-17.77,,,2109056.0
1533195692.46875,-0.47,,,2109357.0
1533195692.484375,17.2,,,2110119.0
1533195692.5,34.18,,,2110799.0
1533195692.515625,49.55,,,2111776.0
1533195692.53125,62.6,,,2112307.0
1533195692.546875,72.98,,,2111850.0
1533195692.5625,80.57,,,2110841.0
1533195692.578125,85.45,,,2109479.0
1533195692.59375,87.79,,,2108706.0
1533195692.609375,87.81,,,2107885.0
1533195692.625,85.82,,,2107299.0
1533195692.640625,82.21,,,2107591.0
1533195692.65625,77.37,,,2107497.0
1533195692.671875,71.7,,,2107537.0
1533195692.6875,65.55,,,2107614.0
1533195692.703125,59.29,,,2107834.0
1533195692.71875,53.29,,,2107362.0
1533195692.734375,47.86,,,2107649.0
1533195692.75,43.07,,,2108138.0
1533195692.765625,38.66,,,2109257.0
1533195692.78125,34.12,,,2110756.0
1533195692.796875,28.73,,,2111803.0
1533195692.8125,21.86,,,2111884.0
1533195692.828125,13.23,,,2110510.0
1533195692.84375,2.94,,,2109640.0
1533195692.859375,-8.39,,,2108844.0
1533195692.875,-19.8,,,2108017.0
1533195692.890625,-29.99,,,2107532.0
1533195692.90625,-37.65,,,2107193.0
1533195692.921875,-41.65,,,2107098.0
1533195692.9375,-41.36,,,2106872.0
1533195692.953125,-36.77,,,2107309.0
1533195692.96875,-28.5,,,2108240.0
1533195692.984375,-17.51,,,2109011.0
1533195693.0,-4.81,,,2110021.0
1533195693.015625,8.78,,,2111206.0
1533195693.03125,22.55,,,2112947.0
1533195693.046875,35.79,,,2114638.0
1533195693.0625,47.69,,,2115815.0
1533195693.078125,57.38,,,2115533.0
1533195693.09375,64.15,,,2114618.0
1533195693.109375,67.65,,,2113558.0
1533195693.125,67.97,,,2112820.0
1533195693.140625,65.61,,,2112333.0
1533195693.15625,61.2,,,2113178.0
1533195693.171875,55.37,,,2114070.0
1533195693.1875,48.63,,,2114856.0
1533195693.203125,41.44,,,2115481.0
1533195693.21875,34.24,,,2116795.0
1533195693.234375,27.48,,,2118415.0
1533195693.25,21.59,,,2120257.0
1533195693.265625,16.82,,,2122459.0
1533195693.28125,13.16,,,2124494.0
1533195693.296875,10.31,,,2126380.0
1533195693.3125,7.71,,,2127769.0
1533195693.328125,4.74,,,2127686.0
1533195693.34375,0.78,,,2126743.0
1533195693.359375,-4.65,,,2126001.0
1533195693.375,-11.79,,,2125314.0
1533195693.390625,-20.4,,,2124937.0
1533195693.40625,-29.74,,,2125019.0
1533195693.421875,-38.53,,,2125623.0
1533195693.4375,-45.16,,,2126122.0
1533195693.453125,-48.11,,,2126620.0
1533195693.46875,-46.4,,,2127083.0
1533195693.484375,-39.89,,,2127728.0
1533195693.5,-29.28,,,2128555.0
1533195693.515625,-15.92,,,2129421.0
1533195693.53125,-1.23,,,2130087.0
1533195693.546875,13.61,,,2131010.0
1533195693.5625,27.89,,,2130758.0
1533195693.578125,41.32,,,2129684.0
1533195693.59375,53.75,,,2128363.0
1533195693.609375,64.92,,,2126772.0
1533195693.625,74.35,,,2124828.0
1533195693.640625,81.44,,,2123322.0
1533195693.65625,85.72,,,2122507.0
1533195693.671875,87.11,,,2122671.0
1533195693.6875,86.08,,,2122529.0
1533195693.703125,83.52,,,2122220.0
1533195693.71875,80.56,,,2121510.0
1533195693.734375,78.09,,,2120978.0
1533195693.75,76.41,,,2120727.0
1533195693.765625,75.24,,,2121853.0
1533195693.78125,73.93,,,2123128.0
1533195693.796875,71.89,,,2124418.0
1533195693.8125,68.87,,,2124585.0
1533195693.828125,65.06,,,2123212.0
1533195693.84375,60.72,,,2120801.0
1533195693.859375,55.83,,,2118375.0
1533195693.875,49.79,,,2116227.0
1533195693.890625,41.63,,,2114200.0
1533195693.90625,30.43,,,2112878.0
1533195693.921875,15.89,,,2111511.0
1533195693.9375,-1.23,,,2110414.0
1533195693.953125,-19.22,,,2109791.0
1533195693.96875,-35.71,,,2109082.0
1533195693.984375,-48.31,,,2108752.0
1533195694.0,-55.18,,,2108568.0
1533195694.015625,-55.39,,,2108453.0
1533195694.03125,-49.11,,,2108731.0
1533195694.046875,-37.41,,,2108727.0
1533195694.0625,-22.0,,,2108604.0
1533195694.078125,-4.75,,,2107223.0
1533195694.09375,12.76,,,2105808.0
1533195694.109375,29.58,,,2104347.0
1533195694.125,45.44,,,2103352.0
1533195694.140625,60.43,,,2102614.0
1533195694.15625,74.6,,,2102855.0
1533195694.171875,87.52,,,2103059.0
1533195694.1875,98.21,,,2103599.0
1533195694.203125,105.46,,,2103798.0
1533195694.21875,108.39,,,2104785.0
1533195694.234375,106.94,,,2105697.0
1533195694.25,102.16,,,2107093.0
1533195694.265625,95.91,,,2108316.0
1533195694.28125,90.36,,,2109472.0
1533195694.296875,87.28,,,2110000.0
1533195694.3125,87.62,,,2109491.0
1533195694.328125,91.04,,,2108226.0
1533195694.34375,95.89,,,2107299.0
1533195694.359375,99.36,,,2106258.0
1533195694.375,97.92,,,2105684.0
1533195694.390625,88.05,,,2105652.0
1533195694.40625,67.02,,,2105930.0
1533195694.421875,33.72,,,2105603.0
1533195694.4375,-10.94,,,2105659.0
1533195694.453125,-63.97,,,2105893.0
1533195694.46875,-120.85,,,2106786.0
1533195694.484375,-176.46,,,2107756.0
1533195694.5,-226.02,,,2108448.0
1533195694.515625,-265.87,,,2109847.0
1533195694.53125,-293.75,,,2110800.0
1533195694.546875,-308.85,,,2110780.0
1533195694.5625,-311.49,,,2109629.0
1533195694.578125,-302.79,,,2107380.0
1533195694.59375,-284.43,,,2105059.0
1533195694.609375,-258.46,,,2102985.0
1533195694.625,-227.16,,,2101912.0
1533195694.640625,-192.87,,,2101590.0
1533195694.65625,-157.8,,,2101945.0
1533195694.671875,-123.73,,,2102000.0
1533195694.6875,-91.85,,,2101290.0
1533195694.703125,-62.76,,,2100861.0
1533195694.71875,-36.76,,,2100589.0
1533195694.734375,-13.98,,,2101233.0
1533195694.75,5.19,,,2101319.0
1533195694.765625,20.3,,,2102014.0
1533195694.78125,30.9,,,2102430.0
1533195694.796875,36.96,,,2101453.0
1533195694.8125,39.0,,,2099307.0
1533195694.828125,38.15,,,2096668.0
1533195694.84375,35.79,,,2093727.0
1533195694.859375,33.16,,,2091289.0
1533195694.875,30.95,,,2089134.0
1533195694.890625,29.26,,,2087725.0
1533195694.90625,27.77,,,2086219.0
1533195694.921875,26.12,,,2084821.0
1533195694.9375,24.17,,,2083802.0
1533195694.953125,22.1,,,2083177.0
1533195694.96875,20.2,,,2082540.0
1533195694.984375,18.58,,,2082268.0
1533195695.0,17.03,,,2082329.0
1533195695.015625,15.02,,,2082341.0
1533195695.03125,11.91,,,2082807.0
1533195695.046875,7.22,,,2083155.0
1533195695.0625,0.81,,,2083007.0
1533195695.078125,-7.0,,,2082046.0
1533195695.09375,-15.46,,,2081232.0
1533195695.109375,-23.43,,,2080596.0
1533195695.125,-29.56,,,2080339.0
1533195695.140625,-32.66,,,2080689.0
1533195695.15625,-31.93,,,2081537.0
1533195695.171875,-27.2,,,2082526.0
1533195695.1875,-18.95,,,2083412.0
1533195695.203125,-8.1,,,2085376.0
1533195695.21875,4.33,,,2087513.0
1533195695.234375,17.48,,,2089968.0
1533195695.25,30.77,,,2092207.0
1533195695.265625,43.75,,,2094488.0
1533195695.28125,55.95,,,2096569.0
1533195695.296875,66.6,,,2097802.0
1533195695.3125,74.84,,,2098919.0
1533195695.328125,79.87,,,2098818.0
1533195695.34375,81.37,,,2097946.0
1533195695.359375,79.7,,,2096845.0
1533195695.375,75.76,,,2095499.0
1533195695.390625,70.72,,,2095618.0
1533195695.40625,65.51,,,2096059.0
1533195695.421875,60.59,,,2097023.0
1533195695.4375,55.86,,,2097847.0
1533195695.453125,50.98,,,2099151.0
1533195695.46875,45.61,,,2099910.0
1533195695.484375,39.77,,,2100659.0
1533195695.5,33.73,,,2101330.0
1533195695.515625,27.9,,,2102377.0
1533195695.53125,22.55,,,2103458.0
1533195695.546875,17.64,,,2105099.0
1533195695.5625,12.88,,,2105867.0
1533195695.578125,7.82,,,2105248.0
1533195695.59375,2.07,,,2104620.0
1533195695.609375,-4.68,,,2104031.0
1533195695.625,-12.52,,,2103752.0
1533195695.640625,-21.37,,,2103158.0
1533195695.65625,-30.89,,,2102945.0
1533195695.671875,-40.38,,,2102732.0
1533195695.6875,-48.84,,,2102179.0
1533195695.703125,-54.98,,,2102056.0
1533195695.71875,-57.62,,,2101968.0
1533195695.734375,-55.98,,,2101704.0
1533195695.75,-50.04,,,2101642.0
1533195695.765625,-40.5,,,2101282.0
1533195695.78125,-28.55,,,2101917.0
1533195695.796875,-15.52,,,2101550.0
1533195695.8125,-2.42,,,2101695.0
1533195695.828125,10.22,,,2100563.0
1533195695.84375,22.24,,,2098902.0
1533195695.859375,33.56,,,2097456.0
1533195695.875,43.9,,,2095863.0
1533195695.890625,52.71,,,2094696.0
1533195695.90625,59.33,,,2093822.0
1533195695.921875,63.2,,,2093361.0
1533195695.9375,64.21,,,2093532.0
1533195695.953125,62.76,,,2093452.0
1533195695.96875,59.6,,,2094017.0
1533195695.984375,55.63,,,2094768.0
1533195696.0,51.58,,,2095853.0
1533195696.015625,47.83,,,2096850.0
1533195696.03125,44.46,,,2097337.0
1533195696.046875,41.29,,,2098074.0
1533195696.0625,38.11,,,2099210.0
1533195696.078125,34.8,,,2099666.0
1533195696.09375,31.41,,,2099279.0
1533195696.109375,28.1,,,2098522.0
1533195696.125,25.06,,,2098055.0
1533195696.140625,22.41,,,2097835.0
1533195696.15625,20.04,,,2098061.0
1533195696.171875,17.64,,,2098347.0
1533195696.1875,14.71,,,2099383.0
1533195696.203125,10.67,,,2099850.0
1533195696.21875,4.99,,,2100683.0
1533195696.234375,-2.6,,,2101525.0
1533195696.25,-11.96,,,2102864.0
1533195696.265625,-22.39,,,2104415.0
1533195696.28125,-32.78,,,2106117.0
1533195696.296875,-41.76,,,2108403.0
1533195696.3125,-48.06,,,2110271.0
1533195696.328125,-50.93,,,2111863.0
1533195696.34375,-50.29,,,2112196.0
1533195696.359375,-46.7,,,2111658.0
1533195696.375,-41.07,,,2110881.0
1533195696.390625,-34.3,,,2109918.0
1533195696.40625,-26.91,,,2109946.0
1533195696.421875,-19.1,,,2110691.0
1533195696.4375,-10.92,,,2112042.0
1533195696.453125,-2.51,,,2112673.0
1533195696.46875,5.75,,,2113781.0
1533195696.484375,13.21,,,2114431.0
1533195696.5,19.26,,,2115198.0
1533195696.515625,23.53,,,2115985.0
1533195696.53125,26.07,,,2116972.0
1533195696.546875,27.26,,,2118503.0
1533195696.5625,27.64,,,2119738.0
1533195696.578125,27.62,,,2120039.0
1533195696.59375,27.3,,,2118723.0
1533195696.609375,26.48,,,2117008.0
1533195696.625,24.77,,,2116657.0
1533195696.640625,21.86,,,2115961.0
1533195696.65625,17.65,,,2118034.0
1533195696.671875,12.29,,,2118159.0
1533195696.6875,6.04,,,2117535.0
1533195696.703125,-0.94,,,2117344.0
1533195696.71875,-8.75,,,2120406.0
1533195696.734375,-17.71,,,2117335.0
1533195696.75,-28.16,,,2126450.0
1533195696.765625,-40.13,,,2130970.0
1533195696.78125,-53.12,,,2135147.0
1533195696.796875,-66.09,,,2139345.0
1533195696.8125,-77.66,,,2146015.0
1533195696.828125,-86.27,,,2147575.0
1533195696.84375,-90.39,,,2148062.0
1533195696.859375,-88.65,,,2147605.0
1533195696.875,-79.94,,,2143238.0
1533195696.890625,-63.77,,,2147697.0
1533195696.90625,-40.57,,,2148968.0
1533195696.921875,-12.0,,,2147793.0
1533195696.9375,19.29,,,2149483.0
1533195696.953125,50.23,,,2150095.0
1533195696.96875,78.21,,,2151700.0
1533195696.984375,101.78,,,2153942.0
1533195697.0,120.89,,,2156325.0
1533195697.015625,136.43,,,2159192.0
1533195697.03125,149.42,,,2160655.0
1533195697.046875,160.33,,,2161778.0
1533195697.0625,168.76,,,2161966.0
1533195697.078125,173.83,,,2164223.0
1533195697.09375,174.93,,,2164901.0
1533195697.109375,172.28,,,2163606.0
1533195697.125,167.04,,,2162887.0
1533195697.140625,160.9,,,2162394.0
1533195697.15625,155.36,,,2160787.0
1533195697.171875,151.06,,,2158737.0
1533195697.1875,147.51,,,2156434.0
1533195697.203125,143.5,,,2154939.0
1533195697.21875,137.77,,,2153741.0
1533195697.234375,129.7,,,2153491.0
1533195697.25,119.4,,,2153490.0
1533195697.265625,107.36,,,2153568.0
1533195697.28125,93.58,,,2153559.0
1533195697.296875,77.12,,,2153569.0
1533195697.3125,56.0,,,2153851.0
1533195697.328125,27.93,,,2153612.0
1533195697.34375,-8.84,,,2152378.0
1533195697.359375,-54.8,,,2150665.0
1533195697.375,-108.91,,,2148526.0
1533195697.390625,-168.66,,,2146404.0
1533195697.40625,-230.36,,,2144724.0
1533195697.421875,-289.37,,,2143641.0
1533195697.4375,-340.49,,,2142806.0
1533195697.453125,-378.58,,,2141964.0
1533195697.46875,-399.59,,,2141116.0
1533195697.484375,-401.62,,,2140570.0
1533195697.5,-385.66,,,2139990.0
1533195697.515625,-355.33,,,2140170.0
1533195697.53125,-315.79,,,2140443.0
1533195697.546875,-272.15,,,2140710.0
1533195697.5625,-228.14,,,2141230.0
1533195697.578125,-185.82,,,2141937.0
1533195697.59375,-145.99,,,2140862.0
1533195697.609375,-109.0,,,2139247.0
1533195697.625,-75.45,,,2137405.0
1533195697.640625,-46.24,,,2135740.0
1533195697.65625,-22.2,,,2134594.0
1533195697.671875,-3.52,,,2134108.0
1533195697.6875,10.36,,,2134498.0
1533195697.703125,20.57,,,2135024.0
1533195697.71875,28.29,,,2135878.0
1533195697.734375,34.31,,,2135938.0
1533195697.75,38.85,,,2135928.0
1533195697.765625,41.77,,,2136102.0
1533195697.78125,42.93,,,2137019.0
1533195697.796875,42.42,,,2138852.0
1533195697.8125,40.73,,,2140621.0
1533195697.828125,38.47,,,2141363.0
1533195697.84375,36.22,,,2141575.0
1533195697.859375,34.3,,,2140201.0
1533195697.875,32.72,,,2138222.0
1533195697.890625,31.3,,,2135710.0
1533195697.90625,29.68,,,2133750.0
1533195697.921875,27.44,,,2131589.0
1533195697.9375,24.19,,,2130091.0
1533195697.953125,19.61,,,2129117.0
1533195697.96875,13.62,,,2128298.0
1533195697.984375,6.49,,,2127373.0
1533195698.0,-1.13,,,2126848.0
1533195698.015625,-8.22,,,2126147.0
1533195698.03125,-13.63,,,2125639.0
1533195698.046875,-16.34,,,2125191.0
1533195698.0625,-15.67,,,2124748.0
1533195698.078125,-11.48,,,2124608.0
1533195698.09375,-4.16,,,2123394.0
1533195698.109375,5.54,,,2120887.0
1533195698.125,16.68,,,2117957.0
1533195698.140625,28.35,,,2115417.0
1533195698.15625,39.84,,,2112862.0
1533195698.171875,50.68,,,2110962.0
1533195698.1875,60.59,,,2109427.0
1533195698.203125,69.39,,,2108896.0
1533195698.21875,76.78,,,2108896.0
1533195698.234375,82.25,,,2108178.0
1533195698.25,85.14,,,2107724.0
1533195698.265625,84.87,,,2107384.0
1533195698.28125,81.27,,,2107401.0
1533195698.296875,74.76,,,2107804.0
1533195698.3125,66.35,,,2108139.0
1533195698.328125,57.38,,,2108416.0
1533195698.34375,49.01,,,2108910.0
1533195698.359375,41.88,,,2109769.0
1533195698.375,36.04,,,2109425.0
1533195698.390625,31.1,,,2108847.0
1533195698.40625,26.65,,,2107683.0
1533195698.421875,22.49,,,2106279.0
1533195698.4375,18.65,,,2105037.0
1533195698.453125,15.18,,,2104626.0
1533195698.46875,11.96,,,2104546.0
1533195698.484375,8.63,,,2104645.0
1533195698.5,4.65,,,2104467.0
1533195698.515625,-0.4,,,2104553.0
1533195698.53125,-6.72,,,2104657.0
1533195698.546875,-14.3,,,2105080.0
1533195698.5625,-22.99,,,2105963.0
1533195698.578125,-32.54,,,2107675.0
1533195698.59375,-42.51,,,2109072.0
1533195698.609375,-52.14,,,2110361.0
1533195698.625,-60.25,,,2111387.0
1533195698.640625,-65.39,,,2111479.0
1533195698.65625,-66.3,,,2110667.0
1533195698.671875,-62.27,,,2109535.0
1533195698.6875,-53.5,,,2108799.0
1533195698.703125,-40.97,,,2108447.0
1533195698.71875,-26.1,,,2107387.0
1533195698.734375,-10.3,,,2106886.0
1533195698.75,5.38,,,2106369.0
1533195698.765625,20.36,,,2106208.0
1533195698.78125,34.3,,,2105942.0
1533195698.796875,46.9,,,2105981.0
1533195698.8125,57.73,,,2106176.0
1533195698.828125,66.29,,,2106158.0
1533195698.84375,72.16,,,2105452.0
1533195698.859375,75.29,,,2105838.0
1533195698.875,75.98,,,2106032.0
1533195698.890625,74.97,,,2106949.0
1533195698.90625,73.13,,,2107192.0
1533195698.921875,71.25,,,2106470.0
1533195698.9375,69.75,,,2105378.0
1533195698.953125,68.66,,,2104237.0
1533195698.96875,67.68,,,2102921.0
1533195698.984375,66.42,,,2101921.0
1533195699.0,64.66,,,2101314.0
1533195699.015625,62.42,,,2101351.0
1533195699.03125,59.98,,,2101745.0
1533195699.046875,57.63,,,2101971.0
1533195699.0625,55.53,,,2102722.0
1533195699.078125,53.61,,,2103255.0
1533195699.09375,51.67,,,2104296.0
1533195699.109375,49.56,,,2105669.0
1533195699.125,47.22,,,2106634.0
1533195699.140625,44.62,,,2108004.0
1533195699.15625,41.67,,,2108337.0
1533195699.171875,38.14,,,2107731.0
1533195699.1875,33.77,,,2106374.0
1533195699.203125,28.57,,,2104796.0
1533195699.21875,23.06,,,2103088.0
1533195699.234375,18.19,,,2102246.0
1533195699.25,15.16,,,2101252.0
1533195699.265625,14.98,,,2101282.0
1533195699.28125,18.21,,,2101397.0
1533195699.296875,24.88,,,2101524.0
1533195699.3125,34.65,,,2102176.0
1533195699.328125,46.79,,,2102418.0
1533195699.34375,60.21,,,2103479.0
1533195699.359375,73.37,,,2104015.0
1533195699.375,84.38,,,2104623.0
1533195699.390625,91.39,,,2105013.0
1533195699.40625,93.28,,,2105529.0
1533195699.421875,90.17,,,2105922.0
1533195699.4375,83.44,,,2105062.0
1533195699.453125,75.2,,,2103475.0
1533195699.46875,67.49,,,2101825.0
1533195699.484375,61.61,,,2100389.0
1533195699.5,57.93,,,2099378.0
1533195699.515625,55.94,,,2099100.0
1533195699.53125,54.37,,,2098400.0
1533195699.546875,51.16,,,2097768.0
1533195699.5625,43.5,,,2096736.0
1533195699.578125,28.12,,,2095802.0
1533195699.59375,2.41,,,2095337.0
1533195699.609375,-34.29,,,2095703.0
1533195699.625,-79.54,,,2096399.0
1533195699.640625,-128.0,,,2096976.0
1533195699.65625,-172.89,,,2097856.0
1533195699.671875,-208.33,,,2098588.0
1533195699.6875,-231.4,,,2097886.0
1533195699.703125,-242.72,,,2096061.0
1533195699.71875,-245.45,,,2093412.0
1533195699.734375,-243.39,,,2090599.0
1533195699.75,-239.22,,,2087767.0
1533195699.765625,-233.95,,,2085143.0
1533195699.78125,-227.51,,,2083113.0
1533195699.796875,-219.83,,,2081683.0
1533195699.8125,-211.36,,,2080644.0
1533195699.828125,-202.94,,,2079709.0
1533195699.84375,-194.98,,,2079382.0
1533195699.859375,-186.84,,,2079159.0
1533195699.875,-176.81,,,2079222.0
1533195699.890625,-163.0,,,2079387.0
1533195699.90625,-144.29,,,2079584.0
1533195699.921875,-121.1,,,2080192.0
1533195699.9375,-95.28,,,2080937.0
1533195699.953125,-69.27,,,2081226.0
1533195699.96875,-45.15,,,2079810.0
1533195699.984375,-23.83,,,2077973.0
1533195700.0,-4.97,,,2076473.0
1533195700.015625,12.46,,,2075243.0
1533195700.03125,29.29,,,2074511.0
1533195700.046875,45.49,,,2074726.0
1533195700.0625,59.95,,,2074559.0
1533195700.078125,71.09,,,2074711.0
1533195700.09375,77.75,,,2074921.0
1533195700.109375,79.95,,,2075582.0
1533195700.125,79.05,,,2076728.0
1533195700.140625,77.15,,,2078105.0
1533195700.15625,76.11,,,2079813.0
1533195700.171875,76.64,,,2081151.0
1533195700.1875,78.15,,,2082719.0
1533195700.203125,79.24,,,2083548.0
1533195700.21875,78.62,,,2083022.0
1533195700.234375,75.67,,,2082102.0
1533195700.25,70.5,,,2080971.0
1533195700.265625,63.52,,,2080491.0
1533195700.28125,54.94,,,2079966.0
1533195700.296875,44.61,,,2080299.0
1533195700.3125,32.42,,,2080295.0
1533195700.328125,18.77,,,2080109.0
1533195700.34375,4.8,,,2079893.0
1533195700.359375,-8.0,,,2079977.0
1533195700.375,-18.54,,,2080261.0
1533195700.390625,-26.66,,,2081360.0
1533195700.40625,-33.1,,,2082728.0
1533195700.421875,-38.78,,,2083970.0
1533195700.4375,-44.02,,,2085562.0
1533195700.453125,-48.06,,,2086284.0
1533195700.46875,-49.45,,,2085104.0
1533195700.484375,-46.81,,,2083292.0
1533195700.5,-39.68,,,2081634.0
1533195700.515625,-28.84,,,2079165.0
1533195700.53125,-15.88,,,2076982.0
1533195700.546875,-2.51,,,2074929.0
1533195700.5625,10.13,,,2073432.0
1533195700.578125,21.66,,,2072613.0
1533195700.59375,32.17,,,2072374.0
1533195700.609375,41.71,,,2072832.0
1533195700.625,50.05,,,2073235.0
1533195700.640625,56.62,,,2073730.0
1533195700.65625,60.7,,,2073988.0
1533195700.671875,61.85,,,2074476.0
1533195700.6875,60.06,,,2074988.0
1533195700.703125,55.88,,,2075148.0
1533195700.71875,50.23,,,2074438.0
1533195700.734375,44.14,,,2072705.0
1533195700.75,38.33,,,2069969.0
1533195700.765625,32.96,,,2066908.0
1533195700.78125,27.69,,,2063837.0
1533195700.796875,22.04,,,2060836.0
1533195700.8125,15.74,,,2058776.0
1533195700.828125,9.06,,,2057549.0
1533195700.84375,2.68,,,2056350.0
1533195700.859375,-2.73,,,2055382.0
1533195700.875,-6.96,,,2054463.0
1533195700.890625,-10.43,,,2054351.0
1533195700.90625,-13.96,,,2055228.0
1533195700.921875,-18.42,,,2054498.0
1533195700.9375,-24.25,,,2056344.0
1533195700.953125,-31.37,,,2057256.0
1533195700.96875,-39.28,,,2054391.0
1533195700.984375,-47.32,,,2058392.0
1533195701.0,-54.84,,,2058272.0
1533195701.015625,-61.08,,,2053535.0
1533195701.03125,-65.2,,,2051908.0
1533195701.046875,-66.32,,,2051264.0
1533195701.0625,-63.74,,,2051356.0
1533195701.078125,-57.34,,,2052287.0
1533195701.09375,-47.62,,,2051566.0
1533195701.109375,-35.7,,,2052876.0
1533195701.125,-22.81,,,2053887.0
1533195701.140625,-9.87,,,2054867.0
1533195701.15625,2.75,,,2056060.0
1533195701.171875,15.1,,,2056818.0
1533195701.1875,27.33,,,2057425.0
1533195701.203125,39.3,,,2059178.0
1533195701.21875,50.35,,,2061065.0
1533195701.234375,59.52,,,2055036.0
1533195701.25,65.86,,,2062494.0
1533195701.265625,68.84,,,2062430.0
1533195701.28125,68.56,,,2061624.0
1533195701.296875,65.69,,,2060187.0
1533195701.3125,61.19,,,2059219.0
1533195701.328125,56.03,,,2058260.0
1533195701.34375,50.93,,,2058506.0
1533195701.359375,46.31,,,2059068.0
1533195701.375,42.41,,,2060304.0
1533195701.390625,39.37,,,2058463.0
1533195701.40625,37.25,,,2060601.0
1533195701.421875,36.0,,,2061339.0
1533195701.4375,35.39,,,2062360.0
1533195701.453125,35.01,,,2063140.0
1533195701.46875,34.38,,,2064496.0
1533195701.484375,33.15,,,2072244.0
1533195701.5,31.2,,,2066200.0
1533195701.515625,28.61,,,2068709.0
1533195701.53125,25.49,,,2073649.0
1533195701.546875,21.81,,,2070866.0
1533195701.5625,17.42,,,2069707.0
1533195701.578125,12.16,,,2069446.0
1533195701.59375,6.27,,,2070428.0
1533195701.609375,0.47,,,2069707.0
1533195701.625,-4.06,,,2072921.0
1533195701.640625,-6.07,,,2071057.0
1533195701.65625,-4.69,,,2071380.0
1533195701.671875,0.24,,,2071311.0
1533195701.6875,8.27,,,2071117.0
1533195701.703125,18.63,,,2070788.0
1533195701.71875,30.58,,,2070642.0
1533195701.734375,43.54,,,2071396.0
1533195701.75,57.04,,,2072742.0
1533195701.765625,70.46,,,2073947.0
1533195701.78125,82.97,,,2074022.0
1533195701.796875,93.67,,,2074307.0
1533195701.8125,101.84,,,2073877.0
1533195701.828125,107.27,,,2072043.0
1533195701.84375,110.41,,,2069891.0
1533195701.859375,112.19,,,2067546.0
1533195701.875,113.75,,,2065857.0
1533195701.890625,116.04,,,2064429.0
1533195701.90625,119.45,,,2064134.0
1533195701.921875,123.64,,,2064586.0
1533195701.9375,127.57,,,2065166.0
1533195701.953125,129.75,,,2065137.0
1533195701.96875,128.75,,,2065460.0
1533195701.984375,123.71,,,2065996.0
1533195702.0,114.54,,,2066829.0
1533195702.015625,101.82,,,2068595.0
1533195702.03125,86.61,,,2070587.0
1533195702.046875,70.09,,,2072125.0
1533195702.0625,53.63,,,2073135.0
1533195702.078125,38.56,,,2073205.0
1533195702.09375,25.9,,,2072089.0
1533195702.109375,15.78,,,2070716.0
1533195702.125,6.85,,,2068768.0
1533195702.140625,-3.87,,,2066914.0
1533195702.15625,-20.42,,,2065064.0
1533195702.171875,-46.62,,,2063788.0
1533195702.1875,-84.42,,,2063047.0
1533195702.203125,-132.74,,,2062360.0
1533195702.21875,-187.22,,,2062041.0
1533195702.234375,-241.31,,,2061981.0
1533195702.25,-288.05,,,2062125.0
1533195702.265625,-322.01,,,2062789.0
1533195702.28125,-340.59,,,2063689.0
1533195702.296875,-344.12,,,2064359.0
1533195702.3125,-335.05,,,2064874.0
1533195702.328125,-316.58,,,2065870.0
1533195702.34375,-291.47,,,2066106.0
1533195702.359375,-261.54,,,2065482.0
1533195702.375,-228.01,,,2064285.0
1533195702.390625,-192.21,,,2063018.0
1533195702.40625,-156.15,,,2062035.0
1533195702.421875,-122.41,,,2061401.0
1533195702.4375,-93.38,,,2061202.0
1533195702.453125,-70.36,,,2061220.0
1533195702.46875,-53.15,,,2061568.0
1533195702.484375,-40.35,,,2061351.0
1533195702.5,-30.29,,,2061940.0
1533195702.515625,-21.79,,,2062828.0
1533195702.53125,-14.54,,,2063986.0
1533195702.546875,-8.78,,,2064651.0
1533195702.5625,-4.67,,,2065465.0
1533195702.578125,-1.8,,,2066125.0
1533195702.59375,0.76,,,2067395.0
1533195702.609375,4.05,,,2067085.0
1533195702.625,8.61,,,2065989.0
1533195702.640625,14.15,,,2064333.0
1533195702.65625,19.69,,,2062697.0
1533195702.671875,24.1,,,2061326.0
1533195702.6875,26.56,,,2060495.0
1533195702.703125,26.82,,,2060450.0
1533195702.71875,25.19,,,2060976.0
1533195702.734375,22.17,,,2061614.0
1533195702.75,18.16,,,2061873.0
1533195702.765625,13.25,,,2062231.0
1533195702.78125,7.39,,,2062836.0
1533195702.796875,0.68,,,2063602.0
1533195702.8125,-6.31,,,2064407.0
1533195702.828125,-12.5,,,2065558.0
1533195702.84375,-16.52,,,2066773.0
1533195702.859375,-17.14,,,2067259.0
1533195702.875,-13.72,,,2063796.0
1533195702.890625,-6.49,,,2061114.0
1533195702.90625,3.58,,,2065696.0
1533195702.921875,15.15,,,2058779.0
1533195702.9375,27.02,,,2056833.0
1533195702.953125,38.39,,,2055182.0
1533195702.96875,48.92,,,2054176.0
1533195702.984375,58.46,,,2052781.0
1533195703.0,66.81,,,2053648.0
1533195703.015625,73.51,,,2053133.0
1533195703.03125,77.99,,,2052418.0
1533195703.046875,79.74,,,2052179.0
1533195703.0625,78.65,,,2052262.0
1533195703.078125,75.09,,,2052507.0
1533195703.09375,69.88,,,2052737.0
1533195703.109375,63.99,,,2052483.0
1533195703.125,58.28,,,2053355.0
1533195703.140625,53.28,,,2052727.0
1533195703.15625,49.11,,,2051815.0
1533195703.171875,45.61,,,2050474.0
1533195703.1875,42.42,,,2049243.0
1533195703.203125,39.14,,,2047985.0
1533195703.21875,35.48,,,2047659.0
1533195703.234375,31.34,,,2047821.0
1533195703.25,26.83,,,2047827.0
1533195703.265625,22.19,,,2048227.0
1533195703.28125,17.65,,,2048420.0
1533195703.296875,13.35,,,2049191.0
1533195703.3125,9.2,,,2050199.0
1533195703.328125,4.97,,,2051547.0
1533195703.34375,0.39,,,2052611.0
1533195703.359375,-4.78,,,2054107.0
1533195703.375,-10.65,,,2055042.0
1533195703.390625,-17.27,,,2056188.0
1533195703.40625,-24.57,,,2056818.0
1533195703.421875,-32.33,,,2056885.0
1533195703.4375,-39.94,,,2056291.0
1533195703.453125,-46.42,,,2055905.0
1533195703.46875,-50.41,,,2055992.0
1533195703.484375,-50.63,,,2056265.0
1533195703.5,-46.33,,,2056723.0
1533195703.515625,-37.67,,,2057514.0
1533195703.53125,-25.74,,,2058407.0
1533195703.546875,-12.18,,,2059316.0
1533195703.5625,1.42,,,2060611.0
1533195703.578125,14.0,,,2061994.0
1533195703.59375,25.2,,,2063281.0
1533195703.609375,35.18,,,2064660.0
1533195703.625,44.11,,,2066044.0
1533195703.640625,51.88,,,2066881.0
1533195703.65625,58.1,,,2067116.0
1533195703.671875,62.23,,,2066764.0
1533195703.6875,64.02,,,2066249.0
1533195703.703125,63.62,,,2065720.0
1533195703.71875,61.61,,,2065329.0
1533195703.734375,58.7,,,2065377.0
1533195703.75,55.51,,,2065559.0
1533195703.765625,52.34,,,2065394.0
1533195703.78125,49.26,,,2065493.0
1533195703.796875,46.18,,,2065962.0
1533195703.8125,43.08,,,2066598.0
1533195703.828125,40.06,,,2067883.0
1533195703.84375,37.26,,,2068977.0
1533195703.859375,34.81,,,2069474.0
1533195703.875,32.77,,,2070127.0
1533195703.890625,31.09,,,2070495.0
1533195703.90625,29.6,,,2070503.0
1533195703.921875,28.11,,,2070509.0
1533195703.9375,26.36,,,2068896.0
1533195703.953125,24.1,,,2067034.0
1533195703.96875,21.07,,,2064745.0
1533195703.984375,17.07,,,2062680.0
1533195704.0,12.04,,,2061048.0
1533195704.015625,6.18,,,2060135.0
1533195704.03125,0.07,,,2059297.0
1533195704.046875,-5.29,,,2058637.0
1533195704.0625,-8.6,,,2058456.0
1533195704.078125,-8.66,,,2057941.0
1533195704.09375,-4.66,,,2057941.0
1533195704.109375,3.49,,,2058017.0
1533195704.125,15.14,,,2058239.0
1533195704.140625,29.14,,,2058871.0
1533195704.15625,44.23,,,2059221.0
1533195704.171875,59.37,,,2060042.0
1533195704.1875,73.79,,,2060957.0
1533195704.203125,86.88,,,2061503.0
1533195704.21875,97.93,,,2060774.0
1533195704.234375,106.05,,,2059553.0
1533195704.25,110.44,,,2057742.0
1533195704.265625,110.72,,,2056268.0
1533195704.28125,107.32,,,2055074.0
1533195704.296875,101.38,,,2054416.0
1533195704.3125,94.52,,,2053895.0
1533195704.328125,88.24,,,2053335.0
1533195704.34375,83.53,,,2053310.0
1533195704.359375,80.62,,,2053321.0
1533195704.375,79.09,,,2053680.0
1533195704.390625,78.08,,,2054342.0
1533195704.40625,76.46,,,2054928.0
1533195704.421875,73.28,,,2055847.0
1533195704.4375,68.0,,,2056490.0
1533195704.453125,60.81,,,2057673.0
1533195704.46875,52.71,,,2058467.0
1533195704.484375,45.2,,,2058280.0
1533195704.5,39.75,,,2057175.0
1533195704.515625,37.02,,,2055984.0
1533195704.53125,36.35,,,2054822.0
1533195704.546875,35.68,,,2054295.0
1533195704.5625,32.0,,,2054396.0
1533195704.578125,22.09,,,2054894.0
1533195704.59375,3.21,,,2055210.0
1533195704.609375,-26.23,,,2055373.0
1533195704.625,-66.24,,,2055978.0
1533195704.640625,-114.83,,,2057300.0
1533195704.65625,-167.99,,,2058209.0
1533195704.671875,-220.13,,,2058966.0
1533195704.6875,-265.25,,,2060170.0
1533195704.703125,-298.37,,,2061608.0
1533195704.71875,-316.76,,,2063484.0
1533195704.734375,-320.42,,,2064298.0
1533195704.75,-311.52,,,2063849.0
1533195704.765625,-293.13,,,2062851.0
1533195704.78125,-268.22,,,2062526.0
1533195704.796875,-239.07,,,2061694.0
1533195704.8125,-207.53,,,2061798.0
1533195704.828125,-175.39,,,2062493.0
1533195704.84375,-144.65,,,2062849.0
1533195704.859375,-117.22,,,2062763.0
1533195704.875,-94.3,,,2062829.0
1533195704.890625,-75.88,,,2063191.0
1533195704.90625,-60.82,,,2063975.0
1533195704.921875,-47.48,,,2064305.0
1533195704.9375,-34.63,,,2064561.0
1533195704.953125,-22.0,,,2064375.0
1533195704.96875,-10.22,,,2064183.0
1533195704.984375,-0.37,,,2063632.0
1533195705.0,6.75,,,2062061.0
1533195705.015625,11.08,,,2059819.0
1533195705.03125,13.27,,,2057742.0
1533195705.046875,14.34,,,2055704.0
1533195705.0625,15.15,,,2053499.0
1533195705.078125,16.01,,,2051986.0
1533195705.09375,16.69,,,2050722.0
1533195705.109375,16.6,,,2049967.0
1533195705.125,15.09,,,2049364.0
1533195705.140625,11.67,,,2048864.0
1533195705.15625,6.19,,,2048781.0
1533195705.171875,-1.1,,,2049229.0
1533195705.1875,-9.45,,,2048818.0
1533195705.203125,-17.62,,,2048933.0
1533195705.21875,-24.05,,,2049450.0
1533195705.234375,-27.2,,,2049990.0
1533195705.25,-26.02,,,2050034.0
1533195705.265625,-20.34,,,2049107.0
1533195705.28125,-10.88,,,2047241.0
1533195705.296875,0.97,,,2045587.0
1533195705.3125,13.67,,,2043761.0
1533195705.328125,26.03,,,2042387.0
1533195705.34375,37.42,,,2041543.0
1533195705.359375,47.72,,,2041199.0
1533195705.375,56.98,,,2041433.0
1533195705.390625,65.12,,,2041022.0
1533195705.40625,71.77,,,2040994.0
1533195705.421875,76.36,,,2041182.0
1533195705.4375,78.38,,,2041950.0
1533195705.453125,77.63,,,2042623.0
1533195705.46875,74.34,,,2043749.0
1533195705.484375,69.07,,,2044563.0
1533195705.5,62.47,,,2045181.0
1533195705.515625,55.12,,,2046092.0
1533195705.53125,47.36,,,2045907.0
1533195705.546875,39.36,,,2045071.0
1533195705.5625,31.32,,,2043668.0
1533195705.578125,23.55,,,2042354.0
1533195705.59375,16.52,,,2041315.0
1533195705.609375,10.73,,,2040957.0
1533195705.625,6.43,,,2040950.0
1533195705.640625,3.48,,,2041628.0
1533195705.65625,1.22,,,2041660.0
1533195705.671875,-1.19,,,2041960.0
1533195705.6875,-4.65,,,2042609.0
1533195705.703125,-9.68,,,2043575.0
1533195705.71875,-16.37,,,2044710.0
1533195705.734375,-24.36,,,2046042.0
1533195705.75,-33.01,,,2047737.0
1533195705.765625,-41.51,,,2049485.0
1533195705.78125,-48.99,,,2051071.0
1533195705.796875,-54.57,,,2051919.0
1533195705.8125,-57.42,,,2051902.0
1533195705.828125,-56.84,,,2051349.0
1533195705.84375,-52.44,,,2051230.0
1533195705.859375,-44.32,,,2051124.0
1533195705.875,-33.11,,,2051377.0
1533195705.890625,-19.79,,,2051442.0
1533195705.90625,-5.5,,,2052472.0
1533195705.921875,8.77,,,2052689.0
1533195705.9375,22.35,,,2053447.0
1533195705.953125,34.8,,,2053959.0
1533195705.96875,45.82,,,2054666.0
1533195705.984375,55.08,,,2055774.0
1533195706.0,62.22,,,2057407.0
1533195706.015625,66.88,,,2059174.0
1533195706.03125,68.87,,,2060618.0
1533195706.046875,68.33,,,2061228.0
1533195706.0625,65.67,,,2061915.0
1533195706.078125,61.6,,,2061746.0
1533195706.09375,56.84,,,2060653.0
1533195706.109375,51.97,,,2059378.0
1533195706.125,47.35,,,2057127.0
1533195706.140625,43.08,,,2055761.0
1533195706.15625,39.12,,,2054582.0
1533195706.171875,35.41,,,2054049.0
1533195706.1875,31.93,,,2054353.0
1533195706.203125,28.71,,,2053743.0
1533195706.21875,25.79,,,2053372.0
1533195706.234375,23.13,,,2053201.0
1533195706.25,20.53,,,2053649.0
1533195706.265625,17.64,,,2054089.0
1533195706.28125,14.02,,,2054977.0
1533195706.296875,9.3,,,2055995.0
1533195706.3125,3.37,,,2056705.0
1533195706.328125,-3.43,,,2057849.0
1533195706.34375,-10.28,,,2058581.0
1533195706.359375,-15.92,,,2058481.0
1533195706.375,-18.98,,,2057470.0
1533195706.390625,-18.34,,,2056061.0
1533195706.40625,-13.46,,,2054488.0
1533195706.421875,-4.48,,,2053435.0
1533195706.4375,7.85,,,2052979.0
1533195706.453125,22.41,,,2053113.0
1533195706.46875,38.04,,,2053678.0
1533195706.484375,53.62,,,2054356.0
1533195706.5,68.27,,,2054719.0
1533195706.515625,81.18,,,2055668.0
1533195706.53125,91.75,,,2056569.0
1533195706.546875,99.52,,,2057983.0
1533195706.5625,104.29,,,2060210.0
1533195706.578125,106.04,,,2061606.0
1533195706.59375,104.92,,,2064363.0
1533195706.609375,101.14,,,2068507.0
1533195706.625,94.98,,,2071030.0
1533195706.640625,86.84,,,2071312.0
1533195706.65625,77.33,,,2071928.0
1533195706.671875,67.17,,,2071292.0
1533195706.6875,57.17,,,2070146.0
1533195706.703125,47.98,,,2068673.0
1533195706.71875,39.99,,,2067953.0
1533195706.734375,33.25,,,2067453.0
1533195706.75,27.49,,,2067391.0
1533195706.765625,22.17,,,2067555.0
1533195706.78125,16.56,,,2067608.0
1533195706.796875,9.87,,,2068373.0
1533195706.8125,1.49,,,2069011.0
1533195706.828125,-8.8,,,2069956.0
1533195706.84375,-20.68,,,2071147.0
1533195706.859375,-33.31,,,2072662.0
1533195706.875,-45.56,,,2073935.0
1533195706.890625,-56.4,,,2073949.0
1533195706.90625,-65.22,,,2073071.0
1533195706.921875,-72.04,,,2071947.0
1533195706.9375,-77.49,,,2071023.0
1533195706.953125,-82.6,,,2070236.0
1533195706.96875,-88.18,,,2070502.0
1533195706.984375,-94.57,,,2071049.0
1533195707.0,-101.24,,,2070811.0
1533195707.015625,-106.9,,,2070580.0
1533195707.03125,-109.99,,,2070381.0
1533195707.046875,-109.19,,,2070217.0
1533195707.0625,-103.89,,,2070376.0
1533195707.078125,-94.34,,,2070349.0
1533195707.09375,-81.27,,,2070768.0
1533195707.109375,-65.52,,,2070868.0
1533195707.125,-47.62,,,2071434.0
1533195707.140625,-27.8,,,2071984.0
1533195707.15625,-6.27,,,2071680.0
1533195707.171875,16.42,,,2070472.0
1533195707.1875,39.18,,,2069131.0
1533195707.203125,60.54,,,2067771.0
1533195707.21875,79.02,,,2066176.0
1533195707.234375,93.36,,,2065090.0
1533195707.25,102.78,,,2064975.0
1533195707.265625,107.0,,,2064901.0
1533195707.28125,106.25,,,2064595.0
1533195707.296875,101.24,,,2064539.0
1533195707.3125,93.26,,,2065025.0
1533195707.328125,84.01,,,2065249.0
1533195707.34375,75.37,,,2066083.0
1533195707.359375,69.09,,,2066843.0
1533195707.375,66.45,,,2067277.0
1533195707.390625,67.98,,,2068235.0
1533195707.40625,73.21,,,2069008.0
1533195707.421875,80.46,,,2069023.0
1533195707.4375,86.81,,,2068028.0
1533195707.453125,88.5,,,2066562.0
1533195707.46875,81.55,,,2064694.0
1533195707.484375,62.72,,,2063119.0
1533195707.5,30.34,,,2062055.0
1533195707.515625,-15.06,,,2061986.0
1533195707.53125,-70.78,,,2061608.0
1533195707.546875,-132.31,,,2061608.0
1533195707.5625,-194.11,,,2061539.0
1533195707.578125,-250.55,,,2061420.0
1533195707.59375,-296.51,,,2061742.0
1533195707.609375,-328.08,,,2062397.0
1533195707.625,-342.95,,,2063140.0
1533195707.640625,-340.77,,,2064118.0
1533195707.65625,-323.15,,,2064668.0
1533195707.671875,-293.51,,,2065902.0
1533195707.6875,-256.43,,,2067241.0
1533195707.703125,-216.74,,,2068329.0
1533195707.71875,-178.53,,,2068608.0
1533195707.734375,-144.45,,,2067926.0
1533195707.75,-115.3,,,2067025.0
1533195707.765625,-90.37,,,2065711.0
1533195707.78125,-68.01,,,2064490.0
1533195707.796875,-46.64,,,2063791.0
1533195707.8125,-25.4,,,2063360.0
1533195707.828125,-4.47,,,2063597.0
1533195707.84375,15.15,,,2063741.0
1533195707.859375,32.13,,,2064860.0
1533195707.875,45.34,,,2066111.0
1533195707.890625,54.17,,,2067373.0
1533195707.90625,58.73,,,2068602.0
1533195707.921875,59.76,,,2069686.0
1533195707.9375,58.36,,,2071024.0
1533195707.953125,55.73,,,2072154.0
1533195707.96875,52.9,,,2072798.0
1533195707.984375,50.54,,,2072277.0
1533195708.0,48.93,,,2071318.0
1533195708.015625,47.93,,,2070377.0
1533195708.03125,47.24,,,2069427.0
1533195708.046875,46.46,,,2068899.0
1533195708.0625,45.16,,,2068838.0
1533195708.078125,42.99,,,2068705.0
1533195708.09375,39.72,,,2068826.0
1533195708.109375,35.26,,,2069384.0
1533195708.125,29.79,,,2069978.0
1533195708.140625,23.63,,,2071118.0
1533195708.15625,17.13,,,2072153.0
1533195708.171875,10.48,,,2073042.0
1533195708.1875,3.64,,,2074224.0
1533195708.203125,-3.6,,,2075316.0
1533195708.21875,-11.26,,,2076397.0
1533195708.234375,-18.87,,,2077218.0
1533195708.25,-25.41,,,2076958.0
1533195708.265625,-29.51,,,2075686.0
1533195708.28125,-29.93,,,2074628.0
1533195708.296875,-26.07,,,2073608.0
1533195708.3125,-18.17,,,2072703.0
1533195708.328125,-7.17,,,2072798.0
1533195708.34375,5.66,,,2073102.0
1533195708.359375,19.17,,,2073274.0
1533195708.375,32.6,,,2073827.0
1533195708.390625,45.58,,,2074527.0
1533195708.40625,57.85,,,2075255.0
1533195708.421875,69.09,,,2076077.0
1533195708.4375,78.66,,,2077148.0
1533195708.453125,85.75,,,2078386.0
1533195708.46875,89.64,,,2079300.0
1533195708.484375,89.94,,,2080508.0
1533195708.5,86.89,,,2081700.0
1533195708.515625,81.3,,,2081537.0
1533195708.53125,74.38,,,2080651.0
1533195708.546875,67.32,,,2079482.0
1533195708.5625,61.02,,,2078682.0
1533195708.578125,55.79,,,2077482.0
1533195708.59375,51.44,,,2076955.0
1533195708.609375,47.49,,,2076916.0
1533195708.625,43.42,,,2077138.0
1533195708.640625,38.87,,,2077465.0
1533195708.65625,33.65,,,2077728.0
1533195708.671875,27.73,,,2078419.0
1533195708.6875,21.13,,,2079402.0
1533195708.703125,13.92,,,2080574.0
1533195708.71875,6.19,,,2081805.0
1533195708.734375,-1.82,,,2082793.0
1533195708.75,-9.8,,,2083782.0
1533195708.765625,-17.47,,,2084918.0
1533195708.78125,-24.71,,,2085213.0
1533195708.796875,-31.65,,,2084812.0
1533195708.8125,-38.65,,,2083415.0
1533195708.828125,-46.11,,,2082586.0
1533195708.84375,-54.17,,,2081580.0
1533195708.859375,-62.38,,,2080968.0
1533195708.875,-69.63,,,2080581.0
1533195708.890625,-74.43,,,2080701.0
1533195708.90625,-75.3,,,2080459.0
1533195708.921875,-71.31,,,2080314.0
1533195708.9375,-62.51,,,2080706.0
1533195708.953125,-49.82,,,2081108.0
1533195708.96875,-34.74,,,2082783.0
1533195708.984375,-18.79,,,2084118.0
1533195709.0,-3.05,,,2085576.0
1533195709.015625,11.98,,,2086383.0
1533195709.03125,26.22,,,2087437.0
1533195709.046875,39.64,,,2087437.0
1533195709.0625,52.02,,,2087981.0
1533195709.078125,62.76,,,2087245.0
1533195709.09375,71.18,,,2086425.0
1533195709.109375,76.71,,,2085353.0
1533195709.125,79.21,,,2084490.0
1533195709.140625,79.06,,,2083930.0
1533195709.15625,76.99,,,2084172.0
1533195709.171875,73.86,,,2083691.0
1533195709.1875,70.41,,,2083489.0
1533195709.203125,67.09,,,2083950.0
1533195709.21875,64.07,,,2084385.0
1533195709.234375,61.34,,,2085373.0
1533195709.25,58.82,,,2086419.0
1533195709.265625,56.41,,,2087582.0
1533195709.28125,54.03,,,2088246.0
1533195709.296875,51.53,,,2089293.0
1533195709.3125,48.69,,,2089666.0
1533195709.328125,45.3,,,2089033.0
1533195709.34375,41.2,,,2088006.0
1533195709.359375,36.37,,,2086748.0
1533195709.375,30.94,,,2085695.0
1533195709.390625,25.14,,,2085053.0
1533195709.40625,19.2,,,2085304.0
1533195709.421875,13.22,,,2085302.0
1533195709.4375,7.02,,,2085750.0
1533195709.453125,0.22,,,2086004.0
1533195709.46875,-7.62,,,2086405.0
1533195709.484375,-16.69,,,2087208.0
1533195709.5,-26.65,,,2088041.0
1533195709.515625,-36.43,,,2088778.0
1533195709.53125,-44.46,,,2090243.0
1533195709.546875,-49.07,,,2091796.0
1533195709.5625,-49.02,,,2092775.0
1533195709.578125,-44.0,,,2092357.0
1533195709.59375,-34.6,,,2091668.0
1533195709.609375,-22.08,,,2090298.0
1533195709.625,-7.82,,,2088814.0
1533195709.640625,7.13,,,2088038.0
1533195709.65625,22.32,,,2087800.0
1533195709.671875,37.7,,,2088233.0
1533195709.6875,53.3,,,2088915.0
1533195709.703125,68.97,,,2089383.0
1533195709.71875,84.08,,,2090152.0
1533195709.734375,97.7,,,2090536.0
1533195709.75,108.73,,,2091073.0
1533195709.765625,116.23,,,2091569.0
1533195709.78125,119.62,,,2092851.0
1533195709.796875,118.78,,,2093999.0
1533195709.8125,114.13,,,2094624.0
1533195709.828125,106.59,,,2094716.0
1533195709.84375,97.41,,,2093670.0
1533195709.859375,87.88,,,2092402.0
1533195709.875,78.87,,,2091512.0
1533195709.890625,70.6,,,2090320.0
1533195709.90625,62.66,,,2089767.0
1533195709.921875,54.49,,,2089966.0
1533195709.9375,46.0,,,2090614.0
1533195709.953125,37.86,,,2090757.0
1533195709.96875,31.41,,,2090664.0
1533195709.984375,27.93,,,2091370.0
1533195710.0,28.05,,,2092551.0
1533195710.015625,31.27,,,2093934.0
1533195710.03125,35.92,,,2095022.0
1533195710.046875,39.6,,,2096033.0
1533195710.0625,39.43,,,2096854.0
1533195710.078125,32.45,,,2095548.0
1533195710.09375,15.87,,,2094342.0
1533195710.109375,-12.35,,,2093225.0
1533195710.125,-52.48,,,2091776.0
1533195710.140625,-102.14,,,2091015.0
1533195710.15625,-156.0,,,2091322.0
1533195710.171875,-206.75,,,2097356.0
1533195710.1875,-247.04,,,2096781.0
1533195710.203125,-271.65,,,2091949.0
1533195710.21875,-278.95,,,2091949.0
1533195710.234375,-270.86,,,2092813.0
1533195710.25,-251.54,,,2093120.0
1533195710.265625,-225.65,,,2093967.0
1533195710.28125,-196.96,,,2094740.0
1533195710.296875,-167.9,,,2097066.0
1533195710.3125,-139.94,,,2098212.0
1533195710.328125,-114.2,,,2099510.0
1533195710.34375,-91.82,,,2099097.0
1533195710.359375,-73.67,,,2095795.0
1533195710.375,-59.96,,,2098196.0
1533195710.390625,-49.89,,,2096174.0
1533195710.40625,-41.95,,,2095608.0
1533195710.421875,-34.48,,,2095696.0
1533195710.4375,-26.49,,,2095953.0
1533195710.453125,-17.95,,,2096293.0
1533195710.46875,-9.7,,,2096470.0
1533195710.484375,-2.9,,,2096866.0
1533195710.5,1.64,,,2097710.0
1533195710.515625,3.79,,,2096889.0
1533195710.53125,4.06,,,2098919.0
1533195710.546875,3.22,,,2099740.0
1533195710.5625,1.88,,,2101139.0
1533195710.578125,0.25,,,2101877.0
1533195710.59375,-1.9,,,2103113.0
1533195710.609375,-4.85,,,2103085.0
1533195710.625,-8.73,,,2102070.0
1533195710.640625,-13.32,,,2101362.0
1533195710.65625,-18.15,,,2100289.0
1533195710.671875,-22.76,,,2099955.0
1533195710.6875,-26.98,,,2099627.0
1533195710.703125,-31.0,,,2100254.0
1533195710.71875,-35.32,,,2101063.0
1533195710.734375,-40.35,,,2102115.0
1533195710.75,-46.06,,,2102632.0
1533195710.765625,-51.82,,,2101850.0
1533195710.78125,-56.44,,,2103537.0
1533195710.796875,-58.52,,,2104267.0
1533195710.8125,-56.92,,,2105300.0
1533195710.828125,-51.09,,,2106422.0
