timestamp,bvp,eda,temp,PPG GREEN
1623756319.703125,-42.34,0.216493,34.61,2041660.0
1623756319.71875,-44.09,0.244675,34.61,2043495.0
1623756319.734375,-46.67,0.245956,34.59,2044607.0
1623756319.75,-50.15,0.222898,34.59,2045814.0
1623756319.765625,-54.42,0.22546,34.59,2047323.0
1623756319.78125,-59.25,0.22546,34.59,2048984.0
1623756319.796875,-64.41,0.236989,34.59,2049819.0
1623756319.8125,-69.75,0.221617,34.59,2051700.0
1623756319.828125,-75.09,0.221617,34.59,2053002.0
1623756319.84375,-80.17,0.222898,34.59,2053928.0
1623756319.859375,-84.6,0.224179,34.59,2054491.0
1623756319.875,-87.96,0.220336,34.59,2055004.0
1623756319.890625,-90.07,0.219055,34.59,2056818.0
1623756319.90625,-91.19,0.220336,34.59,2056948.0
1623756319.921875,-91.98,0.222898,34.55,2057136.0
1623756319.9375,-93.27,0.222898,34.55,2057639.0
1623756319.953125,-95.62,0.219055,34.55,2057222.0
1623756319.96875,-98.91,0.220336,34.55,2058794.0
1623756319.984375,-102.25,0.220336,34.55,2060039.0
1623756320.0,-104.29,0.222898,34.55,2060278.0
1623756320.015625,-103.73,0.220336,34.55,2060859.0
1623756320.03125,-99.82,0.219055,34.55,2061358.0
1623756320.046875,-92.76,0.217774,34.5,2061404.0
1623756320.0625,-83.64,0.220336,34.5,2062200.0
1623756320.078125,-74.37,0.221617,34.5,2063053.0
1623756320.09375,-67.33,0.220336,34.5,2063542.0
1623756320.109375,-64.67,0.219055,34.55,2064287.0
1623756320.125,-67.53,0.217774,34.55,2065733.0
1623756320.140625,-75.15,0.221617,34.55,2066536.0
1623756320.15625,-84.46,0.221617,34.55,2067448.0
1623756320.171875,-90.72,0.219055,34.5,2068150.0
1623756320.1875,-89.05,0.217774,34.5,2068265.0
1623756320.203125,-76.4,0.219055,34.5,2068216.0
1623756320.21875,-53.06,0.220336,34.5,2068277.0
1623756320.234375,-22.83,0.221617,34.5,2067639.0
1623756320.25,8.3,0.220336,34.5,2068296.0
1623756320.265625,34.29,0.217774,34.5,2068865.0
1623756320.28125,51.06,0.217774,34.5,2069045.0
1623756320.296875,57.39,0.221617,34.5,2068492.0
1623756320.3125,54.61,0.221617,34.5,2052320.0
1623756320.328125,45.38,0.219055,34.5,2038570.0
1623756320.34375,32.43,0.217774,34.5,2029981.0
1623756320.359375,17.77,0.217774,34.5,2029485.0
1623756320.375,2.55,0.220336,34.5,2032348.0
1623756320.390625,-12.73,0.220336,34.5,2037501.0
1623756320.40625,-27.79,0.220336,34.5,2044173.0
1623756320.421875,-42.42,0.217774,34.49,2046794.0
1623756320.4375,-56.32,0.216493,34.49,2046083.0
1623756320.453125,-69.13,0.221617,34.49,2045434.0
1623756320.46875,-80.48,0.221617,34.49,2046326.0
1623756320.484375,-90.13,0.219055,34.49,2047053.0
1623756320.5,-98.19,0.217774,34.49,2047322.0
1623756320.515625,-105.17,0.216493,34.49,2049389.0
1623756320.53125,-111.97,0.219055,34.49,2048434.0
1623756320.546875,-119.51,0.219055,34.49,2049630.0
1623756320.5625,-128.36,0.220336,34.49,2052760.0
1623756320.578125,-138.29,0.219055,34.49,2055509.0
1623756320.59375,-148.13,0.216493,34.49,2056866.0
1623756320.609375,-155.89,0.221617,34.49,2058411.0
1623756320.625,-159.19,0.219055,34.49,2061606.0
1623756320.640625,-155.81,0.219055,34.49,2064839.0
1623756320.65625,-144.21,0.217774,34.49,2067848.0
1623756320.671875,-124.08,0.217774,34.47,2069057.0
1623756320.6875,-96.49,0.216493,34.47,2072784.0
1623756320.703125,-63.8,0.220336,34.47,2075202.0
1623756320.71875,-29.1,0.220336,34.47,2078277.0
1623756320.734375,4.58,0.221617,34.47,2083917.0
1623756320.75,35.12,0.219055,34.47,2083299.0
1623756320.765625,61.88,0.219055,34.47,2078023.0
1623756320.78125,85.67,0.220336,34.47,2077118.0
1623756320.796875,108.2,0.221617,34.47,2070826.0
1623756320.8125,131.37,0.220336,34.47,2064603.0
1623756320.828125,156.54,0.217774,34.47,2063482.0
1623756320.84375,184.43,0.217774,34.47,2068030.0
1623756320.859375,215.3,0.220336,34.45,2070162.0
1623756320.875,249.5,0.222898,34.45,2070328.0
1623756320.890625,287.48,0.222898,34.45,2073375.0
1623756320.90625,329.6,0.220336,34.45,2076722.0
1623756320.921875,375.44,0.220336,34.43,2083152.0
1623756320.9375,423.24,0.221617,34.43,2088423.0
1623756320.953125,469.75,0.222898,34.43,2091514.0
1623756320.96875,510.66,0.222898,34.43,2095183.0
1623756320.984375,541.5,0.220336,34.45,2098068.0
1623756321.0,558.61,0.220336,34.45,2101580.0
1623756321.015625,560.01,0.221617,34.45,2106399.0
1623756321.03125,545.71,0.224179,34.45,2110719.0
1623756321.046875,517.6,0.22546,34.43,2113045.0
1623756321.0625,478.92,0.221617,34.43,2115663.0
1623756321.078125,433.43,0.221617,34.43,2117206.0
1623756321.09375,384.74,0.222898,34.43,2117727.0
1623756321.109375,335.77,0.226741,34.43,2118333.0
1623756321.125,288.56,0.228022,34.43,2120155.0
1623756321.140625,244.37,0.228022,34.43,2121289.0
1623756321.15625,203.88,0.22546,34.43,2121490.0
1623756321.171875,167.3,0.226741,34.41,2122186.0
1623756321.1875,134.35,0.226741,34.41,2123765.0
1623756321.203125,104.15,0.228022,34.41,2123528.0
1623756321.21875,75.29,0.229303,34.41,2121821.0
1623756321.234375,45.95,0.226741,34.43,2120716.0
1623756321.25,14.23,0.226741,34.43,2120570.0
1623756321.265625,-21.31,0.231865,34.43,2121118.0
1623756321.28125,-61.23,0.233146,34.43,2123159.0
1623756321.296875,-104.7,0.234427,34.41,2124189.0
1623756321.3125,-149.28,0.233146,34.41,2125398.0
1623756321.328125,-191.13,0.234427,34.41,2126841.0
1623756321.34375,-225.93,0.235708,34.41,2127517.0
1623756321.359375,-250.1,0.240832,34.41,2128228.0
1623756321.375,-262.12,0.243394,34.41,2129506.0
1623756321.390625,-263.05,0.240832,34.41,2130213.0
1623756321.40625,-256.09,0.240832,34.41,2130869.0
1623756321.421875,-245.32,0.240832,34.39,2131686.0
1623756321.4375,-234.17,0.242113,34.39,2132437.0
1623756321.453125,-224.47,0.245956,34.39,2132138.0
1623756321.46875,-216.47,0.242113,34.39,2131302.0
1623756321.484375,-209.51,0.242113,34.41,2130334.0
1623756321.5,-202.86,0.240832,34.41,2129801.0
1623756321.515625,-196.15,0.242113,34.41,2128895.0
1623756321.53125,-189.19,0.242113,34.41,2128539.0
1623756321.546875,-181.38,0.240832,34.41,2128387.0
1623756321.5625,-171.56,0.234427,34.41,2127901.0
1623756321.578125,-158.32,0.230584,34.41,2127374.0
1623756321.59375,-140.83,0.231865,34.41,2126719.0
1623756321.609375,-119.63,0.230584,34.41,2127033.0
1623756321.625,-96.93,0.229303,34.41,2127138.0
1623756321.640625,-75.99,0.22546,34.41,2127743.0
1623756321.65625,-59.98,0.226741,34.41,2129098.0
1623756321.671875,-50.67,0.228022,34.39,2129410.0
1623756321.6875,-47.62,0.228022,34.39,2128941.0
1623756321.703125,-48.6,0.22546,34.39,2127555.0
1623756321.71875,-50.49,0.221617,34.39,2126367.0
1623756321.734375,-50.75,0.221617,34.39,2124628.0
1623756321.75,-48.35,0.222898,34.39,2123053.0
1623756321.765625,-43.91,0.224179,34.39,2121914.0
1623756321.78125,-39.01,0.222898,34.39,2122182.0
1623756321.796875,-35.22,0.221617,34.37,2123499.0
1623756321.8125,-33.3,0.220336,34.37,2124450.0
1623756321.828125,-33.18,0.221617,34.37,2124400.0
1623756321.84375,-34.44,0.222898,34.37,2124427.0
1623756321.859375,-36.8,0.222898,34.39,2124706.0
1623756321.875,-40.46,0.220336,34.39,2124299.0
1623756321.890625,-45.79,0.219055,34.39,2123606.0
1623756321.90625,-52.89,0.220336,34.39,2123067.0
1623756321.921875,-61.23,0.222898,34.37,2124007.0
1623756321.9375,-69.8,0.221617,34.37,2124659.0
1623756321.953125,-77.51,0.220336,34.37,2124617.0
1623756321.96875,-83.66,0.219055,34.37,2124431.0
1623756321.984375,-88.21,0.217774,34.37,2124282.0
1623756322.0,-91.56,0.220336,34.37,2123439.0
1623756322.015625,-94.2,0.221617,34.37,2121890.0
1623756322.03125,-96.59,0.220336,34.37,2121252.0
1623756322.046875,-99.23,0.217774,34.37,2120708.0
1623756322.0625,-102.8,0.216493,34.37,2120223.0
1623756322.078125,-108.28,0.219055,34.37,2120722.0
1623756322.09375,-116.44,0.219055,34.37,2120287.0
1623756322.109375,-127.37,0.219055,34.37,2119831.0
1623756322.125,-140.14,0.216493,34.37,2118859.0
1623756322.140625,-152.98,0.215212,34.37,2117594.0
1623756322.15625,-164.01,0.215212,34.37,2117333.0
1623756322.171875,-171.95,0.219055,34.34,2118258.0
1623756322.1875,-176.42,0.217774,34.34,2118901.0
1623756322.203125,-177.53,0.219055,34.34,2118412.0
1623756322.21875,-175.27,0.216493,34.34,2118806.0
1623756322.234375,-169.08,0.216493,34.37,2118746.0
1623756322.25,-158.1,0.219055,34.37,2119117.0
1623756322.265625,-141.95,0.220336,34.37,2118603.0
1623756322.28125,-121.35,0.219055,34.37,2116824.0
1623756322.296875,-98.17,0.216493,34.37,2115697.0
1623756322.3125,-74.8,0.215212,34.37,2114779.0
1623756322.328125,-53.16,0.216493,34.37,2113274.0
1623756322.34375,-34.2,0.217774,34.37,2112890.0
1623756322.359375,-18.06,0.216493,34.33,2112618.0
1623756322.375,-4.73,0.213931,34.33,2112092.0
1623756322.390625,5.32,0.213931,34.33,2111869.0
1623756322.40625,11.1,0.216493,34.33,2111869.0
1623756322.421875,11.79,0.217774,34.33,2111469.0
1623756322.4375,7.45,0.216493,34.33,2111027.0
1623756322.453125,-0.55,0.216493,34.33,2110381.0
1623756322.46875,-10.1,0.215212,34.33,2110931.0
1623756322.484375,-19.19,0.217774,34.33,2111468.0
1623756322.5,-26.68,0.219055,34.33,2111577.0
1623756322.515625,-32.51,0.219055,34.33,2111582.0
1623756322.53125,-37.11,0.217774,34.33,2111261.0
1623756322.546875,-40.73,0.216493,34.33,2110507.0
1623756322.5625,-43.07,0.217774,34.33,2109795.0
1623756322.578125,-43.49,0.217774,34.33,2108405.0
1623756322.59375,-41.49,0.217774,34.33,2108800.0
1623756322.609375,-37.22,0.213931,34.33,2109865.0
1623756322.625,-31.44,0.213931,34.33,2108752.0
1623756322.640625,-24.99,0.215212,34.33,2107581.0
1623756322.65625,-18.24,0.216493,34.33,2104716.0
1623756322.671875,-10.75,0.217774,34.29,2100540.0
1623756322.6875,-1.52,0.216493,34.29,2099785.0
1623756322.703125,10.32,0.213931,34.29,2098737.0
1623756322.71875,24.89,0.21265,34.29,2098735.0
1623756322.734375,41.36,0.215212,34.34,2099649.0
1623756322.75,58.27,0.216493,34.34,2096757.0
1623756322.765625,74.25,0.216493,34.34,2094811.0
1623756322.78125,88.53,0.213931,34.34,2098696.0
1623756322.796875,101.04,0.215212,34.33,2097986.0
1623756322.8125,112.18,0.216493,34.33,2099764.0
1623756322.828125,122.41,0.217774,34.33,2093325.0
1623756322.84375,132.1,0.217774,34.33,2090964.0
1623756322.859375,141.77,0.213931,34.33,2089052.0
1623756322.875,152.47,0.213931,34.33,2088648.0
1623756322.890625,165.8,0.216493,34.33,2088325.0
1623756322.90625,183.29,0.216493,34.33,2087727.0
1623756322.921875,205.16,0.215212,34.31,2086449.0
1623756322.9375,229.1,0.213931,34.31,2085185.0
1623756322.953125,250.09,0.21265,34.31,2084048.0
1623756322.96875,261.77,0.213931,34.31,2083011.0
1623756322.984375,258.8,0.213931,34.31,2081781.0
1623756323.0,239.3,0.215212,34.31,2080510.0
1623756323.015625,205.79,0.21265,34.31,2081009.0
1623756323.03125,164.31,0.21265,34.31,2082862.0
1623756323.046875,122.03,0.215212,34.29,2083178.0
1623756323.0625,84.68,0.213931,34.29,2083532.0
1623756323.078125,55.04,0.21265,34.29,2083546.0
1623756323.09375,33.09,0.210088,34.29,2080040.0
1623756323.109375,17.34,0.210088,34.29,2077846.0
1623756323.125,6.19,0.211369,34.29,2077175.0
1623756323.140625,-1.35,0.21265,34.29,2075716.0
1623756323.15625,-5.88,0.21265,34.29,2074028.0
1623756323.171875,-8.19,0.211369,34.31,2073686.0
1623756323.1875,-9.53,0.210088,34.31,2072763.0
1623756323.203125,-11.23,0.21265,34.31,2071563.0
1623756323.21875,-14.05,0.21265,34.31,2070236.0
1623756323.234375,-17.76,0.213931,34.29,2070541.0
1623756323.25,-21.31,0.210088,34.29,2071913.0
1623756323.265625,-23.46,0.210088,34.29,2071367.0
1623756323.28125,-23.39,0.21265,34.29,2071765.0
1623756323.296875,-21.15,0.213931,34.29,2071963.0
1623756323.3125,-17.42,0.213931,34.29,2072071.0
1623756323.328125,-13.21,0.211369,34.29,2072101.0
1623756323.34375,-9.41,0.210088,34.29,2070328.0
1623756323.359375,-6.66,0.21265,34.29,2069274.0
1623756323.375,-5.35,0.213931,34.29,2069397.0
1623756323.390625,-5.62,0.215212,34.29,2069219.0
1623756323.40625,-7.41,0.211369,34.29,2068347.0
1623756323.421875,-10.32,0.213931,34.31,2069432.0
1623756323.4375,-13.55,0.213931,34.31,2068974.0
1623756323.453125,-16.04,0.216493,34.31,2068444.0
1623756323.46875,-16.81,0.213931,34.31,2068203.0
1623756323.484375,-15.27,0.21265,34.29,2067283.0
1623756323.5,-11.52,0.210088,34.29,2067254.0
1623756323.515625,-6.31,0.21265,34.29,2067493.0
1623756323.53125,-0.8,0.213931,34.29,2067149.0
1623756323.546875,3.9,0.21265,34.29,2068076.0
1623756323.5625,7.08,0.210088,34.29,2068195.0
1623756323.578125,8.54,0.208807,34.29,2069133.0
1623756323.59375,8.54,0.211369,34.29,2069308.0
1623756323.609375,7.53,0.211369,34.29,2067907.0
1623756323.625,5.94,0.211369,34.29,2067093.0
1623756323.640625,3.97,0.208807,34.29,2066110.0
1623756323.65625,1.71,0.210088,34.29,2064647.0
1623756323.671875,-0.82,0.210088,34.29,2064223.0
1623756323.6875,-3.5,0.211369,34.29,2063049.0
1623756323.703125,-6.08,0.210088,34.29,2061305.0
1623756323.71875,-8.28,0.208807,34.29,2059793.0
1623756323.734375,-9.97,0.208807,34.29,2059651.0
1623756323.75,-11.21,0.208807,34.29,2059669.0
1623756323.765625,-12.23,0.211369,34.29,2059446.0
1623756323.78125,-13.21,0.21265,34.29,2059314.0
1623756323.796875,-14.15,0.213931,34.29,2058982.0
1623756323.8125,-14.71,0.210088,34.29,2060181.0
1623756323.828125,-14.44,0.210088,34.29,2060408.0
1623756323.84375,-12.94,0.211369,34.29,2059341.0
1623756323.859375,-10.19,0.21265,34.29,2058558.0
1623756323.875,-6.62,0.211369,34.29,2058588.0
1623756323.890625,-2.91,0.208807,34.29,2057472.0
1623756323.90625,0.3,0.210088,34.29,2055207.0
1623756323.921875,2.71,0.208807,34.27,2053988.0
1623756323.9375,4.41,0.211369,34.27,2052949.0
1623756323.953125,5.78,0.208807,34.27,2052111.0
1623756323.96875,7.14,0.207526,34.27,2052470.0
1623756323.984375,8.54,0.207526,34.25,2052213.0
1623756324.0,9.73,0.208807,34.25,2049970.0
1623756324.015625,10.3,0.210088,34.25,2048725.0
1623756324.03125,10.1,0.208807,34.25,2050102.0
1623756324.046875,9.34,0.206245,34.27,2050752.0
1623756324.0625,8.56,0.204964,34.27,2051393.0
1623756324.078125,8.36,0.207526,34.27,2052529.0
1623756324.09375,8.97,0.208807,34.27,2051891.0
1623756324.109375,10.12,0.206245,34.29,2050707.0
1623756324.125,11.06,0.203683,34.29,2050248.0
1623756324.140625,11.01,0.204964,34.29,2048926.0
1623756324.15625,9.5,0.206245,34.29,2045301.0
1623756324.171875,6.66,0.208807,34.29,2042822.0
1623756324.1875,3.14,0.207526,34.29,2041872.0
1623756324.203125,-0.23,0.204964,34.29,2040783.0
1623756324.21875,-2.85,0.204964,34.29,2040954.0
1623756324.234375,-4.55,0.207526,34.29,2039831.0
1623756324.25,-5.55,0.208807,34.29,2038915.0
1623756324.265625,-6.22,0.208807,34.29,2038664.0
1623756324.28125,-6.81,0.207526,34.29,2039742.0
1623756324.296875,-7.38,0.203683,34.29,2039490.0
1623756324.3125,-7.85,0.206245,34.29,2038254.0
1623756324.328125,-8.25,0.207526,34.29,2037751.0
1623756324.34375,-8.73,0.207526,34.29,2036593.0
1623756324.359375,-9.53,0.204964,34.29,2034608.0
1623756324.375,-10.81,0.203683,34.29,2033099.0
1623756324.390625,-12.52,0.206245,34.29,2031783.0
1623756324.40625,-14.36,0.206245,34.29,2029895.0
1623756324.421875,-15.89,0.207526,34.25,2027838.0
1623756324.4375,-16.71,0.204964,34.25,2026585.0
1623756324.453125,-16.59,0.203683,34.25,2026551.0
1623756324.46875,-15.56,0.204964,34.25,2026980.0
1623756324.484375,-13.85,0.207526,34.27,2027415.0
1623756324.5,-11.78,0.206245,34.27,2027009.0
1623756324.515625,-9.61,0.204964,34.27,2026999.0
1623756324.53125,-7.48,0.203683,34.27,2026733.0
1623756324.546875,-5.32,0.207526,34.27,2026066.0
1623756324.5625,-2.84,0.206245,34.27,2025651.0
1623756324.578125,0.21,0.206245,34.27,2025841.0
1623756324.59375,3.97,0.202402,34.27,2025119.0
1623756324.609375,8.21,0.217774,34.27,2024939.0
1623756324.625,12.39,0.203683,34.27,2023611.0
1623756324.640625,15.76,0.206245,34.27,2021942.0
1623756324.65625,17.67,0.207526,34.27,2021518.0
1623756324.671875,17.8,0.203683,34.25,2020588.0
1623756324.6875,16.29,0.203683,34.25,2019572.0
1623756324.703125,13.65,0.204964,34.25,2019127.0
1623756324.71875,10.59,0.207526,34.25,2018357.0
1623756324.734375,7.84,0.206245,34.25,2017795.0
1623756324.75,5.94,0.203683,34.25,2016689.0
1623756324.765625,5.13,0.203683,34.25,2015680.0
1623756324.78125,5.3,0.203683,34.25,2015089.0
1623756324.796875,5.99,0.204964,34.27,2014430.0
1623756324.8125,6.47,0.206245,34.27,2013719.0
1623756324.828125,6.0,0.202402,34.27,2013163.0
1623756324.84375,4.14,0.202402,34.27,2012720.0
1623756324.859375,0.95,0.203683,34.27,2012025.0
1623756324.875,-3.03,0.206245,34.27,2010382.0
1623756324.890625,-7.01,0.206245,34.27,2008800.0
1623756324.90625,-10.32,0.202402,34.27,2007456.0
1623756324.921875,-12.66,0.202402,34.25,2006533.0
1623756324.9375,-14.08,0.202402,34.25,2005868.0
1623756324.953125,-14.84,0.203683,34.25,2005226.0
1623756324.96875,-15.09,0.204964,34.25,2004821.0
1623756324.984375,-14.74,0.204964,34.25,2003905.0
1623756325.0,-13.62,0.203683,34.25,2003075.0
1623756325.015625,-11.73,0.204964,34.25,2002737.0
1623756325.03125,-9.41,0.207526,34.25,2002097.0
1623756325.046875,-7.26,0.206245,34.27,2001492.0
1623756325.0625,-5.84,0.206245,34.27,2001694.0
1623756325.078125,-5.21,0.202402,34.27,2001303.0
1623756325.09375,-4.73,0.202402,34.27,2001107.0
1623756325.109375,-3.21,0.204964,34.27,2000403.0
1623756325.125,0.56,0.204964,34.27,1999578.0
1623756325.140625,7.18,0.203683,34.27,1998168.0
1623756325.15625,16.11,0.202402,34.27,1996922.0
1623756325.171875,25.7,0.204964,34.25,1996205.0
1623756325.1875,33.73,0.203683,34.25,1995367.0
1623756325.203125,38.23,0.206245,34.25,1995421.0
1623756325.21875,38.33,0.204964,34.25,1995381.0
1623756325.234375,34.52,0.203683,34.25,1994629.0
1623756325.25,28.54,0.201121,34.25,1994441.0
1623756325.265625,22.55,0.204964,34.25,1993714.0
1623756325.28125,18.35,0.206245,34.25,1993130.0
1623756325.296875,16.75,0.206245,34.25,1992421.0
1623756325.3125,17.36,0.202402,34.25,1992226.0
1623756325.328125,18.89,0.201121,34.25,1992375.0
1623756325.34375,19.84,0.203683,34.25,1991478.0
1623756325.359375,19.06,0.204964,34.25,1990904.0
1623756325.375,16.21,0.203683,34.25,1989557.0
1623756325.390625,11.82,0.201121,34.25,1987481.0
1623756325.40625,7.02,0.201121,34.25,1986092.0
1623756325.421875,3.16,0.202402,34.25,1984033.0
1623756325.4375,1.38,0.203683,34.25,1983173.0
1623756325.453125,2.34,0.202402,34.25,1982174.0
1623756325.46875,6.18,0.201121,34.25,1981288.0
1623756325.484375,12.45,0.201121,34.25,1980703.0
1623756325.5,20.09,0.202402,34.25,1979746.0
1623756325.515625,27.42,0.203683,34.25,1978868.0
1623756325.53125,32.35,0.202402,34.25,1978182.0
1623756325.546875,33.01,0.201121,34.25,1978182.0
1623756325.5625,28.6,0.19984,34.25,1977454.0
1623756325.578125,19.99,0.202402,34.25,1977094.0
1623756325.59375,9.79,0.203683,34.25,1976636.0
1623756325.609375,1.41,0.202402,34.25,1975895.0
1623756325.625,-2.26,0.19984,34.25,1975112.0
1623756325.640625,-0.2,0.201121,34.25,1974250.0
1623756325.65625,6.37,0.202402,34.25,1972857.0
1623756325.671875,14.67,0.201121,34.25,1970845.0
1623756325.6875,21.67,0.202402,34.25,1969213.0
1623756325.703125,25.4,0.198559,34.25,1967456.0
1623756325.71875,25.48,0.19984,34.25,1966564.0
1623756325.734375,22.79,0.201121,34.25,1965612.0
1623756325.75,18.53,0.201121,34.25,1964821.0
1623756325.765625,13.39,0.202402,34.25,1964318.0
1623756325.78125,7.32,0.19984,34.25,1963043.0
1623756325.796875,-0.17,0.201121,34.25,1962898.0
1623756325.8125,-9.4,0.203683,34.25,1962584.0
1623756325.828125,-20.01,0.206245,34.25,1961901.0
1623756325.84375,-30.86,0.204964,34.25,1961371.0
1623756325.859375,-40.32,0.202402,34.25,1960815.0
1623756325.875,-46.84,0.201121,34.25,1960300.0
1623756325.890625,-49.52,0.201121,34.25,1959904.0
1623756325.90625,-48.37,0.202402,34.25,1959707.0
1623756325.921875,-44.27,0.204964,34.25,1959242.0
1623756325.9375,-38.54,0.201121,34.25,1958150.0
1623756325.953125,-32.32,0.19984,34.25,1956902.0
1623756325.96875,-26.24,0.19984,34.25,1955352.0
1623756325.984375,-20.34,0.203683,34.27,1953978.0
1623756326.0,-14.36,0.202402,34.27,1952863.0
1623756326.015625,-8.24,0.19984,34.27,1951798.0
1623756326.03125,-2.36,0.198559,34.27,1951077.0
1623756326.046875,2.49,0.197277,34.25,1950515.0
1623756326.0625,5.56,0.19984,34.25,1950017.0
1623756326.078125,6.58,0.19984,34.25,1949242.0
1623756326.09375,6.04,0.197277,34.25,1949097.0
1623756326.109375,4.97,0.198559,34.25,1948652.0
1623756326.125,4.49,0.197277,34.25,1948318.0
1623756326.140625,5.2,0.19984,34.25,1947975.0
1623756326.15625,6.98,0.19984,34.25,1948037.0
1623756326.171875,9.13,0.198559,34.25,1947724.0
1623756326.1875,10.82,0.197277,34.25,1947900.0
1623756326.203125,11.59,0.198559,34.25,1948034.0
1623756326.21875,11.56,0.198559,34.25,1947437.0
1623756326.234375,11.32,0.19984,34.23,1945741.0
1623756326.25,11.53,0.195996,34.23,1942444.0
1623756326.265625,12.56,0.195996,34.23,1940931.0
1623756326.28125,14.27,0.195996,34.23,1939995.0
1623756326.296875,16.09,0.19984,34.23,1939624.0
1623756326.3125,17.35,0.19984,34.23,1939955.0
1623756326.328125,17.57,0.19984,34.23,1938384.0
1623756326.34375,16.63,0.195996,34.23,1936507.0
1623756326.359375,14.78,0.195996,34.23,1936637.0
1623756326.375,12.45,0.198559,34.23,1937697.0
1623756326.390625,10.02,0.19984,34.23,1939343.0
1623756326.40625,7.75,0.19984,34.23,1942809.0
1623756326.421875,5.69,0.197277,34.25,1945061.0
1623756326.4375,3.73,0.195996,34.25,1948008.0
1623756326.453125,1.7,0.19984,34.25,1950710.0
1623756326.46875,-0.61,0.19984,34.25,1952954.0
1623756326.484375,-3.41,0.198559,34.25,1955070.0
1623756326.5,-6.81,0.197277,34.25,1958050.0
1623756326.515625,-10.76,0.197277,34.25,1966234.0
1623756326.53125,-14.99,0.195996,34.25,1962231.0
1623756326.546875,-19.01,0.201121,34.23,1971516.0
1623756326.5625,-22.26,0.202402,34.23,1984412.0
1623756326.578125,-24.32,0.201121,34.23,2015595.0
1623756326.59375,-25.1,0.198559,34.23,2007298.0
1623756326.609375,-24.8,0.197277,34.23,2028500.0
1623756326.625,-23.79,0.19984,34.23,2001276.0
1623756326.640625,-22.31,0.201121,34.23,2009080.0
1623756326.65625,-20.36,0.201121,34.23,2020103.0
1623756326.671875,-17.74,0.19984,34.23,2026886.0
1623756326.6875,-14.27,0.197277,34.23,2029133.0
1623756326.703125,-10.06,0.202402,34.23,2029639.0
1623756326.71875,-5.56,0.201121,34.23,2027143.0
1623756326.734375,-1.47,0.201121,34.21,2025597.0
1623756326.75,1.64,0.198559,34.21,2028568.0
1623756326.765625,3.49,0.197277,34.21,2029538.0
1623756326.78125,4.28,0.197277,34.21,2027021.0
1623756326.796875,4.48,0.201121,34.23,2025581.0
1623756326.8125,4.59,0.201121,34.23,2023101.0
1623756326.828125,4.93,0.19984,34.23,2020716.0
1623756326.84375,5.51,0.197277,34.23,2020063.0
1623756326.859375,6.19,0.197277,34.23,2000705.0
1623756326.875,6.75,0.198559,34.23,2018753.0
1623756326.890625,7.11,0.201121,34.23,2018801.0
1623756326.90625,7.3,0.19984,34.23,2018321.0
1623756326.921875,7.45,0.195996,34.25,2018845.0
1623756326.9375,7.67,0.195996,34.25,2020674.0
1623756326.953125,7.98,0.198559,34.25,2021378.0
1623756326.96875,8.22,0.198559,34.25,2020965.0
1623756326.984375,8.14,0.19984,34.25,2020039.0
1623756327.0,7.51,0.195996,34.25,2019795.0
1623756327.015625,6.27,0.195996,34.25,2016485.0
1623756327.03125,4.66,0.19984,34.25,2014845.0
1623756327.046875,3.07,0.198559,34.23,2012678.0
1623756327.0625,1.9,0.19984,34.23,2011636.0
1623756327.078125,1.33,0.195996,34.23,2010535.0
1623756327.09375,1.21,0.195996,34.23,2010309.0
1623756327.109375,1.14,0.198559,34.23,2008938.0
1623756327.125,0.69,0.19984,34.23,2009456.0
1623756327.140625,-0.38,0.198559,34.23,2009307.0
1623756327.15625,-2.03,0.197277,34.23,2009121.0
1623756327.171875,-4.01,0.197277,34.23,2018646.0
1623756327.1875,-6.14,0.197277,34.23,2009692.0
1623756327.203125,-8.38,0.197277,34.23,2019767.0
1623756327.21875,-10.91,0.19984,34.23,2011783.0
1623756327.234375,-13.9,0.198559,34.23,2011445.0
1623756327.25,-17.23,0.197277,34.23,2020020.0
1623756327.265625,-20.45,0.197277,34.23,2011674.0
1623756327.28125,-22.79,0.19984,34.23,2012007.0
1623756327.296875,-23.52,0.19984,34.25,2012463.0
1623756327.3125,-22.24,0.19984,34.25,2012326.0
1623756327.328125,-19.08,0.195996,34.25,2013029.0
1623756327.34375,-14.65,0.197277,34.25,2010758.0
1623756327.359375,-9.77,0.19984,34.23,2008572.0
1623756327.375,-5.16,0.19984,34.23,2008074.0
1623756327.390625,-1.24,0.19984,34.23,2006442.0
1623756327.40625,1.86,0.197277,34.23,2006505.0
1623756327.421875,4.24,0.197277,34.23,2007900.0
1623756327.4375,6.03,0.19984,34.23,2007096.0
1623756327.453125,7.36,0.201121,34.23,2007746.0
1623756327.46875,8.39,0.201121,34.23,2008967.0
1623756327.484375,9.34,0.198559,34.23,2009546.0
1623756327.5,10.54,0.198559,34.23,2008967.0
1623756327.515625,12.29,0.202402,34.23,2008559.0
1623756327.53125,14.74,0.216493,34.23,2009249.0
1623756327.546875,17.69,0.201121,34.23,2010338.0
1623756327.5625,20.58,0.198559,34.23,2013200.0
1623756327.578125,22.59,0.197277,34.23,2011340.0
1623756327.59375,23.04,0.19984,34.23,2014835.0
1623756327.609375,21.67,0.19984,34.23,2015195.0
1623756327.625,18.85,0.201121,34.23,2014966.0
1623756327.640625,15.44,0.198559,34.23,2013968.0
1623756327.65625,12.45,0.198559,34.23,2014900.0
1623756327.671875,10.56,0.201121,34.23,2015175.0
1623756327.6875,9.79,0.201121,34.23,2015276.0
1623756327.703125,9.64,0.215212,34.23,2015322.0
1623756327.71875,9.33,0.19984,34.23,2014126.0
1623756327.734375,8.32,0.201121,34.25,2016095.0
1623756327.75,6.51,0.202402,34.25,2015520.0
1623756327.765625,4.22,0.203683,34.25,2016567.0
1623756327.78125,1.91,0.203683,34.25,2017831.0
1623756327.796875,-0.17,0.201121,34.25,2019366.0
1623756327.8125,-2.09,0.19984,34.25,2020949.0
1623756327.828125,-4.18,0.203683,34.25,2021637.0
1623756327.84375,-6.75,0.201121,34.25,2022455.0
1623756327.859375,-9.87,0.202402,34.25,2025101.0
1623756327.875,-13.32,0.198559,34.25,2023809.0
1623756327.890625,-16.7,0.19984,34.25,2025111.0
1623756327.90625,-19.61,0.198559,34.25,2025763.0
1623756327.921875,-21.8,0.203683,34.25,2024488.0
1623756327.9375,-23.22,0.19984,34.25,2023666.0
1623756327.953125,-23.93,0.198559,34.25,2024073.0
1623756327.96875,-24.04,0.197277,34.25,2024489.0
1623756327.984375,-23.59,0.197277,34.25,2025099.0
1623756328.0,-22.64,0.19984,34.25,2025434.0
1623756328.015625,-21.15,0.201121,34.25,2029350.0
1623756328.03125,-19.11,0.198559,34.25,2027271.0
1623756328.046875,-16.5,0.197277,34.23,2030211.0
1623756328.0625,-13.35,0.197277,34.23,2030906.0
1623756328.078125,-9.81,0.19984,34.23,2031880.0
1623756328.09375,-6.15,0.19984,34.23,2033040.0
1623756328.109375,-2.72,0.19984,34.23,2033680.0
1623756328.125,0.12,0.197277,34.23,2035569.0
1623756328.140625,2.17,0.198559,34.23,2037771.0
1623756328.15625,3.44,0.19984,34.23,2036770.0
1623756328.171875,4.22,0.201121,34.25,2039549.0
1623756328.1875,4.86,0.19984,34.25,2038901.0
1623756328.203125,5.67,0.197277,34.25,2036973.0
1623756328.21875,6.72,0.198559,34.25,2037294.0
1623756328.234375,7.84,0.19984,34.25,2037676.0
1623756328.25,8.71,0.19984,34.25,2037660.0
1623756328.265625,8.99,0.201121,34.25,2038158.0
1623756328.28125,8.55,0.198559,34.25,2036927.0
1623756328.296875,7.45,0.197277,34.25,2037501.0
1623756328.3125,5.99,0.198559,34.25,2038559.0
1623756328.328125,4.59,0.19984,34.25,2038674.0
1623756328.34375,3.66,0.19984,34.25,2040037.0
1623756328.359375,3.5,0.197277,34.23,2041232.0
1623756328.375,4.25,0.197277,34.23,2041728.0
1623756328.390625,5.81,0.198559,34.23,2042528.0
1623756328.40625,7.9,0.19984,34.23,2043734.0
1623756328.421875,10.07,0.201121,34.23,2044430.0
1623756328.4375,11.75,0.198559,34.23,2044662.0
1623756328.453125,12.35,0.19984,34.23,2045685.0
1623756328.46875,11.42,0.202402,34.23,2045676.0
1623756328.484375,8.77,0.202402,34.23,2044453.0
1623756328.5,4.59,0.201121,34.23,2043628.0
1623756328.515625,-0.54,0.198559,34.23,2044385.0
1623756328.53125,-5.82,0.198559,34.23,2044226.0
1623756328.546875,-10.52,0.202402,34.23,2043839.0
1623756328.5625,-14.28,0.202402,34.23,2044727.0
1623756328.578125,-17.21,0.19984,34.23,2045151.0
1623756328.59375,-19.75,0.198559,34.23,2045518.0
1623756328.609375,-22.37,0.198559,34.25,2045585.0
1623756328.625,-25.2,0.19984,34.25,2045337.0
1623756328.640625,-27.89,0.202402,34.25,2045983.0
1623756328.65625,-29.73,0.201121,34.25,2046704.0
1623756328.671875,-30.0,0.198559,34.25,2046520.0
1623756328.6875,-28.25,0.197277,34.25,2046948.0
1623756328.703125,-24.45,0.198559,34.25,2047671.0
1623756328.71875,-18.97,0.202402,34.25,2048656.0
1623756328.734375,-12.29,0.201121,34.25,2049636.0
1623756328.75,-4.96,0.19984,34.25,2049785.0
1623756328.765625,2.45,0.198559,34.25,2049098.0
1623756328.78125,9.24,0.197277,34.25,2047562.0
1623756328.796875,14.58,0.201121,34.25,2048023.0
1623756328.8125,17.74,0.202402,34.25,2047014.0
1623756328.828125,18.36,0.201121,34.25,2046701.0
1623756328.84375,16.82,0.198559,34.25,2047466.0
1623756328.859375,14.18,0.198559,34.23,2047881.0
1623756328.875,11.87,0.19984,34.23,2047420.0
1623756328.890625,11.15,0.201121,34.23,2046965.0
1623756328.90625,12.51,0.19984,34.23,2047815.0
1623756328.921875,15.56,0.198559,34.23,2048014.0
1623756328.9375,19.27,0.197277,34.23,2047811.0
1623756328.953125,22.54,0.202402,34.23,2047772.0
1623756328.96875,24.75,0.201121,34.23,2046793.0
1623756328.984375,25.97,0.19984,34.25,2047646.0
1623756329.0,26.74,0.198559,34.25,2048248.0
1623756329.015625,27.56,0.197277,34.25,2048999.0
1623756329.03125,28.52,0.197277,34.25,2050082.0
1623756329.046875,29.15,0.202402,34.25,2049356.0
1623756329.0625,28.73,0.202402,34.25,2049356.0
1623756329.078125,26.68,0.19984,34.25,2049409.0
1623756329.09375,22.91,0.198559,34.25,2049455.0
1623756329.109375,17.96,0.198559,34.25,2050136.0
1623756329.125,12.74,0.201121,34.25,2050466.0
1623756329.140625,8.22,0.202402,34.25,2051120.0
1623756329.15625,5.15,0.202402,34.25,2051384.0
1623756329.171875,3.77,0.198559,34.27,2050771.0
1623756329.1875,3.95,0.198559,34.27,2050238.0
1623756329.203125,5.2,0.201121,34.27,2050673.0
1623756329.21875,6.91,0.202402,34.27,2051339.0
1623756329.234375,8.46,0.202402,34.23,2052093.0
1623756329.25,9.33,0.19984,34.23,2053581.0
1623756329.265625,9.24,0.198559,34.23,2054088.0
1623756329.28125,8.06,0.19984,34.23,2054891.0
1623756329.296875,5.89,0.201121,34.25,2056105.0
1623756329.3125,3.12,0.201121,34.25,2055213.0
1623756329.328125,0.53,0.198559,34.25,2053403.0
1623756329.34375,-0.62,0.198559,34.25,2049747.0
1623756329.359375,1.1,0.201121,34.25,2048074.0
1623756329.375,6.74,0.203683,34.25,2048952.0
1623756329.390625,16.39,0.203683,34.25,2052114.0
1623756329.40625,28.87,0.201121,34.25,2052577.0
1623756329.421875,42.1,0.202402,34.25,2051239.0
1623756329.4375,53.78,0.19984,34.25,2049204.0
1623756329.453125,62.29,0.204964,34.25,2047906.0
1623756329.46875,67.11,0.203683,34.25,2047346.0
1623756329.484375,68.65,0.202402,34.25,2047528.0
1623756329.5,67.61,0.19984,34.25,2047686.0
1623756329.515625,64.37,0.19984,34.25,2048158.0
1623756329.53125,58.88,0.202402,34.25,2046082.0
1623756329.546875,50.86,0.203683,34.27,2043182.0
1623756329.5625,40.49,0.203683,34.27,2040874.0
1623756329.578125,28.67,0.19984,34.27,2039030.0
1623756329.59375,16.86,0.215212,34.27,2037060.0
1623756329.609375,6.54,0.19984,34.25,2034546.0
1623756329.625,-1.5,0.202402,34.25,2030341.0
1623756329.640625,-7.41,0.201121,34.25,2027520.0
1623756329.65625,-12.11,0.19984,34.25,2026187.0
1623756329.671875,-16.74,0.201121,34.25,2024837.0
1623756329.6875,-22.1,0.202402,34.25,2022277.0
1623756329.703125,-28.27,0.201121,34.25,2022288.0
1623756329.71875,-34.67,0.202402,34.25,2023188.0
1623756329.734375,-40.49,0.198559,34.25,2021560.0
1623756329.75,-45.08,0.198559,34.25,2021562.0
1623756329.765625,-48.25,0.19984,34.25,2023655.0
1623756329.78125,-50.19,0.202402,34.25,2027680.0
1623756329.796875,-51.15,0.202402,34.25,2026338.0
1623756329.8125,-51.14,0.201121,34.25,2024510.0
1623756329.828125,-49.96,0.198559,34.25,2025977.0
1623756329.84375,-47.4,0.19984,34.25,2025418.0
1623756329.859375,-43.62,0.201121,34.25,2024308.0
1623756329.875,-39.27,0.201121,34.25,2023562.0
1623756329.890625,-35.27,0.202402,34.25,2020860.0
1623756329.90625,-32.37,0.198559,34.25,2018420.0
1623756329.921875,-30.81,0.198559,34.23,2017874.0
1623756329.9375,-30.22,0.201121,34.23,2017691.0
1623756329.953125,-29.9,0.203683,34.23,2018502.0
1623756329.96875,-29.2,0.203683,34.23,2018812.0
1623756329.984375,-27.77,0.202402,34.23,2018560.0
1623756330.0,-25.57,0.19984,34.23,2018562.0
1623756330.015625,-22.77,0.203683,34.23,2018623.0
1623756330.03125,-19.5,0.202402,34.23,2018861.0
1623756330.046875,-15.88,0.202402,34.27,2019127.0
1623756330.0625,-12.07,0.198559,34.27,2016880.0
1623756330.078125,-8.32,0.19984,34.27,2014580.0
1623756330.09375,-4.93,0.201121,34.27,2012429.0
1623756330.109375,-1.96,0.19984,34.25,2009690.0
1623756330.125,0.75,0.198559,34.25,2007530.0
1623756330.140625,3.63,0.197277,34.25,2006336.0
1623756330.15625,7.03,0.19984,34.25,2005536.0
1623756330.171875,10.99,0.198559,34.25,2003927.0
1623756330.1875,15.12,0.19984,34.25,2002110.0
1623756330.203125,18.82,0.201121,34.25,2001191.0
1623756330.21875,21.57,0.198559,34.25,1999714.0
1623756330.234375,23.2,0.197277,34.25,1998306.0
1623756330.25,23.96,0.197277,34.25,1997169.0
1623756330.265625,24.34,0.201121,34.25,1996160.0
1623756330.28125,24.7,0.201121,34.25,1995433.0
1623756330.296875,25.17,0.201121,34.25,1994044.0
1623756330.3125,25.61,0.197277,34.25,1992192.0
1623756330.328125,25.82,0.197277,34.25,1989745.0
1623756330.34375,25.71,0.19984,34.25,1987595.0
1623756330.359375,25.34,0.201121,34.25,1985090.0
1623756330.375,24.84,0.198559,34.25,1983599.0
1623756330.390625,24.25,0.197277,34.25,1982677.0
1623756330.40625,23.44,0.197277,34.25,1980664.0
1623756330.421875,22.2,0.198559,34.27,1977184.0
1623756330.4375,20.42,0.19984,34.27,1976169.0
1623756330.453125,18.15,0.201121,34.27,1974763.0
1623756330.46875,15.63,0.197277,34.27,1974820.0
1623756330.484375,13.02,0.197277,34.25,1974014.0
1623756330.5,10.32,0.19984,34.25,1971288.0
1623756330.515625,7.24,0.201121,34.25,1971288.0
1623756330.53125,3.41,0.201121,34.25,1970039.0
1623756330.546875,-1.36,0.198559,34.25,1972989.0
1623756330.5625,-6.86,0.19984,34.25,1977865.0
1623756330.578125,-12.41,0.198559,34.25,1982652.0
1623756330.59375,-17.08,0.202402,34.25,1987409.0
1623756330.609375,-20.07,0.202402,34.25,1988687.0
1623756330.625,-21.11,0.201121,34.25,1988868.0
1623756330.640625,-20.45,0.19984,34.25,1986652.0
1623756330.65625,-18.89,0.198559,34.25,1984719.0
1623756330.671875,-17.25,0.202402,34.25,1992447.0
1623756330.6875,-16.16,0.203683,34.25,2017705.0
1623756330.703125,-15.74,0.202402,34.25,2016675.0
1623756330.71875,-15.72,0.201121,34.25,1997531.0
1623756330.734375,-15.58,0.19984,34.25,1986278.0
1623756330.75,-14.84,0.201121,34.25,1987783.0
1623756330.765625,-13.2,0.203683,34.25,1991632.0
1623756330.78125,-10.59,0.203683,34.25,1995572.0
1623756330.796875,-7.23,0.19984,34.25,1999834.0
1623756330.8125,-3.55,0.201121,34.25,1999833.0
1623756330.828125,-0.26,0.198559,34.25,1997725.0
1623756330.84375,1.78,0.203683,34.25,1994915.0
1623756330.859375,1.73,0.202402,34.25,1988386.0
1623756330.875,-0.9,0.202402,34.25,1977442.0
1623756330.890625,-5.87,0.19984,34.25,1970836.0
1623756330.90625,-12.15,0.198559,34.25,1968483.0
1623756330.921875,-18.16,0.201121,34.23,1967380.0
1623756330.9375,-22.34,0.202402,34.23,1967211.0
1623756330.953125,-23.84,0.201121,34.23,1966437.0
1623756330.96875,-22.86,0.198559,34.23,1966015.0
1623756330.984375,-20.59,0.198559,34.25,1965051.0
1623756331.0,-18.53,0.19984,34.25,1965084.0
1623756331.015625,-17.75,0.202402,34.25,1965220.0
1623756331.03125,-18.36,0.201121,34.25,1965007.0
1623756331.046875,-19.51,0.198559,34.25,1965249.0
1623756331.0625,-19.9,0.197277,34.25,1965464.0
1623756331.078125,-18.52,0.19984,34.25,1963884.0
1623756331.09375,-15.12,0.19984,34.25,1964820.0
1623756331.109375,-10.15,0.19984,34.25,1967033.0
1623756331.125,-4.41,0.197277,34.25,1968542.0
1623756331.140625,1.52,0.198559,34.25,1970080.0
1623756331.15625,7.45,0.201121,34.25,1971615.0
1623756331.171875,13.42,0.19984,34.25,1973419.0
1623756331.1875,19.34,0.201121,34.25,1975515.0
1623756331.203125,24.72,0.197277,34.25,1976414.0
1623756331.21875,28.85,0.198559,34.25,1978016.0
1623756331.234375,31.21,0.19984,34.25,1979946.0
1623756331.25,31.91,0.201121,34.25,1982962.0
1623756331.265625,31.72,0.201121,34.25,1983443.0
1623756331.28125,31.7,0.198559,34.25,1982182.0
1623756331.296875,32.67,0.198559,34.23,1983939.0
1623756331.3125,34.71,0.197277,34.23,1985144.0
1623756331.328125,37.2,0.19984,34.23,1985425.0
1623756331.34375,39.24,0.202402,34.23,1985351.0
1623756331.359375,40.19,0.201121,34.23,1984444.0
1623756331.375,39.95,0.198559,34.23,1982233.0
1623756331.390625,38.86,0.19984,34.23,1980619.0
1623756331.40625,37.32,0.19984,34.23,1980954.0
1623756331.421875,35.5,0.201121,34.23,1981367.0
1623756331.4375,33.11,0.202402,34.23,1980245.0
1623756331.453125,29.79,0.19984,34.23,1978527.0
1623756331.46875,25.39,0.198559,34.23,1977360.0
1623756331.484375,20.26,0.198559,34.23,1975471.0
1623756331.5,15.12,0.201121,34.23,1974341.0
1623756331.515625,10.67,0.202402,34.23,1972862.0
1623756331.53125,7.26,0.201121,34.23,1972819.0
1623756331.546875,4.73,0.197277,34.25,1972700.0
1623756331.5625,2.66,0.197277,34.25,1973469.0
1623756331.578125,0.69,0.202402,34.25,1975980.0
1623756331.59375,-1.19,0.19984,34.25,1976650.0
1623756331.609375,-2.69,0.19984,34.23,1975432.0
1623756331.625,-3.54,0.197277,34.23,1976047.0
1623756331.640625,-3.74,0.197277,34.23,1977154.0
1623756331.65625,-3.69,0.213931,34.23,1977084.0
1623756331.671875,-3.98,0.201121,34.23,1977397.0
1623756331.6875,-4.99,0.19984,34.23,1977495.0
1623756331.703125,-6.65,0.19984,34.23,1977428.0
1623756331.71875,-8.43,0.198559,34.23,1977836.0
1623756331.734375,-9.63,0.19984,34.23,1978036.0
1623756331.75,-9.81,0.202402,34.23,1977542.0
1623756331.765625,-8.99,0.201121,34.23,1977789.0
1623756331.78125,-7.66,0.201121,34.23,1977841.0
1623756331.796875,-6.48,0.198559,34.25,1977430.0
1623756331.8125,-5.94,0.198559,34.25,1977965.0
1623756331.828125,-6.25,0.19984,34.25,1978184.0
1623756331.84375,-7.36,0.201121,34.25,1977935.0
1623756331.859375,-9.17,0.201121,34.23,1978499.0
1623756331.875,-11.75,0.198559,34.23,1979936.0
1623756331.890625,-15.27,0.198559,34.23,1980872.0
1623756331.90625,-19.88,0.202402,34.23,1981125.0
1623756331.921875,-25.35,0.202402,34.23,1981896.0
1623756331.9375,-31.03,0.202402,34.23,1982876.0
1623756331.953125,-35.97,0.19984,34.23,1982357.0
1623756331.96875,-39.25,0.198559,34.23,1983308.0
1623756331.984375,-40.5,0.198559,34.25,1984172.0
1623756332.0,-40.01,0.201121,34.25,1983793.0
1623756332.015625,-38.67,0.202402,34.25,1982621.0
1623756332.03125,-37.54,0.201121,34.25,1982257.0
1623756332.046875,-37.27,0.19984,34.25,1981204.0
1623756332.0625,-37.87,0.197277,34.25,1980770.0
1623756332.078125,-38.69,0.19984,34.25,1980506.0
1623756332.09375,-38.83,0.201121,34.25,1980322.0
1623756332.109375,-37.61,0.201121,34.25,1980505.0
1623756332.125,-34.92,0.198559,34.25,1980042.0
1623756332.140625,-31.25,0.198559,34.25,1979903.0
1623756332.15625,-27.39,0.201121,34.25,1979593.0
1623756332.171875,-24.08,0.201121,34.23,1979619.0
1623756332.1875,-21.61,0.198559,34.23,1979786.0
1623756332.203125,-19.8,0.198559,34.23,1980055.0
1623756332.21875,-18.18,0.198559,34.23,1980670.0
1623756332.234375,-16.4,0.201121,34.25,1980867.0
1623756332.25,-14.43,0.201121,34.25,1980714.0
1623756332.265625,-12.62,0.201121,34.25,1979935.0
1623756332.28125,-11.4,0.19984,34.25,1978685.0
1623756332.296875,-10.89,0.198559,34.23,1978308.0
1623756332.3125,-10.84,0.201121,34.23,1977576.0
1623756332.328125,-10.57,0.202402,34.23,1977064.0
1623756332.34375,-9.35,0.201121,34.23,1977038.0
1623756332.359375,-6.57,0.19984,34.25,1976882.0
1623756332.375,-1.96,0.198559,34.25,1976687.0
1623756332.390625,4.25,0.201121,34.25,1976892.0
1623756332.40625,11.21,0.202402,34.25,1976294.0
1623756332.421875,17.56,0.202402,34.23,1975979.0
1623756332.4375,21.72,0.198559,34.23,1976703.0
1623756332.453125,22.53,0.198559,34.23,1975364.0
1623756332.46875,20.02,0.198559,34.23,1972535.0
1623756332.484375,15.69,0.202402,34.25,1972635.0
1623756332.5,12.21,0.202402,34.25,1977085.0
1623756332.515625,12.38,0.215212,34.25,1979126.0
1623756332.53125,17.87,0.19984,34.25,1976269.0
1623756332.546875,28.52,0.198559,34.23,1974948.0
1623756332.5625,42.37,0.201121,34.23,1975314.0
1623756332.578125,56.58,0.203683,34.23,1975650.0
1623756332.59375,68.51,0.202402,34.23,1975475.0
1623756332.609375,76.52,0.19984,34.25,1977935.0
1623756332.625,80.07,0.19984,34.25,1978583.0
1623756332.640625,79.43,0.202402,34.25,1977551.0
1623756332.65625,75.28,0.202402,34.25,1977829.0
1623756332.671875,68.49,0.202402,34.23,1979414.0
1623756332.6875,60.0,0.213931,34.23,1980331.0
1623756332.703125,50.73,0.19984,34.23,1981900.0
1623756332.71875,41.31,0.202402,34.23,1983824.0
1623756332.734375,31.88,0.202402,34.23,1984894.0
1623756332.75,22.2,0.202402,34.23,1987225.0
1623756332.765625,11.97,0.201121,34.23,1988877.0
1623756332.78125,1.32,0.19984,34.23,1990305.0
1623756332.796875,-9.02,0.19984,34.23,1991518.0
1623756332.8125,-17.88,0.202402,34.23,1991626.0
1623756332.828125,-24.2,0.202402,34.23,1991352.0
1623756332.84375,-27.59,0.203683,34.23,1990555.0
1623756332.859375,-28.53,0.19984,34.25,1990852.0
1623756332.875,-28.08,0.19984,34.25,1990720.0
1623756332.890625,-27.29,0.203683,34.25,1990571.0
1623756332.90625,-26.76,0.204964,34.25,1991002.0
1623756332.921875,-26.43,0.203683,34.23,1991218.0
1623756332.9375,-25.91,0.201121,34.23,1990871.0
1623756332.953125,-24.83,0.201121,34.23,1990580.0
1623756332.96875,-23.29,0.202402,34.23,1990580.0
1623756332.984375,-21.79,0.202402,34.23,1990581.0
1623756333.0,-20.93,0.203683,34.23,1991217.0
1623756333.015625,-21.01,0.202402,34.23,1991161.0
1623756333.03125,-21.81,0.201121,34.23,1990951.0
1623756333.046875,-22.72,0.201121,34.21,1990454.0
1623756333.0625,-23.14,0.203683,34.21,1990066.0
1623756333.078125,-22.8,0.204964,34.21,1988550.0
1623756333.09375,-21.96,0.202402,34.21,1987368.0
1623756333.109375,-21.19,0.202402,34.23,1986221.0
1623756333.125,-21.03,0.19984,34.23,1985486.0
1623756333.140625,-21.7,0.201121,34.23,1985070.0
1623756333.15625,-22.95,0.202402,34.23,1984906.0
1623756333.171875,-24.27,0.203683,34.23,1985052.0
1623756333.1875,-25.17,0.203683,34.23,1984607.0
1623756333.203125,-25.36,0.202402,34.23,1983979.0
1623756333.21875,-24.82,0.201121,34.23,1983464.0
1623756333.234375,-23.68,0.19984,34.23,1983885.0
1623756333.25,-22.05,0.202402,34.23,1983823.0
1623756333.265625,-19.98,0.203683,34.23,1983961.0
1623756333.28125,-17.38,0.202402,34.23,1983694.0
1623756333.296875,-14.21,0.19984,34.23,1982304.0
1623756333.3125,-10.48,0.198559,34.23,1979806.0
1623756333.328125,-6.41,0.201121,34.23,1976923.0
1623756333.34375,-2.35,0.201121,34.23,1974341.0
1623756333.359375,1.32,0.202402,34.21,1972706.0
1623756333.375,4.26,0.19984,34.21,1970599.0
1623756333.390625,6.27,0.19984,34.21,1969209.0
1623756333.40625,7.34,0.201121,34.21,1968911.0
1623756333.421875,7.62,0.203683,34.23,1970367.0
1623756333.4375,7.34,0.202402,34.23,1971258.0
1623756333.453125,6.76,0.203683,34.23,1972983.0
1623756333.46875,6.05,0.202402,34.23,1973413.0
1623756333.484375,5.34,0.202402,34.23,1972987.0
1623756333.5,4.7,0.201121,34.23,1973226.0
1623756333.515625,4.24,0.204964,34.23,1974766.0
1623756333.53125,4.11,0.203683,34.23,1978120.0
1623756333.546875,4.4,0.204964,34.23,1979134.0
1623756333.5625,5.15,0.202402,34.23,1978265.0
1623756333.578125,6.16,0.201121,34.23,1978612.0
1623756333.59375,7.03,0.204964,34.23,1977742.0
1623756333.609375,7.36,0.203683,34.23,1977362.0
1623756333.625,6.78,0.203683,34.23,1975619.0
1623756333.640625,5.31,0.202402,34.23,1974870.0
1623756333.65625,3.25,0.201121,34.23,1975636.0
1623756333.671875,1.09,0.202402,34.23,1975345.0
1623756333.6875,-0.72,0.203683,34.23,1974747.0
1623756333.703125,-2.03,0.204964,34.23,1973176.0
1623756333.71875,-2.91,0.204964,34.23,1974153.0
1623756333.734375,-3.62,0.19984,34.21,1970953.0
1623756333.75,-4.3,0.201121,34.21,1973926.0
1623756333.765625,-5.01,0.206245,34.21,1973282.0
1623756333.78125,-5.67,0.204964,34.21,1976469.0
1623756333.796875,-6.27,0.204964,34.21,1970845.0
1623756333.8125,-6.95,0.202402,34.21,1968692.0
1623756333.828125,-7.84,0.203683,34.21,1970737.0
1623756333.84375,-8.97,0.202402,34.21,1967099.0
1623756333.859375,-10.1,0.202402,34.23,1976948.0
1623756333.875,-10.87,0.204964,34.23,1976183.0
1623756333.890625,-10.98,0.204964,34.23,1975677.0
1623756333.90625,-10.49,0.202402,34.23,1976522.0
1623756333.921875,-9.84,0.202402,34.23,1983992.0
1623756333.9375,-9.57,0.204964,34.23,1968829.0
1623756333.953125,-9.94,0.206245,34.23,1958613.0
1623756333.96875,-10.62,0.204964,34.23,1957782.0
1623756333.984375,-10.82,0.202402,34.21,1964910.0
1623756334.0,-9.81,0.201121,34.21,1970998.0
1623756334.015625,-7.42,0.204964,34.21,1975003.0
1623756334.03125,-4.4,0.206245,34.21,1978341.0
1623756334.046875,-2.17,0.203683,34.21,1980919.0
1623756334.0625,-2.25,0.202402,34.21,1981289.0
1623756334.078125,-5.48,0.201121,34.21,1982425.0
1623756334.09375,-11.6,0.201121,34.21,1983607.0
1623756334.109375,-19.32,0.203683,34.23,1983885.0
1623756334.125,-26.88,0.204964,34.23,1984782.0
1623756334.140625,-32.76,0.202402,34.23,1984499.0
1623756334.15625,-36.09,0.19984,34.23,1985355.0
1623756334.171875,-36.69,0.19984,34.21,1986587.0
1623756334.1875,-34.89,0.203683,34.21,1987242.0
1623756334.203125,-31.21,0.204964,34.21,1989001.0
1623756334.21875,-26.23,0.203683,34.21,1990107.0
1623756334.234375,-20.6,0.19984,34.21,1988660.0
1623756334.25,-15.03,0.201121,34.21,1987592.0
1623756334.265625,-10.06,0.19984,34.21,1987966.0
1623756334.28125,-5.85,0.204964,34.21,1987663.0
1623756334.296875,-2.02,0.204964,34.21,1987339.0
1623756334.3125,2.21,0.203683,34.21,1987437.0
1623756334.328125,7.43,0.201121,34.21,1986644.0
1623756334.34375,13.47,0.201121,34.21,1986062.0
1623756334.359375,19.18,0.203683,34.21,1985743.0
1623756334.375,22.72,0.203683,34.21,1984556.0
1623756334.390625,22.55,0.204964,34.21,1982958.0
1623756334.40625,18.26,0.202402,34.21,1981740.0
1623756334.421875,10.95,0.201121,34.21,1980226.0
1623756334.4375,2.78,0.19984,34.21,1978962.0
1623756334.453125,-4.08,0.204964,34.21,1978604.0
1623756334.46875,-8.49,0.204964,34.21,1977529.0
1623756334.484375,-10.7,0.204964,34.23,1976098.0
1623756334.5,-11.89,0.201121,34.23,1974861.0
1623756334.515625,-13.25,0.19984,34.23,1973890.0
1623756334.53125,-15.18,0.204964,34.23,1973004.0
1623756334.546875,-17.07,0.202402,34.21,1971708.0
1623756334.5625,-17.75,0.203683,34.21,1970977.0
1623756334.578125,-16.17,0.202402,34.21,1969327.0
1623756334.59375,-11.73,0.201121,34.21,1968413.0
1623756334.609375,-4.3,0.202402,34.21,1968880.0
1623756334.625,5.98,0.204964,34.21,1971060.0
1623756334.640625,18.62,0.204964,34.21,1971308.0
1623756334.65625,32.47,0.203683,34.21,1969636.0
1623756334.671875,45.4,0.201121,34.21,1968602.0
1623756334.6875,54.59,0.19984,34.21,1967709.0
1623756334.703125,57.44,0.204964,34.21,1968639.0
1623756334.71875,52.71,0.204964,34.21,1967572.0
1623756334.734375,41.32,0.203683,34.23,1966659.0
1623756334.75,26.13,0.201121,34.23,1966601.0
1623756334.765625,10.92,0.202402,34.23,1967014.0
1623756334.78125,-0.92,0.201121,34.23,1967087.0
1623756334.796875,-7.19,0.204964,34.23,1966878.0
1623756334.8125,-6.9,0.204964,34.23,1966130.0
1623756334.828125,-0.03,0.204964,34.23,1966197.0
1623756334.84375,12.53,0.201121,34.23,1966699.0
1623756334.859375,28.65,0.201121,34.23,1966156.0
1623756334.875,44.68,0.203683,34.23,1965934.0
1623756334.890625,55.98,0.204964,34.23,1965385.0
1623756334.90625,58.48,0.204964,34.23,1965236.0
1623756334.921875,50.72,0.201121,34.23,1965261.0
1623756334.9375,35.02,0.201121,34.23,1965261.0
1623756334.953125,16.96,0.203683,34.23,1964560.0
1623756334.96875,3.16,0.204964,34.23,1963313.0
1623756334.984375,-1.55,0.204964,34.21,1961064.0
1623756335.0,4.07,0.202402,34.21,1958799.0
1623756335.015625,17.53,0.201121,34.21,1955763.0
1623756335.03125,34.26,0.201121,34.21,1954466.0
1623756335.046875,49.78,0.204964,34.23,1954203.0
1623756335.0625,61.16,0.203683,34.23,1955234.0
1623756335.078125,67.27,0.202402,34.23,1957031.0
1623756335.09375,68.04,0.201121,34.23,1956549.0
1623756335.109375,63.64,0.202402,34.21,1956659.0
1623756335.125,54.23,0.203683,34.21,1956957.0
1623756335.140625,40.27,0.204964,34.21,1956702.0
1623756335.15625,23.08,0.204964,34.21,1958036.0
1623756335.171875,4.81,0.204964,34.21,1957968.0
1623756335.1875,-12.07,0.202402,34.21,1957227.0
1623756335.203125,-25.59,0.201121,34.21,1957562.0
1623756335.21875,-34.92,0.202402,34.21,1956700.0
1623756335.234375,-40.42,0.203683,34.23,1955064.0
1623756335.25,-43.05,0.204964,34.23,1954531.0
1623756335.265625,-43.77,0.217774,34.23,1953437.0
1623756335.28125,-43.07,0.202402,34.23,1952250.0
1623756335.296875,-41.0,0.202402,34.23,1951649.0
1623756335.3125,-37.54,0.204964,34.23,1951284.0
1623756335.328125,-32.95,0.206245,34.23,1952039.0
1623756335.34375,-27.91,0.204964,34.23,1952491.0
1623756335.359375,-23.28,0.202402,34.21,1952430.0
1623756335.375,-19.79,0.202402,34.21,1952660.0
1623756335.390625,-17.72,0.201121,34.21,1951766.0
1623756335.40625,-16.86,0.204964,34.21,1952856.0
1623756335.421875,-16.73,0.204964,34.21,1952307.0
1623756335.4375,-16.79,0.202402,34.21,1951730.0
1623756335.453125,-16.7,0.202402,34.21,1952010.0
1623756335.46875,-16.26,0.203683,34.21,1952602.0
1623756335.484375,-15.37,0.203683,34.21,1952886.0
1623756335.5,-13.91,0.204964,34.21,1952592.0
1623756335.515625,-11.72,0.203683,34.21,1951723.0
1623756335.53125,-8.79,0.201121,34.21,1950647.0
1623756335.546875,-5.32,0.202402,34.21,1949812.0
1623756335.5625,-1.84,0.204964,34.21,1949194.0
1623756335.578125,0.9,0.206245,34.21,1948956.0
1623756335.59375,2.25,0.206245,34.21,1948207.0
1623756335.609375,1.92,0.204964,34.21,1946946.0
1623756335.625,0.2,0.202402,34.21,1946976.0
1623756335.640625,-2.22,0.202402,34.21,1947204.0
1623756335.65625,-4.49,0.204964,34.21,1946140.0
1623756335.671875,-6.01,0.206245,34.18,1945812.0
1623756335.6875,-6.63,0.206245,34.18,1945238.0
1623756335.703125,-6.67,0.202402,34.18,1945429.0
1623756335.71875,-6.67,0.202402,34.18,1945609.0
1623756335.734375,-7.04,0.204964,34.21,1946151.0
1623756335.75,-7.94,0.204964,34.21,1946199.0
1623756335.765625,-9.24,0.204964,34.21,1945647.0
1623756335.78125,-10.73,0.203683,34.21,1944906.0
1623756335.796875,-12.27,0.202402,34.18,1943930.0
1623756335.8125,-13.92,0.203683,34.18,1943614.0
1623756335.828125,-15.78,0.204964,34.18,1943012.0
1623756335.84375,-17.92,0.206245,34.18,1942661.0
1623756335.859375,-20.22,0.206245,34.21,1942331.0
1623756335.875,-22.39,0.202402,34.21,1940617.0
1623756335.890625,-24.09,0.203683,34.21,1940710.0
1623756335.90625,-25.07,0.206245,34.21,1942188.0
1623756335.921875,-25.21,0.204964,34.23,1941935.0
1623756335.9375,-24.5,0.207526,34.23,1943116.0
1623756335.953125,-23.0,0.203683,34.23,1941979.0
1623756335.96875,-20.77,0.203683,34.23,1943224.0
1623756335.984375,-17.79,0.207526,34.18,1941898.0
1623756336.0,-14.02,0.206245,34.18,1941476.0
1623756336.015625,-9.43,0.207526,34.18,1940841.0
1623756336.03125,-4.12,0.206245,34.18,1939643.0
1623756336.046875,1.63,0.203683,34.18,1937909.0
1623756336.0625,7.33,0.203683,34.18,1936701.0
1623756336.078125,12.39,0.206245,34.18,1936141.0
1623756336.09375,16.24,0.207526,34.18,1935462.0
1623756336.109375,18.59,0.207526,34.21,1933911.0
1623756336.125,19.52,0.204964,34.21,1940846.0
1623756336.140625,19.39,0.204964,34.21,1932917.0
1623756336.15625,18.74,0.206245,34.21,1931692.0
1623756336.171875,18.08,0.204964,34.18,1930313.0
1623756336.1875,17.74,0.208807,34.18,1930296.0
1623756336.203125,17.84,0.207526,34.18,1930620.0
1623756336.21875,18.36,0.206245,34.18,1929914.0
1623756336.234375,19.2,0.203683,34.21,1929847.0
1623756336.25,20.2,0.203683,34.21,1928925.0
1623756336.265625,21.21,0.207526,34.21,1927200.0
1623756336.28125,22.02,0.207526,34.21,1925350.0
1623756336.296875,22.44,0.207526,34.21,1923497.0
1623756336.3125,22.33,0.204964,34.21,1920821.0
1623756336.328125,21.68,0.203683,34.21,1919000.0
1623756336.34375,20.6,0.203683,34.21,1916980.0
1623756336.359375,19.24,0.206245,34.23,1916239.0
1623756336.375,17.8,0.207526,34.23,1915703.0
1623756336.390625,16.45,0.204964,34.23,1914765.0
1623756336.40625,15.34,0.203683,34.23,1914470.0
1623756336.421875,14.5,0.203683,34.18,1915904.0
1623756336.4375,13.82,0.203683,34.18,1917849.0
1623756336.453125,13.01,0.206245,34.18,1918115.0
1623756336.46875,11.72,0.207526,34.18,1919029.0
1623756336.484375,9.63,0.207526,34.18,1920206.0
1623756336.5,6.7,0.203683,34.18,1919024.0
1623756336.515625,3.23,0.203683,34.18,1918195.0
1623756336.53125,-0.27,0.203683,34.18,1917738.0
1623756336.546875,-3.23,0.207526,34.23,1916242.0
1623756336.5625,-5.31,0.207526,34.23,1914712.0
1623756336.578125,-6.57,0.204964,34.23,1913478.0
1623756336.59375,-7.44,0.204964,34.23,1911985.0
1623756336.609375,-8.54,0.204964,34.18,1911619.0
1623756336.625,-10.42,0.202402,34.18,1911442.0
1623756336.640625,-13.28,0.206245,34.18,1910653.0
1623756336.65625,-16.94,0.206245,34.18,1911069.0
1623756336.671875,-20.89,0.204964,34.21,1911044.0
1623756336.6875,-24.5,0.202402,34.21,1910700.0
1623756336.703125,-27.13,0.202402,34.21,1910800.0
1623756336.71875,-28.33,0.202402,34.21,1909868.0
1623756336.734375,-27.84,0.206245,34.23,1908334.0
1623756336.75,-25.66,0.206245,34.23,1907162.0
1623756336.765625,-22.06,0.206245,34.23,1905326.0
1623756336.78125,-17.45,0.204964,34.23,1903061.0
1623756336.796875,-12.45,0.202402,34.21,1900373.0
1623756336.8125,-7.7,0.202402,34.21,1897911.0
1623756336.828125,-3.79,0.203683,34.21,1895594.0
1623756336.84375,-1.14,0.206245,34.21,1893984.0
1623756336.859375,0.08,0.206245,34.21,1892350.0
1623756336.875,0.05,0.206245,34.21,1891347.0
1623756336.890625,-0.8,0.202402,34.21,1890158.0
1623756336.90625,-1.83,0.202402,34.21,1889608.0
1623756336.921875,-2.41,0.202402,34.18,1889062.0
1623756336.9375,-2.08,0.204964,34.18,1888318.0
1623756336.953125,-0.71,0.206245,34.18,1888236.0
1623756336.96875,1.48,0.206245,34.18,1886974.0
1623756336.984375,4.02,0.204964,34.21,1885318.0
1623756337.0,6.41,0.203683,34.21,1883366.0
1623756337.015625,8.34,0.203683,34.21,1881488.0
1623756337.03125,9.74,0.206245,34.21,1880093.0
1623756337.046875,10.73,0.207526,34.23,1879383.0
1623756337.0625,11.45,0.207526,34.23,1878739.0
1623756337.078125,11.9,0.206245,34.23,1878081.0
1623756337.09375,11.95,0.203683,34.23,1876801.0
1623756337.109375,11.46,0.204964,34.21,1876274.0
1623756337.125,10.44,0.202402,34.21,1875553.0
1623756337.140625,9.19,0.206245,34.21,1874534.0
1623756337.15625,8.19,0.206245,34.21,1873395.0
1623756337.171875,7.88,0.204964,34.21,1873052.0
1623756337.1875,8.42,0.202402,34.21,1873326.0
1623756337.203125,9.55,0.202402,34.21,1873287.0
1623756337.21875,10.72,0.202402,34.21,1873962.0
1623756337.234375,11.3,0.204964,34.21,1872601.0
1623756337.25,10.96,0.207526,34.21,1870788.0
1623756337.265625,9.73,0.206245,34.21,1868217.0
1623756337.28125,7.96,0.204964,34.21,1866409.0
1623756337.296875,6.09,0.203683,34.23,1865400.0
1623756337.3125,4.37,0.203683,34.23,1864537.0
1623756337.328125,2.74,0.207526,34.23,1864223.0
1623756337.34375,0.87,0.206245,34.23,1863677.0
1623756337.359375,-1.58,0.208807,34.18,1863283.0
1623756337.375,-4.78,0.208807,34.18,1862990.0
1623756337.390625,-8.55,0.204964,34.18,1862605.0
1623756337.40625,-12.46,0.206245,34.18,1862780.0
1623756337.421875,-15.97,0.207526,34.21,1862378.0
1623756337.4375,-18.62,0.206245,34.21,1862112.0
1623756337.453125,-20.17,0.208807,34.21,1861642.0
1623756337.46875,-20.58,0.206245,34.21,1861324.0
1623756337.484375,-19.91,0.204964,34.18,1861448.0
1623756337.5,-18.31,0.203683,34.18,1861721.0
1623756337.515625,-15.92,0.203683,34.18,1861849.0
1623756337.53125,-12.91,0.207526,34.18,1860808.0
1623756337.546875,-9.49,0.208807,34.21,1859581.0
1623756337.5625,-5.95,0.207526,34.21,1858209.0
1623756337.578125,-2.56,0.207526,34.21,1856824.0
1623756337.59375,0.42,0.206245,34.21,1855391.0
1623756337.609375,2.85,0.206245,34.23,1853897.0
1623756337.625,4.72,0.210088,34.23,1853400.0
1623756337.640625,6.19,0.211369,34.23,1852780.0
1623756337.65625,7.54,0.211369,34.23,1852504.0
1623756337.671875,9.0,0.21265,34.21,1852201.0
1623756337.6875,10.71,0.210088,34.21,1851831.0
1623756337.703125,12.57,0.211369,34.21,1851786.0
1623756337.71875,14.31,0.210088,34.21,1852230.0
1623756337.734375,15.6,0.21265,34.21,1853068.0
1623756337.75,16.2,0.21265,34.21,1853337.0
1623756337.765625,16.14,0.213931,34.21,1854118.0
1623756337.78125,15.69,0.21265,34.21,1854034.0
1623756337.796875,15.21,0.210088,34.18,1854281.0
1623756337.8125,15.0,0.208807,34.18,1854668.0
1623756337.828125,15.1,0.211369,34.18,1855600.0
1623756337.84375,15.29,0.211369,34.18,1856042.0
1623756337.859375,15.26,0.210088,34.21,1855730.0
1623756337.875,14.76,0.210088,34.21,1855267.0
1623756337.890625,13.68,0.207526,34.21,1854553.0
1623756337.90625,12.05,0.207526,34.21,1853495.0
1623756337.921875,10.01,0.206245,34.21,1853062.0
1623756337.9375,7.64,0.210088,34.21,1853362.0
1623756337.953125,5.05,0.210088,34.21,1853062.0
1623756337.96875,2.33,0.207526,34.21,1853470.0
1623756337.984375,-0.35,0.207526,34.21,1853575.0
1623756338.0,-2.88,0.206245,34.21,1853966.0
1623756338.015625,-5.22,0.207526,34.21,1854475.0
1623756338.03125,-7.48,0.210088,34.21,1855130.0
1623756338.046875,-9.87,0.208807,34.23,1855391.0
1623756338.0625,-12.49,0.208807,34.23,1856272.0
1623756338.078125,-15.22,0.204964,34.23,1856901.0
1623756338.09375,-17.68,0.208807,34.23,1857547.0
1623756338.109375,-19.42,0.204964,34.18,1858257.0
1623756338.125,-20.12,0.207526,34.18,1859327.0
1623756338.140625,-19.75,0.208807,34.18,1860096.0
1623756338.15625,-18.61,0.207526,34.18,1860973.0
1623756338.171875,-17.1,0.206245,34.21,1860558.0
1623756338.1875,-15.49,0.206245,34.21,1860605.0
1623756338.203125,-13.79,0.207526,34.21,1859822.0
1623756338.21875,-11.78,0.208807,34.21,1859682.0
1623756338.234375,-9.21,0.21265,34.18,1859682.0
1623756338.25,-5.94,0.210088,34.18,1860216.0
1623756338.265625,-2.15,0.208807,34.18,1860105.0
1623756338.28125,1.85,0.207526,34.18,1860050.0
1623756338.296875,5.67,0.207526,34.18,1860080.0
1623756338.3125,8.96,0.210088,34.18,1860080.0
1623756338.328125,11.57,0.210088,34.18,1859961.0
1623756338.34375,13.44,0.210088,34.18,1859925.0
1623756338.359375,14.57,0.207526,34.18,1859958.0
1623756338.375,15.04,0.207526,34.18,1859676.0
1623756338.390625,15.02,0.207526,34.18,1860395.0
1623756338.40625,14.79,0.210088,34.18,1860601.0
1623756338.421875,14.61,0.208807,34.21,1860894.0
1623756338.4375,14.66,0.207526,34.21,1860993.0
1623756338.453125,14.93,0.206245,34.21,1861902.0
1623756338.46875,15.25,0.207526,34.21,1863119.0
1623756338.484375,15.43,0.208807,34.21,1863128.0
1623756338.5,15.31,0.210088,34.21,1862287.0
1623756338.515625,14.86,0.210088,34.21,1859014.0
1623756338.53125,14.08,0.206245,34.21,1857452.0
1623756338.546875,12.91,0.206245,34.16,1860067.0
1623756338.5625,11.25,0.204964,34.16,1865187.0
1623756338.578125,9.0,0.21265,34.16,1875219.0
1623756338.59375,6.23,0.208807,34.16,1886694.0
1623756338.609375,3.28,0.216493,34.18,1885547.0
1623756338.625,0.64,0.21265,34.18,1873844.0
1623756338.640625,-1.23,0.213931,34.18,1871262.0
1623756338.65625,-2.13,0.213931,34.18,1875210.0
1623756338.671875,-2.26,0.217774,34.18,1879359.0
1623756338.6875,-2.05,0.217774,34.18,1881300.0
1623756338.703125,-2.02,0.215212,34.18,1882943.0
1623756338.71875,-2.5,,,1883553.0
1623756338.734375,-3.61,,,1882900.0
1623756338.75,-5.32,,,1880169.0
1623756338.765625,-7.5,,,1877817.0
1623756338.78125,-10.02,,,1877005.0
1623756338.796875,-12.62,,,1876895.0
1623756338.8125,-14.98,,,1876500.0
1623756338.828125,-16.58,,,1876372.0
1623756338.84375,-16.95,,,1876714.0
1623756338.859375,-15.8,,,1876224.0
1623756338.875,-13.21,,,1875550.0
1623756338.890625,-9.59,,,1874644.0
1623756338.90625,-5.57,,,1873787.0
1623756338.921875,-1.69,,,1873750.0
1623756338.9375,1.69,,,1873628.0
1623756338.953125,4.49,,,1873907.0
1623756338.96875,6.75,,,1874342.0
1623756338.984375,8.51,,,1873633.0
1623756339.0,9.71,,,1871968.0
1623756339.015625,10.18,,,1870750.0
1623756339.03125,9.84,,,1870074.0
1623756339.046875,8.76,,,1869497.0
1623756339.0625,7.2,,,1869304.0
1623756339.078125,5.52,,,1869418.0
1623756339.09375,4.04,,,1869441.0
1623756339.109375,3.0,,,1869102.0
1623756339.125,2.45,,,1869133.0
1623756339.140625,2.35,,,1869303.0
1623756339.15625,2.53,,,1869603.0
1623756339.171875,2.83,,,1869787.0
1623756339.1875,3.0,,,1870613.0
1623756339.203125,2.86,,,1871131.0
1623756339.21875,2.27,,,1871195.0
1623756339.234375,1.27,,,1870362.0
1623756339.25,0.04,,,1869617.0
1623756339.265625,-1.17,,,1868921.0
1623756339.28125,-2.18,,,1868290.0
1623756339.296875,-2.97,,,1867507.0
1623756339.3125,-3.67,,,1867236.0
1623756339.328125,-4.59,,,1867274.0
1623756339.34375,-6.03,,,1867120.0
1623756339.359375,-8.18,,,1866795.0
1623756339.375,-11.03,,,1866838.0
1623756339.390625,-14.42,,,1866303.0
1623756339.40625,-18.08,,,1866260.0
1623756339.421875,-21.83,,,1866300.0
1623756339.4375,-25.59,,,1866068.0
1623756339.453125,-29.31,,,1866349.0
1623756339.46875,-32.87,,,1865855.0
1623756339.484375,-35.93,,,1864910.0
1623756339.5,-38.07,,,1863931.0
1623756339.515625,-38.92,,,1863129.0
1623756339.53125,-38.4,,,1862569.0
1623756339.546875,-36.8,,,1862118.0
1623756339.5625,-34.55,,,1862130.0
1623756339.578125,-31.99,,,1861849.0
1623756339.59375,-29.06,,,1861276.0
1623756339.609375,-25.43,,,1861092.0
1623756339.625,-20.81,,,1861046.0
1623756339.640625,-15.36,,,1860739.0
1623756339.65625,-9.86,,,1860968.0
1623756339.671875,-5.47,,,1860726.0
1623756339.6875,-3.15,,,1860508.0
1623756339.703125,-3.13,,,1860760.0
1623756339.71875,-4.75,,,1860532.0
1623756339.734375,-6.67,,,1859444.0
1623756339.75,-7.46,,,1858538.0
1623756339.765625,-6.24,,,1858538.0
1623756339.78125,-2.95,,,1857755.0
1623756339.796875,1.58,,,1856706.0
1623756339.8125,6.13,,,1856241.0
1623756339.828125,9.5,,,1856416.0
1623756339.84375,11.07,,,1856004.0
1623756339.859375,10.91,,,1855426.0
1623756339.875,9.64,,,1854966.0
1623756339.890625,8.09,,,1854854.0
1623756339.90625,6.92,,,1854244.0
1623756339.921875,6.42,,,1854754.0
1623756339.9375,6.55,,,1854295.0
1623756339.953125,7.2,,,1854805.0
1623756339.96875,8.38,,,1854696.0
1623756339.984375,10.3,,,1854337.0
1623756340.0,13.15,,,1853754.0
1623756340.015625,16.78,,,1852415.0
1623756340.03125,20.51,,,1851565.0
1623756340.046875,23.25,,,1850105.0
1623756340.0625,23.93,,,1849191.0
1623756340.078125,22.07,,,1848559.0
1623756340.09375,18.08,,,1847920.0
1623756340.109375,13.13,,,1847710.0
1623756340.125,8.66,,,1847316.0
1623756340.140625,5.67,,,1847407.0
1623756340.15625,4.26,,,1846978.0
1623756340.171875,3.75,,,1847321.0
1623756340.1875,3.06,,,1847347.0
1623756340.203125,1.37,,,1847735.0
1623756340.21875,-1.5,,,1847862.0
1623756340.234375,-5.08,,,1847661.0
1623756340.25,-8.55,,,1846848.0
1623756340.265625,-11.23,,,1845933.0
1623756340.28125,-12.75,,,1845262.0
1623756340.296875,-13.07,,,1844414.0
1623756340.3125,-12.25,,,1843809.0
1623756340.328125,-10.33,,,1843439.0
1623756340.34375,-7.34,,,1843261.0
1623756340.359375,-3.35,,,1842987.0
1623756340.375,1.4,,,1842475.0
1623756340.390625,6.53,,,1842386.0
1623756340.40625,11.58,,,1842333.0
1623756340.421875,16.16,,,1842345.0
1623756340.4375,20.01,,,1842432.0
1623756340.453125,23.09,,,1842514.0
1623756340.46875,25.55,,,1842958.0
1623756340.484375,27.64,,,1843263.0
1623756340.5,29.49,,,1843455.0
1623756340.515625,31.07,,,1843470.0
1623756340.53125,32.34,,,1842782.0
1623756340.546875,33.68,,,1841997.0
1623756340.5625,36.22,,,1841324.0
1623756340.578125,41.55,,,1840898.0
1623756340.59375,50.77,,,1840443.0
1623756340.609375,63.37,,,1840493.0
1623756340.625,76.64,,,1840891.0
1623756340.640625,86.38,,,1840982.0
1623756340.65625,88.58,,,1840050.0
1623756340.671875,81.37,,,1839632.0
1623756340.6875,65.99,,,1839556.0
1623756340.703125,46.23,,,1839640.0
1623756340.71875,26.51,,,1839904.0
1623756340.734375,9.95,,,1840651.0
1623756340.75,-2.79,,,1840848.0
1623756340.765625,-13.06,,,1840858.0
1623756340.78125,-22.95,,,1840852.0
1623756340.796875,-33.88,,,1840979.0
1623756340.8125,-45.95,,,1840286.0
1623756340.828125,-58.16,,,1839014.0
1623756340.84375,-69.07,,,1837158.0
1623756340.859375,-77.46,,,1836064.0
1623756340.875,-82.57,,,1835302.0
1623756340.890625,-84.12,,,1834643.0
1623756340.90625,-82.24,,,1834746.0
1623756340.921875,-77.36,,,1834597.0
1623756340.9375,-70.19,,,1834296.0
1623756340.953125,-61.53,,,1834268.0
1623756340.96875,-52.22,,,1833894.0
1623756340.984375,-43.03,,,1833462.0
1623756341.0,-34.56,,,1833731.0
1623756341.015625,-27.3,,,1833858.0
1623756341.03125,-21.54,,,1834352.0
1623756341.046875,-17.31,,,1834357.0
1623756341.0625,-14.3,,,1834118.0
1623756341.078125,-11.94,,,1833884.0
1623756341.09375,-9.48,,,1833080.0
1623756341.109375,-6.32,,,1831912.0
1623756341.125,-2.25,,,1831417.0
1623756341.140625,2.42,,,1831150.0
1623756341.15625,6.96,,,1831283.0
1623756341.171875,10.59,,,1830896.0
1623756341.1875,12.8,,,1830779.0
1623756341.203125,13.71,,,1830378.0
1623756341.21875,14.0,,,1830397.0
1623756341.234375,14.67,,,1830509.0
1623756341.25,16.55,,,1830237.0
1623756341.265625,19.88,,,1830371.0
1623756341.28125,24.27,,,1830860.0
1623756341.296875,28.85,,,1830906.0
1623756341.3125,32.73,,,1831328.0
1623756341.328125,35.31,,,1831873.0
1623756341.34375,36.46,,,1831785.0
1623756341.359375,36.43,,,1831214.0
1623756341.375,35.6,,,1830671.0
1623756341.390625,34.31,,,1830235.0
1623756341.40625,32.8,,,1829818.0
1623756341.421875,31.26,,,1829803.0
1623756341.4375,29.82,,,1829969.0
1623756341.453125,28.51,,,1830143.0
1623756341.46875,27.18,,,1830142.0
1623756341.484375,25.52,,,1830414.0
1623756341.5,23.18,,,1830421.0
1623756341.515625,19.93,,,1831116.0
1623756341.53125,15.86,,,1831510.0
1623756341.546875,11.32,,,1832281.0
1623756341.5625,6.79,,,1832882.0
1623756341.578125,2.57,,,1833560.0
1623756341.59375,-1.19,,,1834344.0
1623756341.609375,-4.54,,,1834800.0
1623756341.625,-7.49,,,1834970.0
1623756341.640625,-9.89,,,1834490.0
1623756341.65625,-11.43,,,1834350.0
1623756341.671875,-11.82,,,1834191.0
1623756341.6875,-11.02,,,1834382.0
1623756341.703125,-9.27,,,1834203.0
1623756341.71875,-7.0,,,1834307.0
1623756341.734375,-4.61,,,1834552.0
1623756341.75,-2.32,,,1834975.0
1623756341.765625,-0.2,,,1835337.0
1623756341.78125,1.79,,,1835685.0
1623756341.796875,3.63,,,1836678.0
1623756341.8125,5.21,,,1837103.0
1623756341.828125,6.39,,,1837678.0
1623756341.84375,7.06,,,1838304.0
1623756341.859375,7.23,,,1839191.0
1623756341.875,6.95,,,1839798.0
1623756341.890625,6.31,,,1840184.0
1623756341.90625,5.37,,,1840460.0
1623756341.921875,4.19,,,1840265.0
1623756341.9375,2.89,,,1839720.0
1623756341.953125,1.67,,,1839486.0
1623756341.96875,0.69,,,1839169.0
1623756341.984375,-0.02,,,1839442.0
1623756342.0,-0.64,,,1839046.0
1623756342.015625,-1.51,,,1838714.0
1623756342.03125,-2.99,,,1838542.0
1623756342.046875,-5.23,,,1838293.0
1623756342.0625,-8.18,,,1838207.0
1623756342.078125,-11.56,,,1838187.0
1623756342.09375,-15.06,,,1838446.0
1623756342.109375,-18.51,,,1838883.0
1623756342.125,-21.93,,,1839232.0
1623756342.140625,-25.52,,,1839521.0
1623756342.15625,-29.49,,,1839979.0
1623756342.171875,-34.02,,,1839574.0
1623756342.1875,-39.14,,,1839116.0
1623756342.203125,-44.78,,,1838609.0
1623756342.21875,-50.82,,,1838504.0
1623756342.234375,-57.15,,,1838354.0
1623756342.25,-63.67,,,1838272.0
1623756342.265625,-70.36,,,1838637.0
1623756342.28125,-77.19,,,1838886.0
1623756342.296875,-84.19,,,1839028.0
1623756342.3125,-91.27,,,1839268.0
1623756342.328125,-98.11,,,1839718.0
1623756342.34375,-103.95,,,1840164.0
1623756342.359375,-107.52,,,1840699.0
1623756342.375,-107.15,,,1841237.0
1623756342.390625,-101.16,,,1841834.0
1623756342.40625,-88.56,,,1842355.0
1623756342.421875,-69.55,,,1842868.0
1623756342.4375,-45.73,,,1842596.0
1623756342.453125,-19.8,,,1841812.0
1623756342.46875,5.2,,,1841712.0
1623756342.484375,26.72,,,1841538.0
1623756342.5,43.35,,,1841481.0
1623756342.515625,55.1,,,1841942.0
1623756342.53125,63.05,,,1842254.0
1623756342.546875,68.88,,,1842270.0
1623756342.5625,74.33,,,1842566.0
1623756342.578125,80.88,,,1843026.0
1623756342.59375,89.36,,,1843187.0
1623756342.609375,99.61,,,1843785.0
1623756342.625,110.26,,,1844111.0
1623756342.640625,118.95,,,1844948.0
1623756342.65625,123.08,,,1845748.0
1623756342.671875,121.07,,,1846309.0
1623756342.6875,113.09,,,1846453.0
1623756342.703125,101.12,,,1845973.0
1623756342.71875,87.91,,,1845773.0
1623756342.734375,75.72,,,1845523.0
1623756342.75,65.35,,,1845523.0
1623756342.765625,56.12,,,1845353.0
1623756342.78125,46.96,,,1845643.0
1623756342.796875,37.48,,,1845904.0
1623756342.8125,28.53,,,1845913.0
1623756342.828125,21.72,,,1846290.0
1623756342.84375,18.25,,,1846417.0
1623756342.859375,17.93,,,1846806.0
1623756342.875,19.02,,,1847412.0
1623756342.890625,19.11,,,1847650.0
1623756342.90625,16.31,,,1848130.0
1623756342.921875,10.19,,,1848930.0
1623756342.9375,1.82,,,1849147.0
1623756342.953125,-6.94,,,1849782.0
1623756342.96875,-14.35,,,1849596.0
1623756342.984375,-19.51,,,1849779.0
1623756343.0,-22.49,,,1849067.0
1623756343.015625,-24.08,,,1848263.0
1623756343.03125,-25.19,,,1848334.0
1623756343.046875,-26.45,,,1848032.0
1623756343.0625,-27.95,,,1847937.0
1623756343.078125,-29.42,,,1848186.0
1623756343.09375,-30.44,,,1848291.0
1623756343.109375,-30.75,,,1848463.0
1623756343.125,-30.39,,,1848849.0
1623756343.140625,-29.6,,,1849008.0
1623756343.15625,-28.71,,,1848917.0
1623756343.171875,-27.89,,,1849599.0
1623756343.1875,-27.04,,,1849999.0
1623756343.203125,-25.87,,,1850502.0
1623756343.21875,-23.97,,,1850766.0
1623756343.234375,-21.09,,,1850579.0
1623756343.25,-17.17,,,1850376.0
1623756343.265625,-12.38,,,1849709.0
1623756343.28125,-6.96,,,1849164.0
1623756343.296875,-1.16,,,1849078.0
1623756343.3125,4.89,,,1849171.0
1623756343.328125,11.01,,,1849096.0
1623756343.34375,16.94,,,1849195.0
1623756343.359375,22.21,,,1849048.0
1623756343.375,26.3,,,1849488.0
1623756343.390625,28.85,,,1849656.0
1623756343.40625,29.82,,,1849745.0
1623756343.421875,29.59,,,1850374.0
1623756343.4375,28.74,,,1850846.0
1623756343.453125,27.85,,,1851161.0
1623756343.46875,27.15,,,1851585.0
1623756343.484375,26.51,,,1852099.0
1623756343.5,25.6,,,1852056.0
1623756343.515625,24.15,,,1851417.0
1623756343.53125,22.11,,,1850736.0
1623756343.546875,19.64,,,1850134.0
1623756343.5625,17.05,,,1849656.0
1623756343.578125,14.62,,,1849551.0
1623756343.59375,12.56,,,1849588.0
1623756343.609375,10.96,,,1849356.0
1623756343.625,9.78,,,1849630.0
1623756343.640625,8.64,,,1849534.0
1623756343.65625,6.88,,,1849558.0
1623756343.671875,3.69,,,1849964.0
1623756343.6875,-1.52,,,1850280.0
1623756343.703125,-8.68,,,1850627.0
1623756343.71875,-16.92,,,1851166.0
1623756343.734375,-24.81,,,1851986.0
1623756343.75,-30.94,,,1852079.0
1623756343.765625,-34.58,,,1852422.0
1623756343.78125,-35.88,,,1851738.0
1623756343.796875,-35.75,,,1851005.0
1623756343.8125,-35.25,,,1850432.0
1623756343.828125,-35.12,,,1849835.0
1623756343.84375,-35.45,,,1849308.0
1623756343.859375,-35.84,,,1848970.0
1623756343.875,-35.79,,,1849007.0
1623756343.890625,-34.9,,,1848786.0
1623756343.90625,-32.98,,,1848412.0
1623756343.921875,-29.96,,,1848536.0
1623756343.9375,-25.76,,,1848024.0
1623756343.953125,-20.32,,,1848096.0
1623756343.96875,-13.76,,,1848015.0
1623756343.984375,-6.54,,,1848109.0
1623756344.0,0.53,,,1848355.0
1623756344.015625,6.51,,,1848491.0
1623756344.03125,10.74,,,1848510.0
1623756344.046875,13.09,,,1847781.0
1623756344.0625,14.05,,,1847109.0
1623756344.078125,14.51,,,1846180.0
1623756344.09375,15.31,,,1845542.0
1623756344.109375,16.79,,,1845708.0
1623756344.125,18.72,,,1845293.0
1623756344.140625,20.42,,,1845236.0
1623756344.15625,21.12,,,1844926.0
1623756344.171875,20.43,,,1845003.0
1623756344.1875,18.42,,,1845069.0
1623756344.203125,15.6,,,1845157.0
1623756344.21875,12.54,,,1845400.0
1623756344.234375,9.67,,,1845607.0
1623756344.25,7.21,,,1846107.0
1623756344.265625,5.2,,,1846524.0
1623756344.28125,3.64,,,1846841.0
1623756344.296875,2.49,,,1846673.0
1623756344.3125,1.61,,,1846185.0
1623756344.328125,0.72,,,1845301.0
1623756344.34375,-0.5,,,1844631.0
1623756344.359375,-2.09,,,1844249.0
1623756344.375,-3.72,,,1844106.0
1623756344.390625,-4.74,,,1843842.0
1623756344.40625,-4.48,,,1843792.0
1623756344.421875,-2.71,,,1843432.0
1623756344.4375,0.21,,,1843419.0
1623756344.453125,3.43,,,1843379.0
1623756344.46875,6.01,,,1843344.0
1623756344.484375,7.5,,,1843410.0
1623756344.5,8.04,,,1843931.0
1623756344.515625,8.42,,,1844323.0
1623756344.53125,9.54,,,1844585.0
1623756344.546875,12.05,,,1844604.0
1623756344.5625,15.98,,,1844418.0
1623756344.578125,20.61,,,1843959.0
1623756344.59375,24.73,,,1842919.0
1623756344.609375,26.89,,,1842108.0
1623756344.625,26.0,,,1841639.0
1623756344.640625,21.82,,,1841633.0
1623756344.65625,15.21,,,1841530.0
1623756344.671875,8.02,,,1841353.0
1623756344.6875,2.61,,,1841239.0
1623756344.703125,0.88,,,1841121.0
1623756344.71875,3.56,,,1841104.0
1623756344.734375,9.76,,,1840962.0
1623756344.75,17.21,,,1841151.0
1623756344.765625,23.01,,,1841147.0
1623756344.78125,24.59,,,1841262.0
1623756344.796875,20.65,,,1841333.0
1623756344.8125,11.45,,,1841400.0
1623756344.828125,-1.28,,,1841339.0
1623756344.84375,-15.03,,,1840713.0
1623756344.859375,-27.23,,,1840102.0
1623756344.875,-35.9,,,1838990.0
1623756344.890625,-40.0,,,1838119.0
1623756344.90625,-39.34,,,1837816.0
1623756344.921875,-34.5,,,1837600.0
1623756344.9375,-26.62,,,1837192.0
1623756344.953125,-17.24,,,1836848.0
1623756344.96875,-8.15,,,1836684.0
1623756344.984375,-1.07,,,1836543.0
1623756345.0,2.78,,,1836468.0
1623756345.015625,2.88,,,1836773.0
1623756345.03125,-0.41,,,1836992.0
1623756345.046875,-6.23,,,1837284.0
1623756345.0625,-13.6,,,1837679.0
1623756345.078125,-21.74,,,1838059.0
1623756345.09375,-30.05,,,1838260.0
1623756345.109375,-37.8,,,1837618.0
1623756345.125,-43.96,,,1837128.0
1623756345.140625,-47.19,,,1836071.0
1623756345.15625,-46.36,,,1836071.0
1623756345.171875,-41.2,,,1835360.0
1623756345.1875,-32.76,,,1834462.0
1623756345.203125,-23.12,,,1834148.0
1623756345.21875,-14.66,,,1833890.0
1623756345.234375,-8.94,,,1833961.0
1623756345.25,-5.99,,,1833654.0
1623756345.265625,-4.42,,,1833714.0
1623756345.28125,-2.2,,,1833777.0
1623756345.296875,2.05,,,1834376.0
1623756345.3125,8.13,,,1834547.0
1623756345.328125,14.14,,,1834716.0
1623756345.34375,17.35,,,1835514.0
1623756345.359375,15.57,,,1835847.0
1623756345.375,8.43,,,1836457.0
1623756345.390625,-2.19,,,1837140.0
1623756345.40625,-12.83,,,1836928.0
1623756345.421875,-19.93,,,1836734.0
1623756345.4375,-21.16,,,1835893.0
1623756345.453125,-16.0,,,1835022.0
1623756345.46875,-5.47,,,1834662.0
1623756345.484375,8.6,,,1834666.0
1623756345.5,23.96,,,1834708.0
1623756345.515625,38.0,,,1834682.0
1623756345.53125,47.89,,,1834778.0
1623756345.546875,51.27,,,1834894.0
1623756345.5625,47.59,,,1835080.0
1623756345.578125,39.2,,,1835266.0
1623756345.59375,31.15,,,1836062.0
1623756345.609375,29.33,,,1834621.0
1623756345.625,37.56,,,1836449.0
1623756345.640625,55.38,,,1836145.0
1623756345.65625,77.85,,,1835743.0
1623756345.671875,97.65,,,1836740.0
1623756345.6875,108.25,,,1835752.0
1623756345.703125,106.45,,,1835086.0
1623756345.71875,92.94,,,1835737.0
1623756345.734375,71.09,,,1834736.0
1623756345.75,44.86,,,1834482.0
1623756345.765625,17.5,,,1834923.0
1623756345.78125,-8.79,,,1834916.0
1623756345.796875,-32.3,,,1835050.0
1623756345.8125,-51.36,,,1834973.0
1623756345.828125,-64.46,,,1834897.0
1623756345.84375,-70.65,,,1835469.0
1623756345.859375,-70.16,,,1835600.0
1623756345.875,-64.47,,,1835709.0
1623756345.890625,-55.85,,,1836123.0
1623756345.90625,-46.75,,,1836540.0
1623756345.921875,-39.13,,,1836682.0
1623756345.9375,-34.05,,,1836868.0
1623756345.953125,-31.5,,,1836211.0
1623756345.96875,-30.63,,,1835514.0
1623756345.984375,-30.07,,,1834719.0
1623756346.0,-28.6,,,1833976.0
1623756346.015625,-25.61,,,1833605.0
1623756346.03125,-21.34,,,1833380.0
1623756346.046875,-16.76,,,1833433.0
1623756346.0625,-13.05,,,1833685.0
1623756346.078125,-11.07,,,1833214.0
1623756346.09375,-10.96,,,1833660.0
1623756346.109375,-12.22,,,1833639.0
1623756346.125,-13.95,,,1834082.0
1623756346.140625,-15.28,,,1834462.0
1623756346.15625,-15.7,,,1834736.0
1623756346.171875,-15.14,,,1835525.0
1623756346.1875,-13.95,,,1835510.0
1623756346.203125,-12.64,,,1835933.0
1623756346.21875,-11.78,,,1835738.0
1623756346.234375,-11.74,,,1835269.0
1623756346.25,-12.65,,,1835875.0
1623756346.265625,-14.35,,,1834662.0
1623756346.28125,-16.5,,,1834860.0
1623756346.296875,-18.68,,,1835114.0
1623756346.3125,-20.61,,,1834746.0
1623756346.328125,-22.12,,,1835514.0
1623756346.34375,-23.18,,,1835521.0
1623756346.359375,-23.74,,,1835588.0
1623756346.375,-23.68,,,1836110.0
1623756346.390625,-22.82,,,1836499.0
1623756346.40625,-21.03,,,1837001.0
1623756346.421875,-18.31,,,1838465.0
1623756346.4375,-14.82,,,1839086.0
1623756346.453125,-10.79,,,1837920.0
1623756346.46875,-6.42,,,1839883.0
1623756346.484375,-1.84,,,1840469.0
1623756346.5,2.9,,,1840258.0
1623756346.515625,7.74,,,1840140.0
1623756346.53125,12.57,,,1839694.0
1623756346.546875,17.21,,,1839233.0
1623756346.5625,21.46,,,1839525.0
1623756346.578125,25.08,,,1839422.0
1623756346.59375,27.79,,,1839904.0
1623756346.609375,29.36,,,1839927.0
1623756346.625,29.66,,,1840209.0
1623756346.640625,28.79,,,1840452.0
1623756346.65625,27.1,,,1840812.0
1623756346.671875,25.13,,,1841136.0
1623756346.6875,23.41,,,1841329.0
1623756346.703125,22.29,,,1842298.0
1623756346.71875,21.79,,,1842522.0
1623756346.734375,21.71,,,1843167.0
1623756346.75,21.72,,,1843763.0
1623756346.765625,21.62,,,1843974.0
1623756346.78125,21.31,,,1843621.0
1623756346.796875,20.78,,,1843539.0
1623756346.8125,20.02,,,1843106.0
1623756346.828125,18.93,,,1843376.0
1623756346.84375,17.37,,,1843573.0
1623756346.859375,15.23,,,1844184.0
1623756346.875,12.59,,,1844279.0
1623756346.890625,9.69,,,1844855.0
1623756346.90625,6.9,,,1845568.0
1623756346.921875,4.58,,,1846159.0
1623756346.9375,2.89,,,1847256.0
1623756346.953125,1.71,,,1848103.0
1623756346.96875,0.67,,,1848744.0
1623756346.984375,-0.63,,,1849725.0
1623756347.0,-2.46,,,1850614.0
1623756347.015625,-4.69,,,1851541.0
1623756347.03125,-6.89,,,1852239.0
1623756347.046875,-8.43,,,1852450.0
1623756347.0625,-8.81,,,1852935.0
1623756347.078125,-7.77,,,1853156.0
1623756347.09375,-5.41,,,1853530.0
1623756347.109375,-2.1,,,1854297.0
1623756347.125,1.69,,,1855019.0
1623756347.140625,5.48,,,1855747.0
1623756347.15625,8.94,,,1856207.0
1623756347.171875,11.86,,,1856973.0
1623756347.1875,14.2,,,1857759.0
1623756347.203125,16.14,,,1858686.0
1623756347.21875,17.86,,,1859258.0
1623756347.234375,19.56,,,1860383.0
1623756347.25,21.22,,,1861020.0
1623756347.265625,22.58,,,1862017.0
1623756347.28125,23.22,,,1862942.0
1623756347.296875,22.8,,,1863017.0
1623756347.3125,21.21,,,1863091.0
1623756347.328125,18.72,,,1862888.0
1623756347.34375,15.97,,,1862601.0
1623756347.359375,13.71,,,1862547.0
1623756347.375,12.54,,,1862978.0
1623756347.390625,12.7,,,1863223.0
1623756347.40625,13.86,,,1863663.0
1623756347.421875,15.23,,,1864060.0
1623756347.4375,15.82,,,1864467.0
1623756347.453125,14.8,,,1864814.0
1623756347.46875,11.93,,,1865284.0
1623756347.484375,7.83,,,1866020.0
1623756347.5,3.76,,,1866818.0
1623756347.515625,1.25,,,1868008.0
1623756347.53125,1.44,,,1869225.0
1623756347.546875,4.58,,,1870100.0
1623756347.5625,9.8,,,1870883.0
1623756347.578125,15.41,,,1871208.0
1623756347.59375,19.47,,,1871158.0
1623756347.609375,20.44,,,1871145.0
1623756347.625,17.67,,,1871256.0
1623756347.640625,11.6,,,1871841.0
1623756347.65625,3.5,,,1872580.0
1623756347.671875,-4.99,,,1873418.0
1623756347.6875,-12.43,,,1873418.0
1623756347.703125,-17.97,,,1874159.0
1623756347.71875,-21.5,,,1873951.0
1623756347.734375,-23.45,,,1874417.0
1623756347.75,-24.49,,,1874309.0
1623756347.765625,-25.18,,,1874798.0
1623756347.78125,-25.88,,,1875793.0
1623756347.796875,-26.78,,,1876532.0
1623756347.8125,-27.99,,,1877270.0
1623756347.828125,-29.55,,,1877579.0
1623756347.84375,-31.36,,,1877077.0
1623756347.859375,-33.01,,,1876320.0
1623756347.875,-33.73,,,1875109.0
1623756347.890625,-32.62,,,1874383.0
1623756347.90625,-28.98,,,1874104.0
1623756347.921875,-22.7,,,1874007.0
1623756347.9375,-14.35,,,1873479.0
1623756347.953125,-5.1,,,1872308.0
1623756347.96875,3.7,,,1871871.0
1623756347.984375,10.89,,,1871683.0
1623756348.0,15.9,,,1871443.0
1623756348.015625,18.72,,,1871090.0
1623756348.03125,19.89,,,1871691.0
1623756348.046875,20.18,,,1872605.0
1623756348.0625,20.23,,,1874120.0
1623756348.078125,20.36,,,1875997.0
1623756348.09375,20.49,,,1876326.0
1623756348.109375,20.25,,,1877536.0
1623756348.125,19.22,,,1876209.0
1623756348.140625,17.13,,,1875262.0
1623756348.15625,13.99,,,1875284.0
1623756348.171875,10.05,,,1875138.0
1623756348.1875,5.68,,,1874382.0
1623756348.203125,1.25,,,1873870.0
1623756348.21875,-2.87,,,1873727.0
1623756348.234375,-6.33,,,1874013.0
1623756348.25,-8.84,,,1874726.0
1623756348.265625,-10.23,,,1875402.0
1623756348.28125,-10.59,,,1876452.0
1623756348.296875,-10.32,,,1877401.0
1623756348.3125,-9.97,,,1878322.0
1623756348.328125,-10.03,,,1879485.0
1623756348.34375,-10.7,,,1879512.0
1623756348.359375,-11.84,,,1878911.0
1623756348.375,-13.12,,,1878452.0
1623756348.390625,-14.28,,,1878049.0
1623756348.40625,-15.3,,,1877768.0
1623756348.421875,-16.37,,,1877822.0
1623756348.4375,-17.61,,,1878175.0
1623756348.453125,-18.88,,,1878513.0
1623756348.46875,-19.81,,,1878994.0
1623756348.484375,-19.96,,,1879597.0
1623756348.5,-19.11,,,1879864.0
1623756348.515625,-17.46,,,1880062.0
1623756348.53125,-15.51,,,1879986.0
1623756348.546875,-13.68,,,1879987.0
1623756348.5625,-12.11,,,1880316.0
1623756348.578125,-10.51,,,1880649.0
1623756348.59375,-8.36,,,1880940.0
1623756348.609375,-5.37,,,1881552.0
1623756348.625,-1.67,,,1881592.0
1623756348.640625,2.15,,,1881636.0
1623756348.65625,5.3,,,1881580.0
1623756348.671875,7.25,,,1881682.0
1623756348.6875,7.93,,,1882149.0
1623756348.703125,7.71,,,1882132.0
1623756348.71875,7.13,,,1882845.0
1623756348.734375,6.61,,,1883604.0
1623756348.75,6.22,,,1885993.0
1623756348.765625,5.78,,,1892617.0
1623756348.78125,5.08,,,1894593.0
1623756348.796875,4.08,,,1888952.0
1623756348.8125,2.98,,,1888459.0
1623756348.828125,2.12,,,1890956.0
1623756348.84375,1.72,,,1894176.0
1623756348.859375,1.75,,,1895627.0
1623756348.875,2.0,,,1895123.0
1623756348.890625,2.17,,,1895032.0
1623756348.90625,2.1,,,1893430.0
1623756348.921875,1.77,,,1891798.0
1623756348.9375,1.23,,,1890141.0
1623756348.953125,0.52,,,1888688.0
1623756348.96875,-0.39,,,1888066.0
1623756348.984375,-1.57,,,1887428.0
1623756349.0,-2.96,,,1887423.0
1623756349.015625,-4.37,,,1887434.0
1623756349.03125,-5.56,,,1887115.0
1623756349.046875,-6.33,,,1887250.0
1623756349.0625,-6.68,,,1887775.0
1623756349.078125,-6.82,,,1887643.0
1623756349.09375,-7.08,,,1887778.0
1623756349.109375,-7.78,,,1887908.0
1623756349.125,-9.17,,,1887766.0
1623756349.140625,-11.32,,,1887576.0
1623756349.15625,-14.14,,,1888351.0
1623756349.171875,-17.32,,,1888490.0
1623756349.1875,-20.34,,,1888504.0
1623756349.203125,-22.57,,,1888449.0
1623756349.21875,-23.42,,,1888103.0
1623756349.234375,-22.59,,,1887697.0
1623756349.25,-20.16,,,1887154.0
1623756349.265625,-16.63,,,1887154.0
1623756349.28125,-12.63,,,1886763.0
1623756349.296875,-8.74,,,1886979.0
1623756349.3125,-5.25,,,1887468.0
1623756349.328125,-2.16,,,1887672.0
1623756349.34375,0.73,,,1887954.0
1623756349.359375,3.59,,,1888005.0
1623756349.375,6.39,,,1888618.0
1623756349.390625,8.92,,,1888803.0
1623756349.40625,10.83,,,1889285.0
1623756349.421875,11.81,,,1889925.0
1623756349.4375,11.73,,,1890517.0
1623756349.453125,10.74,,,1891151.0
1623756349.46875,9.28,,,1891770.0
1623756349.484375,7.95,,,1891945.0
1623756349.5,7.36,,,1891649.0
1623756349.515625,7.94,,,1891535.0
1623756349.53125,9.78,,,1891357.0
1623756349.546875,12.59,,,1890877.0
1623756349.5625,15.73,,,1891251.0
1623756349.578125,18.39,,,1891628.0
1623756349.59375,19.83,,,1891956.0
1623756349.609375,19.56,,,1892604.0
1623756349.625,17.49,,,1892569.0
1623756349.640625,14.06,,,1893120.0
1623756349.65625,10.09,,,1893324.0
1623756349.671875,6.55,,,1894088.0
1623756349.6875,4.29,,,1895009.0
1623756349.703125,3.67,,,1895842.0
1623756349.71875,4.44,,,1896539.0
1623756349.734375,5.88,,,1897103.0
1623756349.75,7.01,,,1897347.0
1623756349.765625,7.08,,,1897395.0
1623756349.78125,5.82,,,1897643.0
1623756349.796875,3.56,,,1897484.0
1623756349.8125,1.02,,,1896608.0
1623756349.828125,-0.94,,,1895668.0
1623756349.84375,-1.64,,,1894923.0
1623756349.859375,-0.76,,,1894934.0
1623756349.875,1.58,,,1894531.0
1623756349.890625,4.81,,,1894146.0
1623756349.90625,8.03,,,1893541.0
1623756349.921875,10.14,,,1893053.0
1623756349.9375,10.01,,,1892920.0
1623756349.953125,6.79,,,1892573.0
1623756349.96875,0.08,,,1892002.0
1623756349.984375,-9.83,,,1891450.0
1623756350.0,-21.9,,,1890762.0
1623756350.015625,-34.39,,,1891017.0
1623756350.03125,-45.08,,,1892086.0
1623756350.046875,-51.81,,,1893468.0
1623756350.0625,-53.03,,,1893627.0
1623756350.078125,-48.2,,,1893709.0
1623756350.09375,-37.99,,,1894541.0
1623756350.109375,-24.2,,,1893771.0
1623756350.125,-9.46,,,1894774.0
1623756350.140625,3.01,,,1894454.0
1623756350.15625,10.09,,,1894748.0
1623756350.171875,9.47,,,1895443.0
1623756350.1875,0.82,,,1895857.0
1623756350.203125,-13.36,,,1895920.0
1623756350.21875,-27.79,,,1896512.0
1623756350.234375,-35.79,,,1897212.0
1623756350.25,-31.74,,,1897985.0
1623756350.265625,-13.56,,,1899287.0
1623756350.28125,16.19,,,1899817.0
1623756350.296875,51.06,,,1900761.0
1623756350.3125,83.22,,,1901535.0
1623756350.328125,106.34,,,1901792.0
1623756350.34375,117.39,,,1901446.0
1623756350.359375,116.77,,,1901608.0
1623756350.375,107.04,,,1901273.0
1623756350.390625,91.17,,,1901879.0
1623756350.40625,71.57,,,1902258.0
1623756350.421875,49.96,,,1901361.0
1623756350.4375,27.89,,,1902353.0
1623756350.453125,7.12,,,1902871.0
1623756350.46875,-10.48,,,1903264.0
1623756350.484375,-23.4,,,1903857.0
1623756350.5,-31.28,,,1904505.0
1623756350.515625,-34.97,,,1905204.0
1623756350.53125,-36.33,,,1906036.0
1623756350.546875,-37.4,,,1906984.0
1623756350.5625,-39.7,,,1907897.0
1623756350.578125,-43.67,,,1908417.0
1623756350.59375,-48.67,,,1908701.0
1623756350.609375,-53.41,,,1909274.0
1623756350.625,-56.48,,,1909660.0
1623756350.640625,-56.94,,,1910670.0
1623756350.65625,-54.53,,,1911917.0
1623756350.671875,-49.68,,,1912101.0
1623756350.6875,-43.3,,,1909601.0
1623756350.703125,-36.46,,,1912487.0
1623756350.71875,-30.08,,,1913312.0
1623756350.734375,-24.69,,,1914086.0
1623756350.75,-20.31,,,1914987.0
1623756350.765625,-16.62,,,1915478.0
1623756350.78125,-13.16,,,1915404.0
1623756350.796875,-9.68,,,1915891.0
1623756350.8125,-6.39,,,1916046.0
1623756350.828125,-3.82,,,1916045.0
1623756350.84375,-2.57,,,1916202.0
1623756350.859375,-2.9,,,1916139.0
1623756350.875,-4.54,,,1915174.0
1623756350.890625,-6.78,,,1913971.0
1623756350.90625,-8.79,,,1913135.0
1623756350.921875,-10.0,,,1912163.0
1623756350.9375,-10.24,,,1911982.0
1623756350.953125,-9.75,,,1911372.0
1623756350.96875,-8.94,,,1910167.0
1623756350.984375,-8.16,,,1909544.0
1623756351.0,-7.62,,,1909381.0
1623756351.015625,-7.37,,,1911767.0
1623756351.03125,-7.36,,,1909431.0
1623756351.046875,-7.48,,,1910927.0
1623756351.0625,-7.62,,,1909237.0
1623756351.078125,-7.64,,,1909369.0
1623756351.09375,-7.5,,,1909547.0
1623756351.109375,-7.25,,,1909871.0
1623756351.125,-7.06,,,1909489.0
1623756351.140625,-7.14,,,1909008.0
1623756351.15625,-7.58,,,1908429.0
1623756351.171875,-8.3,,,1909021.0
1623756351.1875,-9.01,,,1908172.0
1623756351.203125,-9.35,,,1908142.0
1623756351.21875,-9.12,,,1908480.0
1623756351.234375,-8.35,,,1908388.0
1623756351.25,-7.4,,,1908396.0
1623756351.265625,-6.76,,,1908130.0
1623756351.28125,-6.86,,,1908130.0
1623756351.296875,-7.84,,,1908506.0
1623756351.3125,-9.44,,,1908628.0
1623756351.328125,-11.14,,,1908603.0
1623756351.34375,-12.3,,,1909314.0
1623756351.359375,-12.4,,,1909961.0
1623756351.375,-11.28,,,1910159.0
1623756351.390625,-9.07,,,1910558.0
1623756351.40625,-6.15,,,1909763.0
1623756351.421875,-2.89,,,1909221.0
1623756351.4375,0.43,,,1908567.0
1623756351.453125,3.67,,,1908099.0
1623756351.46875,6.74,,,1908395.0
1623756351.484375,9.51,,,1908635.0
1623756351.5,11.74,,,1909049.0
1623756351.515625,13.13,,,1909424.0
1623756351.53125,13.48,,,1909853.0
1623756351.546875,12.83,,,1910397.0
1623756351.5625,11.54,,,1910856.0
1623756351.578125,10.15,,,1910917.0
1623756351.59375,9.18,,,1912200.0
1623756351.609375,8.93,,,1912779.0
1623756351.625,9.33,,,1913364.0
1623756351.640625,9.96,,,1914172.0
1623756351.65625,10.28,,,1914904.0
1623756351.671875,9.88,,,1914865.0
1623756351.6875,8.66,,,1914262.0
1623756351.703125,6.85,,,1913795.0
1623756351.71875,4.9,,,1913910.0
1623756351.734375,3.18,,,1913726.0
1623756351.75,1.82,,,1913953.0
1623756351.765625,0.61,,,1914316.0
1623756351.78125,-0.79,,,1914853.0
1623756351.796875,-2.82,,,1915494.0
1623756351.8125,-5.78,,,1915765.0
1623756351.828125,-9.82,,,1915977.0
1623756351.84375,-14.82,,,1915744.0
1623756351.859375,-20.31,,,1915651.0
1623756351.875,-25.32,,,1915975.0
1623756351.890625,-28.43,,,1915986.0
1623756351.90625,-28.12,,,1915517.0
1623756351.921875,-23.27,,,1915051.0
1623756351.9375,-13.88,,,1914003.0
1623756351.953125,-1.18,,,1913062.0
1623756351.96875,12.57,,,1911624.0
1623756351.984375,24.94,,,1910751.0
1623756352.0,34.2,,,1910304.0
1623756352.015625,39.7,,,1909950.0
1623756352.03125,41.72,,,1909427.0
1623756352.046875,40.82,,,1909107.0
1623756352.0625,37.47,,,1908639.0
1623756352.078125,32.03,,,1908586.0
1623756352.09375,25.19,,,1908517.0
1623756352.109375,18.28,,,1908822.0
1623756352.125,13.13,,,1909009.0
1623756352.140625,11.31,,,1908927.0
1623756352.15625,13.16,,,1909024.0
1623756352.171875,17.47,,,1908848.0
1623756352.1875,21.82,,,1909080.0
1623756352.203125,23.75,,,1908504.0
1623756352.21875,21.91,,,1907406.0
1623756352.234375,16.56,,,1906713.0
1623756352.25,9.29,,,1905630.0
1623756352.265625,2.08,,,1904326.0
1623756352.28125,-3.59,,,1903612.0
1623756352.296875,-7.12,,,1903202.0
1623756352.3125,-8.56,,,1902963.0
1623756352.328125,-8.23,,,1902782.0
1623756352.34375,-6.31,,,1902714.0
1623756352.359375,-2.99,,,1902290.0
1623756352.375,1.35,,,1901924.0
1623756352.390625,5.84,,,1902116.0
1623756352.40625,9.15,,,1901955.0
1623756352.421875,9.94,,,1902186.0
1623756352.4375,7.35,,,1902306.0
1623756352.453125,1.62,,,1902145.0
1623756352.46875,-5.79,,,1901791.0
1623756352.484375,-12.48,,,1901580.0
1623756352.5,-15.85,,,1901136.0
1623756352.515625,-14.07,,,1900146.0
1623756352.53125,-6.96,,,1899094.0
1623756352.546875,3.77,,,1898329.0
1623756352.5625,15.05,,,1897432.0
1623756352.578125,23.57,,,1897139.0
1623756352.59375,27.17,,,1896822.0
1623756352.609375,25.59,,,1896484.0
1623756352.625,20.38,,,1895821.0
1623756352.640625,13.94,,,1895205.0
1623756352.65625,8.42,,,1895159.0
1623756352.671875,5.02,,,1894595.0
1623756352.6875,4.06,,,1894715.0
1623756352.703125,5.69,,,1895152.0
1623756352.71875,10.29,,,1895075.0
1623756352.734375,18.53,,,1895163.0
1623756352.75,30.55,,,1895562.0
1623756352.765625,45.23,,,1895902.0
1623756352.78125,59.86,,,1896325.0
1623756352.796875,70.92,,,1896763.0
1623756352.8125,75.48,,,1897605.0
1623756352.828125,72.55,,,1897681.0
1623756352.84375,63.58,,,1898453.0
1623756352.859375,51.88,,,1899199.0
1623756352.875,41.19,,,1899643.0
1623756352.890625,34.38,,,1899847.0
1623756352.90625,32.69,,,1899632.0
1623756352.921875,35.89,,,1898751.0
1623756352.9375,42.88,,,1898309.0
1623756352.953125,52.36,,,1898131.0
1623756352.96875,62.92,,,1897762.0
1623756352.984375,72.99,,,1897927.0
1623756353.0,80.57,,,1897982.0
1623756353.015625,83.54,,,1898409.0
1623756353.03125,80.23,,,1898550.0
1623756353.046875,70.25,,,1898589.0
1623756353.0625,54.84,,,1898243.0
1623756353.078125,36.59,,,1898062.0
1623756353.09375,18.49,,,1897220.0
1623756353.109375,2.85,,,1896345.0
1623756353.125,-9.32,,,1895043.0
1623756353.140625,-18.31,,,1894048.0
1623756353.15625,-25.14,,,1893608.0
1623756353.171875,-30.81,,,1893368.0
1623756353.1875,-35.87,,,1892635.0
1623756353.203125,-40.52,,,1892086.0
1623756353.21875,-44.8,,,1891819.0
1623756353.234375,-48.88,,,1891111.0
1623756353.25,-53.02,,,1890804.0
1623756353.265625,-57.38,,,1890849.0
1623756353.28125,-61.78,,,1890169.0
1623756353.296875,-65.76,,,1890487.0
1623756353.3125,-68.8,,,1890560.0
1623756353.328125,-70.56,,,1890187.0
1623756353.34375,-71.08,,,1889727.0
1623756353.359375,-70.7,,,1888950.0
1623756353.375,-69.85,,,1888069.0
1623756353.390625,-68.69,,,1886730.0
1623756353.40625,-67.13,,,1886320.0
1623756353.421875,-64.85,,,1885552.0
1623756353.4375,-61.6,,,1885407.0
1623756353.453125,-57.37,,,1885167.0
1623756353.46875,-52.5,,,1884666.0
1623756353.484375,-47.55,,,1884591.0
1623756353.5,-43.13,,,1884158.0
1623756353.515625,-39.68,,,1883873.0
1623756353.53125,-37.35,,,1884185.0
1623756353.546875,-35.94,,,1884213.0
1623756353.5625,-34.97,,,1884148.0
1623756353.578125,-33.92,,,1884313.0
1623756353.59375,-32.34,,,1884782.0
1623756353.609375,-30.09,,,1885126.0
1623756353.625,-27.3,,,1884186.0
1623756353.640625,-24.36,,,1883359.0
1623756353.65625,-21.66,,,1883359.0
1623756353.671875,-19.39,,,1882905.0
1623756353.6875,-17.54,,,1881838.0
1623756353.703125,-15.85,,,1881591.0
1623756353.71875,-14.09,,,1881361.0
1623756353.734375,-12.2,,,1881228.0
1623756353.75,-10.3,,,1881592.0
1623756353.765625,-8.62,,,1881213.0
1623756353.78125,-7.36,,,1881194.0
1623756353.796875,-6.56,,,1881413.0
1623756353.8125,-6.14,,,1881268.0
1623756353.828125,-5.97,,,1881383.0
1623756353.84375,-5.96,,,1881973.0
1623756353.859375,-6.08,,,1882699.0
1623756353.875,-6.34,,,1883738.0
1623756353.890625,-6.68,,,1885617.0
1623756353.90625,-7.04,,,1886607.0
1623756353.921875,-7.35,,,1886858.0
1623756353.9375,-7.67,,,1886387.0
1623756353.953125,-8.18,,,1886378.0
1623756353.96875,-9.1,,,1886256.0
1623756353.984375,-10.52,,,1886748.0
1623756354.0,-12.37,,,1887014.0
1623756354.015625,-14.34,,,1887579.0
1623756354.03125,-15.97,,,1887893.0
1623756354.046875,-16.91,,,1887607.0
1623756354.0625,-16.9,,,1887555.0
1623756354.078125,-15.92,,,1888547.0
1623756354.09375,-14.03,,,1888976.0
1623756354.109375,-11.39,,,1889175.0
1623756354.125,-8.15,,,1889170.0
1623756354.140625,-4.52,,,1890021.0
1623756354.15625,-0.76,,,1891098.0
1623756354.171875,2.77,,,1891716.0
1623756354.1875,5.64,,,1891298.0
1623756354.203125,7.54,,,1892855.0
1623756354.21875,8.38,,,1893007.0
1623756354.234375,8.38,,,1891777.0
1623756354.25,7.96,,,1892298.0
1623756354.265625,7.52,,,1891455.0
1623756354.28125,7.29,,,1889573.0
1623756354.296875,7.26,,,1890252.0
1623756354.3125,7.2,,,1891159.0
1623756354.328125,6.92,,,1890771.0
1623756354.34375,6.36,,,1891049.0
1623756354.359375,5.63,,,1891174.0
1623756354.375,4.94,,,1890920.0
1623756354.390625,4.39,,,1890941.0
1623756354.40625,3.95,,,1891710.0
1623756354.421875,3.48,,,1891569.0
1623756354.4375,2.9,,,1890794.0
1623756354.453125,2.14,,,1890635.0
1623756354.46875,1.25,,,1890761.0
1623756354.484375,0.2,,,1890245.0
1623756354.5,-1.18,,,1889618.0
1623756354.515625,-3.2,,,1889289.0
1623756354.53125,-6.13,,,1889564.0
1623756354.546875,-10.0,,,1889742.0
1623756354.5625,-14.49,,,1890018.0
1623756354.578125,-18.9,,,1890230.0
1623756354.59375,-22.41,,,1890168.0
1623756354.609375,-24.38,,,1890485.0
1623756354.625,-24.5,,,1890902.0
1623756354.640625,-22.89,,,1891516.0
1623756354.65625,-19.94,,,1891813.0
1623756354.671875,-16.16,,,1891789.0
1623756354.6875,-11.95,,,1891642.0
1623756354.703125,-7.55,,,1890782.0
1623756354.71875,-3.03,,,1890379.0
1623756354.734375,1.5,,,1889709.0
1623756354.75,5.83,,,1888840.0
1623756354.765625,9.62,,,1888639.0
1623756354.78125,12.45,,,1888171.0
1623756354.796875,14.11,,,1887998.0
1623756354.8125,14.68,,,1888129.0
1623756354.828125,14.54,,,1887894.0
1623756354.84375,14.24,,,1888316.0
1623756354.859375,14.21,,,1888604.0
1623756354.875,14.55,,,1888889.0
1623756354.890625,15.06,,,1889234.0
1623756354.90625,15.33,,,1889594.0
1623756354.921875,15.11,,,1890090.0
1623756354.9375,14.48,,,1890484.0
1623756354.953125,13.83,,,1890802.0
1623756354.96875,13.67,,,1890234.0
1623756354.984375,14.21,,,1889842.0
1623756355.0,15.19,,,1890821.0
1623756355.015625,15.98,,,1889316.0
1623756355.03125,15.82,,,1889842.0
1623756355.046875,14.35,,,1891194.0
1623756355.0625,11.77,,,1892241.0
1623756355.078125,8.85,,,1893133.0
1623756355.09375,6.57,,,1893277.0
1623756355.109375,5.64,,,1893350.0
1623756355.125,6.08,,,1892878.0
1623756355.140625,7.2,,,1893009.0
1623756355.15625,7.83,,,1893107.0
1623756355.171875,6.84,,,1892926.0
1623756355.1875,3.66,,,1893087.0
1623756355.203125,-1.46,,,1893381.0
1623756355.21875,-7.54,,,1897136.0
1623756355.234375,-13.16,,,1901054.0
1623756355.25,-16.96,,,1906586.0
1623756355.265625,-18.1,,,1903337.0
1623756355.28125,-16.43,,,1894269.0
1623756355.296875,-12.49,,,1891416.0
1623756355.3125,-7.25,,,1892214.0
1623756355.328125,-1.79,,,1894765.0
1623756355.34375,3.02,,,1893839.0
1623756355.359375,6.65,,,1891596.0
1623756355.375,8.98,,,1888491.0
1623756355.390625,10.31,,,1885950.0
1623756355.40625,11.2,,,1884215.0
1623756355.421875,12.29,,,1883969.0
1623756355.4375,14.01,,,1883765.0
1623756355.453125,16.43,,,1883706.0
1623756355.46875,19.24,,,1884072.0
1623756355.484375,21.83,,,1884278.0
1623756355.5,23.63,,,1884251.0
1623756355.515625,24.34,,,1884964.0
1623756355.53125,24.06,,,1885158.0
1623756355.546875,23.16,,,1884450.0
1623756355.5625,21.96,,,1884486.0
1623756355.578125,20.5,,,1884109.0
1623756355.59375,18.36,,,1883711.0
1623756355.609375,14.82,,,1883669.0
1623756355.625,9.23,,,1884176.0
1623756355.640625,1.39,,,1883986.0
1623756355.65625,-8.22,,,1883898.0
1623756355.671875,-18.31,,,1883808.0
1623756355.6875,-27.06,,,1884414.0
1623756355.703125,-32.49,,,1884785.0
1623756355.71875,-33.03,,,1884738.0
1623756355.734375,-28.03,,,1884874.0
1623756355.75,-18.11,,,1884973.0
1623756355.765625,-5.09,,,1885691.0
1623756355.78125,8.38,,,1886748.0
1623756355.796875,19.53,,,1886735.0
1623756355.8125,26.28,,,1886149.0
1623756355.828125,27.76,,,1885444.0
1623756355.84375,24.4,,,1885076.0
1623756355.859375,17.66,,,1884695.0
1623756355.875,9.37,,,1884811.0
1623756355.890625,1.26,,,1885699.0
1623756355.90625,-5.48,,,1885512.0
1623756355.921875,-10.17,,,1885510.0
1623756355.9375,-12.65,,,1885497.0
1623756355.953125,-13.1,,,1885704.0
1623756355.96875,-11.94,,,1886658.0
1623756355.984375,-9.83,,,1887335.0
1623756356.0,-7.54,,,1887631.0
1623756356.015625,-5.75,,,1888175.0
1623756356.03125,-4.88,,,1889211.0
1623756356.046875,-4.86,,,1890094.0
1623756356.0625,-5.21,,,1892543.0
1623756356.078125,-5.23,,,1893743.0
1623756356.09375,-4.38,,,1894203.0
1623756356.109375,-2.53,,,1894244.0
1623756356.125,0.02,,,1894169.0
1623756356.140625,2.6,,,1894708.0
1623756356.15625,4.46,,,1895549.0
1623756356.171875,5.04,,,1894935.0
1623756356.1875,4.12,,,1895047.0
1623756356.203125,1.88,,,1895072.0
1623756356.21875,-1.19,,,1894970.0
1623756356.234375,-4.38,,,1894970.0
1623756356.25,-7.04,,,1895250.0
1623756356.265625,-8.66,,,1895683.0
1623756356.28125,-9.11,,,1896790.0
1623756356.296875,-8.53,,,1896509.0
1623756356.3125,-7.29,,,1896182.0
1623756356.328125,-5.76,,,1895612.0
1623756356.34375,-4.22,,,1895088.0
1623756356.359375,-2.83,,,1894662.0
1623756356.375,-1.65,,,1894459.0
1623756356.390625,-0.8,,,1894193.0
1623756356.40625,-0.35,,,1893835.0
1623756356.421875,-0.31,,,1894005.0
1623756356.4375,-0.59,,,1893968.0
1623756356.453125,-0.96,,,1894005.0
1623756356.46875,-1.19,,,1893908.0
1623756356.484375,-1.16,,,1894358.0
1623756356.5,-0.98,,,1895182.0
1623756356.515625,-0.88,,,1895379.0
1623756356.53125,-1.08,,,1895725.0
1623756356.546875,-1.68,,,1895611.0
1623756356.5625,-2.61,,,1895433.0
1623756356.578125,-3.76,,,1894955.0
1623756356.59375,-5.14,,,1894060.0
1623756356.609375,-6.83,,,1893964.0
1623756356.625,-8.96,,,1894049.0
1623756356.640625,-11.49,,,1893987.0
1623756356.65625,-14.04,,,1893297.0
1623756356.671875,-15.99,,,1893223.0
1623756356.6875,-16.64,,,1893264.0
1623756356.703125,-15.49,,,1893340.0
1623756356.71875,-12.57,,,1893572.0
1623756356.734375,-8.47,,,1894101.0
1623756356.75,-4.04,,,1894415.0
1623756356.765625,-0.14,,,1894760.0
1623756356.78125,2.77,,,1895422.0
1623756356.796875,4.79,,,1895957.0
1623756356.8125,6.35,,,1895818.0
1623756356.828125,7.99,,,1895667.0
1623756356.84375,9.95,,,1895463.0
1623756356.859375,12.12,,,1894729.0
1623756356.875,14.06,,,1894423.0
1623756356.890625,15.3,,,1894346.0
1623756356.90625,15.52,,,1894549.0
1623756356.921875,14.77,,,1895260.0
1623756356.9375,13.33,,,1895144.0
1623756356.953125,11.62,,,1895356.0
1623756356.96875,10.03,,,1895216.0
1623756356.984375,8.75,,,1895532.0
1623756357.0,7.79,,,1895482.0
1623756357.015625,6.98,,,1895780.0
1623756357.03125,6.18,,,1896615.0
1623756357.046875,5.26,,,1897544.0
1623756357.0625,4.32,,,1898558.0
1623756357.078125,3.54,,,1899334.0
1623756357.09375,3.11,,,1899398.0
1623756357.109375,3.06,,,1899440.0
1623756357.125,3.25,,,1899461.0
1623756357.140625,3.41,,,1899197.0
1623756357.15625,3.3,,,1899207.0
1623756357.171875,2.81,,,1899273.0
1623756357.1875,1.98,,,1899502.0
1623756357.203125,0.89,,,1899383.0
1623756357.21875,-0.43,,,1899454.0
1623756357.234375,-1.98,,,1899410.0
1623756357.25,-3.76,,,1899775.0
1623756357.265625,-5.69,,,1900072.0
1623756357.28125,-7.64,,,1900218.0
1623756357.296875,-9.54,,,1900388.0
1623756357.3125,-11.41,,,1900978.0
1623756357.328125,-13.44,,,1901117.0
1623756357.34375,-15.75,,,1901071.0
1623756357.359375,-18.27,,,1900704.0
1623756357.375,-20.62,,,1900495.0
1623756357.390625,-22.29,,,1899833.0
1623756357.40625,-22.86,,,1899759.0
1623756357.421875,-22.18,,,1899741.0
1623756357.4375,-20.34,,,1899593.0
1623756357.453125,-17.63,,,1899683.0
1623756357.46875,-14.28,,,1899693.0
1623756357.484375,-10.39,,,1899201.0
1623756357.5,-6.1,,,1899015.0
1623756357.515625,-1.63,,,1899061.0
1623756357.53125,2.59,,,1899110.0
1623756357.546875,6.03,,,1899495.0
1623756357.5625,8.28,,,1900430.0
1623756357.578125,9.19,,,1900640.0
1623756357.59375,8.97,,,1900831.0
1623756357.609375,8.05,,,1900774.0
1623756357.625,6.93,,,1900772.0
1623756357.640625,5.93,,,1900550.0
1623756357.65625,5.09,,,1899834.0
1623756357.671875,4.16,,,1899590.0
1623756357.6875,2.81,,,1899455.0
1623756357.703125,0.82,,,1899776.0
1623756357.71875,-1.73,,,1899889.0
1623756357.734375,-4.38,,,1899752.0
1623756357.75,-6.45,,,1900058.0
1623756357.765625,-7.32,,,1899985.0
1623756357.78125,-6.78,,,1900561.0
1623756357.796875,-5.13,,,1900670.0
1623756357.8125,-3.13,,,1901286.0
1623756357.828125,-1.68,,,1901881.0
1623756357.84375,-1.47,,,1902255.0
1623756357.859375,-2.68,,,1902946.0
1623756357.875,-4.95,,,1903008.0
1623756357.890625,-7.51,,,1902155.0
1623756357.90625,-9.45,,,1902230.0
1623756357.921875,-10.0,,,1901802.0
1623756357.9375,-8.72,,,1902617.0
1623756357.953125,-5.66,,,1902797.0
1623756357.96875,-1.36,,,1903143.0
1623756357.984375,3.23,,,1903283.0
1623756358.0,6.84,,,1904247.0
1623756358.015625,8.19,,,1904680.0
1623756358.03125,6.44,,,1905133.0
1623756358.046875,1.58,,,1904967.0
1623756358.0625,-5.29,,,1905315.0
1623756358.078125,-12.11,,,1905576.0
1623756358.09375,-16.41,,,1905974.0
1623756358.109375,-16.19,,,1905814.0
1623756358.125,-10.7,,,1905769.0
1623756358.140625,-0.78,,,1905291.0
1623756358.15625,11.4,,,1904256.0
1623756358.171875,23.09,,,1903773.0
1623756358.1875,32.01,,,1903022.0
1623756358.203125,36.93,,,1902870.0
1623756358.21875,38.0,,,1902991.0
1623756358.234375,36.36,,,1902257.0
1623756358.25,33.51,,,1901909.0
1623756358.265625,30.77,,,1901790.0
1623756358.28125,28.87,,,1901402.0
1623756358.296875,27.84,,,1901417.0
1623756358.3125,27.18,,,1901213.0
1623756358.328125,26.1,,,1901385.0
1623756358.34375,23.9,,,1901916.0
1623756358.359375,20.14,,,1901843.0
1623756358.375,14.83,,,1901805.0
1623756358.390625,8.34,,,1901600.0
1623756358.40625,1.32,,,1900475.0
1623756358.421875,-5.43,,,1899558.0
1623756358.4375,-11.08,,,1897973.0
1623756358.453125,-14.79,,,1896830.0
1623756358.46875,-15.89,,,1896753.0
1623756358.484375,-13.95,,,1896168.0
1623756358.5,-9.16,,,1895924.0
1623756358.515625,-2.38,,,1896074.0
1623756358.53125,4.89,,,1895521.0
1623756358.546875,10.88,,,1895604.0
1623756358.5625,14.23,,,1895282.0
1623756358.578125,14.41,,,1895139.0
1623756358.59375,12.0,,,1895402.0
1623756358.609375,8.27,,,1895570.0
1623756358.625,4.62,,,1896018.0
1623756358.640625,1.81,,,1895747.0
1623756358.65625,-0.23,,,1895466.0
1623756358.671875,-2.24,,,1894606.0
1623756358.6875,-5.13,,,1893611.0
1623756358.703125,-9.33,,,1892701.0
1623756358.71875,-14.75,,,1891902.0
1623756358.734375,-20.86,,,1891526.0
1623756358.75,-27.16,,,1891185.0
1623756358.765625,-33.37,,,1890475.0
1623756358.78125,-39.53,,,1890645.0
1623756358.796875,-45.61,,,1890641.0
1623756358.8125,-51.36,,,1891068.0
1623756358.828125,-56.32,,,1891259.0
1623756358.84375,-60.01,,,1892110.0
1623756358.859375,-62.31,,,1892502.0
1623756358.875,-63.43,,,1892936.0
1623756358.890625,-63.73,,,1893663.0
1623756358.90625,-63.27,,,1894529.0
1623756358.921875,-61.52,,,1894040.0
1623756358.9375,-57.57,,,1893708.0
1623756358.953125,-50.74,,,1893692.0
1623756358.96875,-41.27,,,1894051.0
1623756358.984375,-30.51,,,1894458.0
1623756359.0,-20.55,,,1895284.0
1623756359.015625,-13.21,,,1895641.0
1623756359.03125,-9.24,,,1896296.0
1623756359.046875,-7.98,,,1897002.0
1623756359.0625,-7.83,,,1897109.0
1623756359.078125,-7.12,,,1898045.0
1623756359.09375,-4.73,,,1898649.0
1623756359.109375,-0.15,,,1899387.0
1623756359.125,6.88,,,1899939.0
1623756359.140625,16.6,,,1901056.0
1623756359.15625,29.12,,,1902342.0
1623756359.171875,43.77,,,1903639.0
1623756359.1875,58.8,,,1903701.0
1623756359.203125,71.64,,,1903297.0
1623756359.21875,80.0,,,1902888.0
1623756359.234375,83.16,,,1904324.0
1623756359.25,82.57,,,1908382.0
1623756359.265625,81.29,,,1915907.0
1623756359.28125,82.3,,,1913970.0
1623756359.296875,86.82,,,1908765.0
1623756359.3125,93.46,,,1912742.0
1623756359.328125,98.9,,,1918010.0
1623756359.34375,99.71,,,1921091.0
1623756359.359375,94.05,,,1920894.0
1623756359.375,82.66,,,1919931.0
1623756359.390625,68.22,,,1918516.0
1623756359.40625,54.01,,,1916872.0
1623756359.421875,42.31,,,1915708.0
1623756359.4375,33.67,,,1914255.0
1623756359.453125,27.1,,,1913031.0
1623756359.46875,21.06,,,1912206.0
1623756359.484375,14.49,,,1911050.0
1623756359.5,7.22,,,1910595.0
1623756359.515625,-0.3,,,1909517.0
1623756359.53125,-7.62,,,1910086.0
1623756359.546875,-14.67,,,1908783.0
1623756359.5625,-21.63,,,1908259.0
1623756359.578125,-28.3,,,1907745.0
1623756359.59375,-33.8,,,1907713.0
1623756359.609375,-36.88,,,1907743.0
1623756359.625,-36.67,,,1907773.0
1623756359.640625,-33.27,,,1907431.0
1623756359.65625,-27.57,,,1907547.0
1623756359.671875,-20.41,,,1907560.0
1623756359.6875,-11.67,,,1907287.0
1623756359.703125,-0.08,,,1907370.0
1623756359.71875,15.96,,,1905800.0
1623756359.734375,36.92,,,1904543.0
1623756359.75,61.13,,,1903743.0
1623756359.765625,84.84,,,1903247.0
1623756359.78125,103.39,,,1906585.0
1623756359.796875,113.03,,,1901805.0
1623756359.8125,112.24,,,1901313.0
1623756359.828125,102.03,,,1900404.0
1623756359.84375,85.19,,,1907403.0
1623756359.859375,65.04,,,1899880.0
1623756359.875,44.43,,,1899523.0
1623756359.890625,25.24,,,1899707.0
1623756359.90625,8.44,,,1899781.0
1623756359.921875,-5.58,,,1899669.0
1623756359.9375,-16.72,,,1902287.0
1623756359.953125,-24.88,,,1899775.0
1623756359.96875,-30.01,,,1900079.0
1623756359.984375,-32.17,,,1900509.0
1623756360.0,-31.95,,,1900450.0
1623756360.015625,-30.54,,,1900206.0
1623756360.03125,-29.6,,,1900356.0
1623756360.046875,-30.67,,,1900049.0
1623756360.0625,-34.55,,,1899907.0
1623756360.078125,-40.77,,,1899501.0
1623756360.09375,-47.79,,,1899164.0
1623756360.109375,-53.74,,,1898949.0
1623756360.125,-57.3,,,1899072.0
1623756360.140625,-58.34,,,1899235.0
1623756360.15625,-57.94,,,1899253.0
1623756360.171875,-57.73,,,1899257.0
1623756360.1875,-58.95,,,1899297.0
1623756360.203125,-61.84,,,1899261.0
1623756360.21875,-65.52,,,1899354.0
1623756360.234375,-68.56,,,1899796.0
1623756360.25,-69.78,,,1900056.0
1623756360.265625,-68.77,,,1900309.0
1623756360.28125,-66.0,,,1900075.0
1623756360.296875,-62.39,,,1899031.0
1623756360.3125,-58.71,,,1897530.0
1623756360.328125,-55.31,,,1896759.0
1623756360.34375,-52.08,,,1899891.0
1623756360.359375,-48.78,,,1898187.0
1623756360.375,-45.37,,,1896341.0
1623756360.390625,-42.19,,,1896683.0
1623756360.40625,-39.72,,,1896566.0
1623756360.421875,-38.28,,,1896420.0
1623756360.4375,-37.75,,,1896684.0
1623756360.453125,-37.53,,,1896266.0
1623756360.46875,-36.79,,,1896380.0
1623756360.484375,-34.82,,,1896631.0
1623756360.5,-31.32,,,1896530.0
1623756360.515625,-26.49,,,1897502.0
1623756360.53125,-20.82,,,1896961.0
1623756360.546875,-14.9,,,1897515.0
1623756360.5625,-9.18,,,1898037.0
1623756360.578125,-3.86,,,1898269.0
1623756360.59375,0.99,,,1897607.0
1623756360.609375,5.35,,,1897310.0
1623756360.625,9.15,,,1896349.0
1623756360.640625,12.3,,,1895597.0
1623756360.65625,14.68,,,1894302.0
1623756360.671875,16.33,,,1894961.0
1623756360.6875,17.39,,,1893470.0
1623756360.703125,18.1,,,1893293.0
1623756360.71875,18.69,,,1892643.0
1623756360.734375,19.31,,,1892179.0
1623756360.75,19.9,,,1892212.0
1623756360.765625,20.28,,,1891991.0
1623756360.78125,20.15,,,1891950.0
1623756360.796875,19.18,,,1892486.0
1623756360.8125,17.13,,,1892656.0
1623756360.828125,13.97,,,1893028.0
1623756360.84375,9.91,,,1893696.0
1623756360.859375,5.46,,,1893421.0
1623756360.875,1.23,,,1893401.0
1623756360.890625,-2.13,,,1892736.0
1623756360.90625,-4.2,,,1892204.0
1623756360.921875,-4.87,,,1891955.0
1623756360.9375,-4.35,,,1891935.0
1623756360.953125,-3.05,,,1892194.0
1623756360.96875,-1.45,,,1892477.0
1623756360.984375,0.03,,,1893049.0
1623756361.0,1.04,,,1893863.0
1623756361.015625,1.41,,,1896021.0
1623756361.03125,1.07,,,1897912.0
1623756361.046875,0.23,,,1899227.0
1623756361.0625,-0.62,,,1900072.0
1623756361.078125,-0.92,,,1900701.0
1623756361.09375,-0.18,,,1901380.0
1623756361.109375,1.79,,,1902290.0
1623756361.125,4.8,,,1903581.0
1623756361.140625,8.29,,,1902936.0
1623756361.15625,11.48,,,1902373.0
1623756361.171875,13.6,,,1903268.0
1623756361.1875,14.02,,,1901595.0
1623756361.203125,12.45,,,1901482.0
1623756361.21875,8.96,,,1901967.0
1623756361.234375,4.03,,,1902077.0
1623756361.25,-1.72,,,1901967.0
1623756361.265625,-7.58,,,1901241.0
1623756361.28125,-13.02,,,1900944.0
1623756361.296875,-17.71,,,1901499.0
1623756361.3125,-21.47,,,1902393.0
1623756361.328125,-24.16,,,1903849.0
1623756361.34375,-25.56,,,1910316.0
1623756361.359375,-25.6,,,1921984.0
1623756361.375,-24.51,,,1920179.0
1623756361.390625,-23.12,,,1914823.0
1623756361.40625,-22.64,,,1916994.0
1623756361.421875,-24.13,,,1920836.0
1623756361.4375,-27.87,,,1926706.0
1623756361.453125,-32.97,,,1926930.0
1623756361.46875,-37.52,,,1925704.0
1623756361.484375,-39.36,,,1925366.0
1623756361.5,-37.06,,,1922923.0
1623756361.515625,-30.49,,,1921530.0
1623756361.53125,-21.0,,,1919001.0
1623756361.546875,-10.76,,,1917793.0
1623756361.5625,-1.82,,,1918012.0
1623756361.578125,4.56,,,1917093.0
1623756361.59375,8.41,,,1915678.0
1623756361.609375,10.74,,,1915392.0
1623756361.625,13.02,,,1914964.0
1623756361.640625,16.51,,,1914418.0
1623756361.65625,21.9,,,1913835.0
1623756361.671875,29.17,,,1914050.0
1623756361.6875,37.65,,,1913509.0
1623756361.703125,46.26,,,1912452.0
1623756361.71875,53.78,,,1912103.0
1623756361.734375,59.12,,,1911002.0
1623756361.75,61.55,,,1910230.0
1623756361.765625,60.95,,,1909550.0
1623756361.78125,57.78,,,1909500.0
1623756361.796875,53.1,,,1909180.0
1623756361.8125,48.17,,,1908428.0
1623756361.828125,44.18,,,1907985.0
1623756361.84375,41.94,,,1907624.0
1623756361.859375,41.65,,,1907557.0
1623756361.875,42.92,,,1907654.0
1623756361.890625,44.88,,,1907725.0
1623756361.90625,46.43,,,1907490.0
1623756361.921875,46.59,,,1907632.0
1623756361.9375,44.66,,,1907614.0
1623756361.953125,40.5,,,1907581.0
1623756361.96875,34.56,,,1907180.0
1623756361.984375,27.79,,,1906588.0
1623756362.0,21.34,,,1905990.0
1623756362.015625,16.3,,,1905453.0
1623756362.03125,13.22,,,1905127.0
1623756362.046875,11.98,,,1905562.0
1623756362.0625,11.84,,,1905312.0
1623756362.078125,11.75,,,1905321.0
1623756362.09375,10.75,,,1905048.0
1623756362.109375,8.33,,,1905025.0
1623756362.125,4.52,,,1905024.0
1623756362.140625,-0.23,,,1905691.0
1623756362.15625,-5.36,,,1906205.0
1623756362.171875,-10.35,,,1905921.0
1623756362.1875,-14.84,,,1906596.0
1623756362.203125,-18.47,,,1907139.0
1623756362.21875,-20.84,,,1907161.0
1623756362.234375,-21.59,,,1907143.0
1623756362.25,-20.53,,,1906987.0
1623756362.265625,-17.92,,,1906642.0
1623756362.28125,-14.53,,,1905405.0
1623756362.296875,-11.39,,,1904374.0
1623756362.3125,-9.5,,,1903862.0
1623756362.328125,-9.54,,,1903363.0
1623756362.34375,-11.79,,,1902547.0
1623756362.359375,-16.25,,,1902363.0
1623756362.375,-22.74,,,1901802.0
1623756362.390625,-30.9,,,1901482.0
1623756362.40625,-40.09,,,1901223.0
1623756362.421875,-49.28,,,1900883.0
1623756362.4375,-57.18,,,1901057.0
1623756362.453125,-62.63,,,1900815.0
1623756362.46875,-65.11,,,1900900.0
1623756362.484375,-64.96,,,1901081.0
1623756362.5,-63.26,,,1901119.0
1623756362.515625,-61.31,,,1900978.0
1623756362.53125,-60.1,,,1900312.0
1623756362.546875,-59.94,,,1899490.0
1623756362.5625,-60.63,,,1898708.0
1623756362.578125,-61.77,,,1898124.0
1623756362.59375,-62.91,,,1897396.0
1623756362.609375,-63.3,,,1897289.0
1623756362.625,-61.66,,,1896984.0
1623756362.640625,-56.22,,,1896486.0
1623756362.65625,-45.25,,,1896698.0
1623756362.671875,-27.94,,,1896311.0
1623756362.6875,-4.97,,,1896409.0
1623756362.703125,21.65,,,1896435.0
1623756362.71875,49.25,,,1896524.0
1623756362.734375,75.45,,,1896570.0
1623756362.75,98.59,,,1896764.0
1623756362.765625,117.56,,,1897218.0
1623756362.78125,131.22,,,1897292.0
1623756362.796875,138.11,,,1897226.0
1623756362.8125,136.8,,,1896561.0
1623756362.828125,127.08,,,1895917.0
1623756362.84375,110.94,,,1894976.0
1623756362.859375,92.84,,,1894602.0
1623756362.875,78.7,,,1894284.0
1623756362.890625,73.88,,,1893914.0
1623756362.90625,81.04,,,1893873.0
1623756362.921875,98.87,,,1893757.0
1623756362.9375,122.43,,,1893627.0
1623756362.953125,144.82,,,1893667.0
1623756362.96875,159.67,,,1894018.0
1623756362.984375,163.27,,,1894238.0
1623756363.0,155.56,,,1894576.0
1623756363.015625,139.61,,,1895363.0
1623756363.03125,119.76,,,1896156.0
1623756363.046875,99.7,,,1897305.0
1623756363.0625,81.19,,,1898494.0
1623756363.078125,64.09,,,1899086.0
1623756363.09375,47.36,,,1898280.0
1623756363.109375,30.28,,,1898701.0
1623756363.125,13.15,,,1898253.0
1623756363.140625,-3.0,,,1899099.0
1623756363.15625,-17.09,,,1900059.0
1623756363.171875,-28.83,,,1903638.0
1623756363.1875,-38.89,,,1913327.0
1623756363.203125,-48.37,,,1922076.0
1623756363.21875,-58.04,,,1915396.0
1623756363.234375,-67.87,,,1909717.0
1623756363.25,-77.11,,,1911006.0
1623756363.265625,-84.78,,,1913006.0
1623756363.28125,-90.31,,,1913214.0
1623756363.296875,-93.84,,,1910168.0
1623756363.3125,-96.09,,,1907119.0
1623756363.328125,-97.86,,,1904324.0
1623756363.34375,-99.5,,,1902179.0
1623756363.359375,-100.81,,,1898771.0
1623756363.375,-101.12,,,1896985.0
1623756363.390625,-99.75,,,1895417.0
1623756363.40625,-96.33,,,1894516.0
1623756363.421875,-90.97,,,1893450.0
1623756363.4375,-84.15,,,1892866.0
1623756363.453125,-76.44,,,1891704.0
1623756363.46875,-68.38,,,1891303.0
1623756363.484375,-60.35,,,1890795.0
1623756363.5,-52.71,,,1890184.0
1623756363.515625,-45.8,,,1889708.0
1623756363.53125,-39.89,,,1888814.0
1623756363.546875,-35.12,,,1888782.0
1623756363.5625,-31.36,,,1888767.0
1623756363.578125,-28.26,,,1889332.0
1623756363.59375,-25.45,,,1889778.0
1623756363.609375,-22.76,,,1889870.0
1623756363.625,-20.24,,,1889336.0
1623756363.640625,-18.15,,,1888616.0
1623756363.65625,-16.63,,,1887565.0
1623756363.671875,-15.63,,,1887167.0
1623756363.6875,-14.87,,,1887209.0
1623756363.703125,-14.01,,,1887041.0
1623756363.71875,-12.87,,,1887013.0
1623756363.734375,-11.51,,,1886983.0
1623756363.75,-10.2,,,1886708.0
1623756363.765625,-9.17,,,1887233.0
1623756363.78125,-8.6,,,1887174.0
1623756363.796875,-8.51,,,1887606.0
1623756363.8125,-8.85,,,1887748.0
1623756363.828125,-9.6,,,1887891.0
1623756363.84375,-10.72,,,1888450.0
1623756363.859375,-12.2,,,1889404.0
1623756363.875,-13.97,,,1889301.0
1623756363.890625,-15.98,,,1889206.0
1623756363.90625,-18.19,,,1890015.0
1623756363.921875,-20.53,,,1890078.0
1623756363.9375,-22.89,,,1890067.0
1623756363.953125,-24.99,,,1889761.0
1623756363.96875,-26.39,,,1889434.0
1623756363.984375,-26.6,,,1889907.0
1623756364.0,-25.27,,,1889441.0
1623756364.015625,-22.36,,,1890084.0
1623756364.03125,-18.11,,,1890225.0
1623756364.046875,-12.95,,,1890375.0
1623756364.0625,-7.29,,,1890682.0
1623756364.078125,-1.41,,,1890893.0
1623756364.09375,4.58,,,1891266.0
1623756364.109375,10.49,,,1891018.0
1623756364.125,16.03,,,1891494.0
1623756364.140625,20.69,,,1891108.0
1623756364.15625,23.88,,,1890472.0
1623756364.171875,25.22,,,1889733.0
1623756364.1875,24.74,,,1888787.0
1623756364.203125,22.99,,,1888165.0
1623756364.21875,20.85,,,1887766.0
1623756364.234375,19.24,,,1891716.0
1623756364.25,18.78,,,1887632.0
1623756364.265625,19.58,,,1887469.0
1623756364.28125,21.26,,,1887367.0
1623756364.296875,23.14,,,1887134.0
1623756364.3125,24.55,,,1887563.0
1623756364.328125,25.01,,,1887797.0
1623756364.34375,24.41,,,1887641.0
1623756364.359375,22.9,,,1886849.0
1623756364.375,20.87,,,1887315.0
1623756364.390625,18.69,,,1887139.0
1623756364.40625,16.65,,,1886319.0
1623756364.421875,14.81,,,1887183.0
1623756364.4375,13.01,,,1887252.0
1623756364.453125,10.92,,,1886894.0
1623756364.46875,8.18,,,1885553.0
1623756364.484375,4.65,,,1887038.0
1623756364.5,0.49,,,1886777.0
1623756364.515625,-3.86,,,1884609.0
1623756364.53125,-7.87,,,1884089.0
1623756364.546875,-11.26,,,1884108.0
1623756364.5625,-14.18,,,1883986.0
1623756364.578125,-17.22,,,1884208.0
1623756364.59375,-21.08,,,1884263.0
1623756364.609375,-26.21,,,1884687.0
1623756364.625,-32.55,,,1884240.0
1623756364.640625,-39.49,,,1884147.0
1623756364.65625,-45.97,,,1884470.0
1623756364.671875,-50.78,,,1884633.0
1623756364.6875,-52.79,,,1884685.0
1623756364.703125,-51.27,,,1884994.0
1623756364.71875,-46.07,,,1885643.0
1623756364.734375,-37.68,,,1886051.0
1623756364.75,-27.21,,,1886198.0
1623756364.765625,-16.09,,,1886210.0
1623756364.78125,-5.76,,,1886103.0
1623756364.796875,2.78,,,1885907.0
1623756364.8125,9.23,,,1885807.0
1623756364.828125,13.98,,,1885441.0
1623756364.84375,17.93,,,1885372.0
1623756364.859375,22.0,,,1885418.0
1623756364.875,26.82,,,1885634.0
1623756364.890625,32.36,,,1885835.0
1623756364.90625,37.92,,,1886090.0
1623756364.921875,42.38,,,1886416.0
1623756364.9375,44.75,,,1886925.0
1623756364.953125,44.71,,,1887448.0
1623756364.96875,43.0,,,1888579.0
1623756364.984375,41.21,,,1887973.0
1623756365.0,41.2,,,1887301.0
1623756365.015625,44.05,,,1889850.0
1623756365.03125,49.46,,,1889676.0
1623756365.046875,55.57,,,1889823.0
1623756365.0625,59.67,,,1889813.0
1623756365.078125,59.26,,,1889096.0
1623756365.09375,53.12,,,1889104.0
1623756365.109375,41.87,,,1888894.0
1623756365.125,27.62,,,1889128.0
1623756365.140625,13.14,,,1889141.0
1623756365.15625,0.83,,,1888966.0
1623756365.171875,-8.12,,,1888976.0
1623756365.1875,-13.81,,,1889139.0
1623756365.203125,-17.25,,,1889286.0
1623756365.21875,-19.7,,,1889492.0
1623756365.234375,-22.04,,,1889869.0
1623756365.25,-24.53,,,1889973.0
1623756365.265625,-26.97,,,1890069.0
1623756365.28125,-29.11,,,1890353.0
1623756365.296875,-30.91,,,1890744.0
1623756365.3125,-32.56,,,1891340.0
1623756365.328125,-34.1,,,1891473.0
1623756365.34375,-35.15,,,1891058.0
1623756365.359375,-34.93,,,1890975.0
1623756365.375,-32.65,,,1890757.0
1623756365.390625,-28.18,,,1890790.0
1623756365.40625,-22.36,,,1891172.0
1623756365.421875,-16.79,,,1891686.0
1623756365.4375,-12.98,,,1891149.0
1623756365.453125,-11.38,,,1891193.0
1623756365.46875,-10.89,,,1891511.0
1623756365.484375,-9.16,,,1891987.0
1623756365.5,-3.72,,,1892334.0
1623756365.515625,6.86,,,1892571.0
1623756365.53125,22.15,,,1893178.0
1623756365.546875,40.03,,,1893429.0
1623756365.5625,57.45,,,1893868.0
1623756365.578125,71.57,,,1894387.0
1623756365.59375,80.57,,,1894003.0
1623756365.609375,83.87,,,1894086.0
1623756365.625,81.87,,,1893407.0
1623756365.640625,75.51,,,1892928.0
1623756365.65625,65.95,,,1892884.0
1623756365.671875,54.43,,,1893262.0
1623756365.6875,42.27,,,1893392.0
1623756365.703125,30.89,,,1893484.0
1623756365.71875,21.53,,,1893889.0
1623756365.734375,14.97,,,1893755.0
1623756365.75,11.25,,,1894241.0
1623756365.765625,9.64,,,1894728.0
1623756365.78125,8.93,,,1895373.0
1623756365.796875,7.86,,,1895694.0
1623756365.8125,5.68,,,1896383.0
1623756365.828125,2.34,,,1896652.0
1623756365.84375,-1.58,,,1896950.0
1623756365.859375,-5.17,,,1896815.0
1623756365.875,-7.71,,,1896584.0
1623756365.890625,-9.0,,,1896690.0
1623756365.90625,-9.34,,,1896459.0
1623756365.921875,-9.42,,,1896698.0
1623756365.9375,-9.9,,,1896984.0
1623756365.953125,-11.11,,,1897068.0
1623756365.96875,-13.04,,,1897326.0
1623756365.984375,-15.34,,,1897585.0
1623756366.0,-17.64,,,1898453.0
1623756366.015625,-19.75,,,1898946.0
1623756366.03125,-21.68,,,1899429.0
1623756366.046875,-23.53,,,1900128.0
1623756366.0625,-25.45,,,1900686.0
