timestamp,bvp,eda,temp,PPG GREEN
1636977485.03125,53.71,3.479221,35.59,2016708.0
1636977485.046875,62.05,3.488188,35.59,2011193.0
1636977485.0625,68.74,3.49203,35.59,2006278.0
1636977485.078125,73.79,3.49203,35.59,2002169.0
1636977485.09375,77.35,3.500997,35.61,1998562.0
1636977485.109375,79.54,3.534302,35.61,1996187.0
1636977485.125,80.53,3.529178,35.61,1994914.0
1636977485.140625,80.34,3.535583,35.61,1994407.0
1636977485.15625,78.97,3.543268,35.59,1993946.0
1636977485.171875,76.37,3.549673,35.59,1993618.0
1636977485.1875,72.56,3.553516,35.59,1993013.0
1636977485.203125,67.78,3.544549,35.59,1993266.0
1636977485.21875,62.44,3.54583,35.57,1994801.0
1636977485.234375,57.07,3.534302,35.57,1996673.0
1636977485.25,52.2,3.512526,35.57,1999145.0
1636977485.265625,48.13,3.509964,35.57,2000592.0
1636977485.28125,44.93,3.499716,35.59,2001167.0
1636977485.296875,42.49,3.493311,35.59,2002893.0
1636977485.3125,40.56,3.479221,35.59,2004849.0
1636977485.328125,39.0,3.481783,35.59,2007717.0
1636977485.34375,37.72,3.47794,35.59,2010851.0
1636977485.359375,36.69,3.486907,35.59,2014156.0
1636977485.375,35.88,3.490749,35.59,2015076.0
1636977485.390625,35.2,3.502278,35.59,2013633.0
1636977485.40625,34.58,3.525335,35.57,2011747.0
1636977485.421875,34.11,3.547111,35.57,2010423.0
1636977485.4375,33.98,3.568887,35.57,2010027.0
1636977485.453125,34.46,3.579135,35.57,2010158.0
1636977485.46875,35.7,3.58682,35.57,2012447.0
1636977485.484375,37.56,3.593225,35.57,2011025.0
1636977485.5,39.63,3.608596,35.57,2013372.0
1636977485.515625,41.34,3.615001,35.57,2014629.0
1636977485.53125,42.19,3.62781,35.59,2016119.0
1636977485.546875,41.97,3.631653,35.59,2017546.0
1636977485.5625,40.8,3.648306,35.59,2019514.0
1636977485.578125,39.04,3.652148,35.59,2021919.0
1636977485.59375,37.05,3.672644,35.59,2024170.0
1636977485.609375,35.0,3.673925,35.59,2026368.0
1636977485.625,32.83,3.702106,35.59,2028595.0
1636977485.640625,30.27,3.711072,35.59,2030270.0
1636977485.65625,27.1,3.72132,35.57,2033913.0
1636977485.671875,23.19,3.720039,35.57,2031971.0
1636977485.6875,18.62,3.700824,35.57,2035977.0
1636977485.703125,13.54,3.689296,35.57,2038285.0
1636977485.71875,8.17,3.671363,35.59,2036269.0
1636977485.734375,2.84,3.664958,35.59,2038639.0
1636977485.75,-1.98,3.654711,35.59,2032019.0
1636977485.765625,-5.65,3.652148,35.59,2033709.0
1636977485.78125,-7.36,3.650868,35.55,2030670.0
1636977485.796875,-6.47,3.639339,35.55,2030636.0
1636977485.8125,-2.67,3.623968,35.55,2031750.0
1636977485.828125,3.67,3.622687,35.55,2032898.0
1636977485.84375,11.65,3.621406,35.57,2034273.0
1636977485.859375,20.01,3.620125,35.57,2033348.0
1636977485.875,27.55,3.618844,35.57,2035494.0
1636977485.890625,33.43,3.61372,35.57,2037072.0
1636977485.90625,37.27,3.62781,35.57,2038963.0
1636977485.921875,39.1,3.620125,35.57,2040861.0
1636977485.9375,39.19,3.623968,35.57,2042798.0
1636977485.953125,37.94,3.611158,35.57,2044834.0
1636977485.96875,35.79,3.595787,35.55,2046557.0
1636977485.984375,33.23,3.588101,35.55,2048432.0
1636977486.0,30.79,3.604753,35.55,2050945.0
1636977486.015625,28.9,3.630373,35.55,2053395.0
1636977486.03125,27.77,3.659834,35.55,2055751.0
1636977486.046875,27.43,3.668801,35.55,2057946.0
1636977486.0625,27.73,3.693139,35.55,2057658.0
1636977486.078125,28.63,3.707229,35.55,2054924.0
1636977486.09375,30.33,3.707229,35.53,2051279.0
1636977486.109375,33.29,3.703386,35.53,2047987.0
1636977486.125,38.09,3.7226,35.53,2045709.0
1636977486.140625,45.07,3.734129,35.53,2045389.0
1636977486.15625,54.09,3.734129,35.53,2045359.0
1636977486.171875,64.41,3.725163,35.53,2045650.0
1636977486.1875,74.81,3.712353,35.53,2046076.0
1636977486.203125,83.98,3.696982,35.53,2046013.0
1636977486.21875,90.85,3.685453,35.5,2046295.0
1636977486.234375,94.91,3.661115,35.5,2047099.0
1636977486.25,96.25,3.644463,35.5,2047444.0
1636977486.265625,95.44,3.62653,35.5,2047659.0
1636977486.28125,93.24,3.623968,35.53,2048334.0
1636977486.296875,90.24,3.622687,35.53,2048822.0
1636977486.3125,86.54,3.609877,35.53,2049406.0
1636977486.328125,81.44,3.603473,35.53,2050380.0
1636977486.34375,73.48,3.597068,35.5,2051673.0
1636977486.359375,60.72,3.606035,35.5,2053118.0
1636977486.375,41.3,3.590663,35.5,2054010.0
1636977486.390625,14.2,3.57273,35.5,2055870.0
1636977486.40625,-20.25,3.565044,35.53,2057180.0
1636977486.421875,-60.21,3.571449,35.53,2055860.0
1636977486.4375,-102.86,3.579135,35.53,2051757.0
1636977486.453125,-145.16,3.591944,35.53,2047781.0
1636977486.46875,-184.74,3.590663,35.5,2044292.0
1636977486.484375,-220.29,3.597068,35.5,2041495.0
1636977486.5,-251.42,3.606035,35.5,2039627.0
1636977486.515625,-278.26,3.611158,35.5,2038777.0
1636977486.53125,-300.87,3.604753,35.5,2038077.0
1636977486.546875,-319.06,3.600911,35.5,2037050.0
1636977486.5625,-332.46,3.617563,35.5,2036703.0
1636977486.578125,-340.8,3.635496,35.5,2036871.0
1636977486.59375,-343.88,3.649587,35.5,2037216.0
1636977486.609375,-341.62,3.670082,35.5,2038323.0
1636977486.625,-333.7,3.700824,35.5,2039267.0
1636977486.640625,-319.56,3.7226,35.5,2040532.0
1636977486.65625,-298.71,3.727724,35.5,2041491.0
1636977486.671875,-271.14,3.72132,35.5,2042409.0
1636977486.6875,-237.87,3.7226,35.5,2043379.0
1636977486.703125,-200.95,3.73541,35.5,2044472.0
1636977486.71875,-163.1,3.737972,35.49,2045907.0
1636977486.734375,-126.95,3.749501,35.49,2047685.0
1636977486.75,-94.43,3.764872,35.49,2049274.0
1636977486.765625,-66.39,3.766153,35.49,2050145.0
1636977486.78125,-42.73,3.781524,35.5,2047214.0
1636977486.796875,-22.92,3.786648,35.5,2043319.0
1636977486.8125,-6.42,3.781524,35.5,2040301.0
1636977486.828125,7.08,3.76231,35.5,2038042.0
1636977486.84375,17.76,3.759748,35.49,2035824.0
1636977486.859375,25.94,3.740534,35.49,2034073.0
1636977486.875,32.25,3.736691,35.49,2033952.0
1636977486.890625,37.59,3.7226,35.49,2035267.0
1636977486.90625,42.79,3.704667,35.49,2035663.0
1636977486.921875,48.33,3.68161,35.49,2036671.0
1636977486.9375,54.17,3.672644,35.49,2037004.0
1636977486.953125,59.88,3.670082,35.49,2037004.0
1636977486.96875,64.94,3.657272,35.47,2037687.0
1636977486.984375,68.99,3.655991,35.47,2038042.0
1636977487.0,71.94,3.654711,35.47,2039185.0
1636977487.015625,73.9,3.654711,35.47,2040536.0
1636977487.03125,75.01,3.643182,35.47,2041734.0
1636977487.046875,75.37,3.631653,35.47,2042892.0
1636977487.0625,74.92,3.632934,35.47,2044306.0
1636977487.078125,73.57,3.618844,35.47,2045704.0
1636977487.09375,71.16,3.62653,35.47,2047545.0
1636977487.109375,67.57,3.620125,35.47,2049692.0
1636977487.125,62.77,3.625249,35.47,2051312.0
1636977487.140625,56.9,3.635496,35.47,2049831.0
1636977487.15625,50.35,3.661115,35.49,2046260.0
1636977487.171875,43.66,3.679048,35.49,2042694.0
1636977487.1875,37.36,3.682891,35.49,2040298.0
1636977487.203125,31.73,3.682891,35.49,2038706.0
1636977487.21875,26.67,3.688015,35.45,2037585.0
1636977487.234375,21.69,3.689296,35.45,2037426.0
1636977487.25,16.19,3.690577,35.45,2037149.0
1636977487.265625,9.77,3.693139,35.45,2036849.0
1636977487.28125,2.46,3.705948,35.45,2037031.0
1636977487.296875,-5.26,3.725163,35.45,2037056.0
1636977487.3125,-12.73,3.736691,35.45,2038059.0
1636977487.328125,-19.43,3.73541,35.45,2038705.0
1636977487.34375,-25.31,3.741815,35.45,2038780.0
1636977487.359375,-30.71,3.737972,35.45,2038870.0
1636977487.375,-36.3,3.732848,35.45,2039052.0
1636977487.390625,-42.71,3.732848,35.45,2040940.0
1636977487.40625,-50.41,3.750781,35.45,2041747.0
1636977487.421875,-59.58,3.781524,35.45,2044914.0
1636977487.4375,-70.07,3.807143,35.45,2048621.0
1636977487.453125,-81.34,3.823795,35.45,2051562.0
1636977487.46875,-92.36,3.827638,35.45,2053140.0
1636977487.484375,-101.6,3.825076,35.45,2053497.0
1636977487.5,-107.23,3.823795,35.45,2053713.0
1636977487.515625,-107.53,3.810986,35.45,2055441.0
1636977487.53125,-101.42,3.793052,35.45,2058978.0
1636977487.546875,-88.86,3.794333,35.45,2062339.0
1636977487.5625,-71.03,3.802019,35.45,2062334.0
1636977487.578125,-49.87,3.798176,35.45,2060560.0
1636977487.59375,-27.61,3.795614,35.43,2060227.0
1636977487.609375,-6.09,3.782805,35.43,2061477.0
1636977487.625,13.51,3.768715,35.43,2060626.0
1636977487.640625,30.7,3.759748,35.43,2061958.0
1636977487.65625,45.41,3.750781,35.43,2064798.0
1636977487.671875,57.65,3.740534,35.43,2065403.0
1636977487.6875,67.42,3.729005,35.43,2067939.0
1636977487.703125,74.66,3.727724,35.43,2072183.0
1636977487.71875,79.43,3.727724,35.41,2076022.0
1636977487.734375,82.02,3.729005,35.41,2079743.0
1636977487.75,83.0,3.718758,35.41,2083287.0
1636977487.765625,83.13,3.707229,35.41,2090445.0
1636977487.78125,83.11,3.699543,35.43,2096179.0
1636977487.796875,83.46,3.699543,35.43,2094055.0
1636977487.8125,84.32,3.705948,35.43,2090044.0
1636977487.828125,85.55,3.704667,35.43,2086269.0
1636977487.84375,86.85,3.695701,35.43,2082369.0
1636977487.859375,87.91,3.69442,35.43,2081539.0
1636977487.875,88.56,3.691858,35.43,2080742.0
1636977487.890625,88.79,3.680329,35.43,2083047.0
1636977487.90625,88.67,3.66752,35.43,2084079.0
1636977487.921875,88.17,3.658553,35.43,2085396.0
1636977487.9375,87.17,3.650868,35.43,2087384.0
1636977487.953125,85.43,3.662396,35.43,2089916.0
1636977487.96875,82.71,3.672644,35.41,2092294.0
1636977487.984375,78.88,3.691858,35.41,2095055.0
1636977488.0,74.01,3.709791,35.41,2097730.0
1636977488.015625,68.32,3.720039,35.41,2100279.0
1636977488.03125,62.08,3.737972,35.39,2103086.0
1636977488.046875,55.56,3.744377,35.39,2105790.0
1636977488.0625,48.97,3.740534,35.39,2105790.0
1636977488.078125,42.48,3.73541,35.39,2108464.0
1636977488.09375,36.29,3.740534,35.39,2111791.0
1636977488.109375,30.53,3.750781,35.39,2112235.0
1636977488.125,25.27,3.761029,35.39,2110335.0
1636977488.140625,20.35,3.754624,35.39,2108961.0
1636977488.15625,15.46,3.740534,35.39,2107447.0
1636977488.171875,10.19,3.734129,35.39,2106616.0
1636977488.1875,4.24,3.73541,35.39,2106466.0
1636977488.203125,-2.5,3.730286,35.39,2107362.0
1636977488.21875,-9.85,3.736691,35.39,2108311.0
1636977488.234375,-17.49,3.785367,35.39,2109121.0
1636977488.25,-25.05,3.854538,35.39,2109806.0
1636977488.265625,-32.33,3.903214,35.39,2110676.0
1636977488.28125,-39.31,3.932676,35.39,2112435.0
1636977488.296875,-46.19,3.933957,35.39,2113895.0
1636977488.3125,-53.3,3.928833,35.39,2115269.0
1636977488.328125,-61.07,3.919866,35.39,2116992.0
1636977488.34375,-69.84,3.905776,35.39,2118344.0
1636977488.359375,-79.7,3.913461,35.39,2120242.0
1636977488.375,-90.19,3.936518,35.39,2122273.0
1636977488.390625,-100.17,3.944204,35.39,2124002.0
1636977488.40625,-107.91,3.948517,35.37,2123994.0
1636977488.421875,-111.47,3.93827,35.37,2121202.0
1636977488.4375,-109.32,3.916494,35.37,2117737.0
1636977488.453125,-100.83,3.91137,35.37,2114835.0
1636977488.46875,-86.57,3.894718,35.37,2112465.0
1636977488.484375,-68.1,3.888313,35.37,2111250.0
1636977488.5,-47.54,3.881908,35.37,2111109.0
1636977488.515625,-26.92,3.87038,35.37,2110675.0
1636977488.53125,-7.72,3.847323,35.37,2110966.0
1636977488.546875,9.26,3.840918,35.37,2111158.0
1636977488.5625,23.78,3.825547,35.37,2112947.0
1636977488.578125,35.91,3.807613,35.37,2116901.0
1636977488.59375,45.73,3.793523,35.34,2120419.0
1636977488.609375,53.26,3.798647,35.34,2123617.0
1636977488.625,58.53,3.824266,35.34,2126523.0
1636977488.640625,61.66,3.855008,35.34,2130326.0
1636977488.65625,62.96,3.869099,35.34,2133424.0
1636977488.671875,62.93,3.871661,35.34,2135945.0
1636977488.6875,62.17,3.876784,35.34,2137882.0
1636977488.703125,61.23,3.871661,35.34,2137648.0
1636977488.71875,60.5,3.875504,35.33,2134471.0
1636977488.734375,60.16,3.901122,35.33,2131031.0
1636977488.75,60.2,3.966451,35.33,2127946.0
1636977488.765625,60.54,4.04715,35.33,2126643.0
1636977488.78125,61.06,4.11504,35.34,2128922.0
1636977488.796875,61.63,4.147064,35.34,2133426.0
1636977488.8125,62.14,4.138097,35.34,2136069.0
1636977488.828125,62.41,4.124007,35.34,2135967.0
1636977488.84375,62.28,4.120164,35.33,2133431.0
1636977488.859375,61.52,4.090703,35.33,2130666.0
1636977488.875,59.9,4.068926,35.33,2128796.0
1636977488.890625,57.23,4.042027,35.33,2127210.0
1636977488.90625,53.37,4.00616,35.33,2127543.0
1636977488.921875,48.3,3.977979,35.33,2127174.0
1636977488.9375,42.19,3.954922,35.33,2127100.0
1636977488.953125,35.4,3.919056,35.33,2126836.0
1636977488.96875,28.4,3.88447,35.33,2127100.0
1636977488.984375,21.7,3.865256,35.33,2127708.0
1636977489.0,15.67,3.860132,35.33,2127027.0
1636977489.015625,10.41,3.867818,35.33,2122465.0
1636977489.03125,5.73,3.885751,35.31,2116545.0
1636977489.046875,1.17,3.871661,35.31,2110445.0
1636977489.0625,-3.75,3.869099,35.31,2104526.0
1636977489.078125,-9.35,3.866537,35.31,2099349.0
1636977489.09375,-15.54,3.856289,35.33,2096195.0
1636977489.109375,-21.94,3.844761,35.33,2093898.0
1636977489.125,-27.97,3.829389,35.33,2092050.0
1636977489.140625,-33.17,3.828109,35.33,2090017.0
1636977489.15625,-37.44,3.834513,35.31,2088689.0
1636977489.171875,-41.11,3.833232,35.31,2087676.0
1636977489.1875,-44.84,3.825547,35.31,2087190.0
1636977489.203125,-49.38,3.808894,35.31,2087064.0
1636977489.21875,-55.36,3.803771,35.31,2087090.0
1636977489.234375,-63.11,3.790961,35.31,2087139.0
1636977489.25,-72.6,3.783275,35.31,2087901.0
1636977489.265625,-83.22,3.774309,35.31,2088458.0
1636977489.28125,-93.79,3.78968,35.31,2089242.0
1636977489.296875,-102.52,3.828109,35.31,2089937.0
1636977489.3125,-107.4,3.867818,35.31,2091252.0
1636977489.328125,-106.66,3.892156,35.31,2090073.0
1636977489.34375,-99.42,3.903684,35.31,2084960.0
1636977489.359375,-86.02,3.904965,35.31,2079585.0
1636977489.375,-67.98,3.895999,35.31,2074482.0
1636977489.390625,-47.54,3.878065,35.31,2069418.0
1636977489.40625,-26.94,3.866537,35.29,2065589.0
1636977489.421875,-7.87,3.846042,35.29,2063583.0
1636977489.4375,8.83,3.847323,35.29,2061886.0
1636977489.453125,22.99,3.834513,35.29,2060963.0
1636977489.46875,34.8,3.814018,35.29,2059987.0
1636977489.484375,44.44,3.78968,35.29,2059135.0
1636977489.5,51.98,3.765342,35.29,2058806.0
1636977489.515625,57.4,3.751252,35.29,2058910.0
1636977489.53125,60.8,3.765342,35.29,2058940.0
1636977489.546875,62.47,3.788399,35.29,2059979.0
1636977489.5625,62.95,3.820423,35.29,2062302.0
1636977489.578125,62.81,3.824266,35.29,2065077.0
1636977489.59375,62.62,3.838356,35.27,2067996.0
1636977489.609375,62.73,3.826828,35.27,2071407.0
1636977489.625,63.23,3.807613,35.27,2077730.0
1636977489.640625,64.02,3.779433,35.27,2085618.0
1636977489.65625,64.83,3.78968,35.27,2091399.0
1636977489.671875,65.36,3.839637,35.27,2090916.0
1636977489.6875,65.42,3.933146,35.27,2086602.0
1636977489.703125,64.95,4.00616,35.27,2081023.0
1636977489.71875,64.03,4.062521,35.27,2076913.0
1636977489.734375,62.75,4.099669,35.27,2072924.0
1636977489.75,61.1,4.122726,35.27,2071606.0
1636977489.765625,58.94,4.11504,35.27,2071423.0
1636977489.78125,55.98,4.093264,35.29,2070728.0
1636977489.796875,51.88,4.058679,35.29,2070052.0
1636977489.8125,46.49,4.061241,35.29,2069215.0
1636977489.828125,39.93,4.111197,35.29,2069582.0
1636977489.84375,32.66,4.158592,35.27,2069508.0
1636977489.859375,25.27,4.213673,35.27,2069275.0
1636977489.875,18.37,4.225202,35.27,2068227.0
1636977489.890625,12.28,4.22264,35.27,2067190.0
1636977489.90625,6.99,4.198302,35.29,2067616.0
1636977489.921875,2.26,4.166278,35.29,2068230.0
1636977489.9375,-2.35,4.12785,35.29,2068984.0
1636977489.953125,-7.23,4.132974,35.29,2070097.0
1636977489.96875,-12.6,4.157311,35.25,2071420.0
1636977489.984375,-18.48,4.184211,35.25,2072879.0
1636977490.0,-24.63,4.197021,35.25,2074224.0
1636977490.015625,-30.76,4.185492,35.25,2072987.0
1636977490.03125,-36.55,4.159873,35.25,2069658.0
1636977490.046875,-41.86,4.122726,35.25,2066553.0
1636977490.0625,-46.7,4.081736,35.25,2063404.0
1636977490.078125,-51.32,4.03306,35.25,2060360.0
1636977490.09375,-56.07,3.999755,35.25,2058979.0
1636977490.109375,-61.39,3.943393,35.25,2058561.0
1636977490.125,-67.66,3.899842,35.25,2058645.0
1636977490.140625,-75.04,3.85757,35.25,2058410.0
1636977490.15625,-83.38,3.820423,35.25,2058886.0
1636977490.171875,-92.02,3.817861,35.25,2059679.0
1636977490.1875,-99.71,3.839637,35.25,2060341.0
1636977490.203125,-104.79,3.851166,35.25,2061637.0
1636977490.21875,-105.54,3.861413,35.25,2064353.0
1636977490.234375,-100.71,3.85757,35.25,2065919.0
1636977490.25,-89.94,3.851166,35.25,2067412.0
1636977490.265625,-73.97,3.829389,35.25,2067912.0
1636977490.28125,-54.46,3.80249,35.23,2063029.0
1636977490.296875,-33.46,3.77559,35.23,2067762.0
1636977490.3125,-12.93,3.758937,35.23,2068274.0
1636977490.328125,5.73,3.746128,35.23,2067184.0
1636977490.34375,21.77,3.742285,35.21,2070410.0
1636977490.359375,34.92,3.749971,35.21,2066607.0
1636977490.375,45.19,3.737161,35.21,2070043.0
1636977490.390625,52.68,3.728195,35.21,2062030.0
1636977490.40625,57.54,3.716666,35.21,2059509.0
1636977490.421875,60.03,3.714104,35.21,2064027.0
1636977490.4375,60.54,3.7346,35.21,2059658.0
1636977490.453125,59.66,3.797366,35.21,2061015.0
1636977490.46875,58.01,3.869099,35.23,2062142.0
1636977490.484375,56.14,3.935708,35.23,2063253.0
1636977490.5,54.41,3.948517,35.23,2071748.0
1636977490.515625,52.98,3.951079,35.23,2077359.0
1636977490.53125,51.83,3.945956,35.21,2065748.0
1636977490.546875,50.96,3.930584,35.21,2081583.0
1636977490.5625,50.34,3.916494,35.21,2081542.0
1636977490.578125,50.0,3.910089,35.21,2079585.0
1636977490.59375,49.91,3.939551,35.21,2078480.0
1636977490.609375,49.94,3.975417,35.21,2079671.0
1636977490.625,49.76,3.980541,35.21,2080986.0
1636977490.640625,48.91,3.970294,35.21,2082565.0
1636977490.65625,46.98,3.953641,35.21,2083486.0
1636977490.671875,43.66,3.919056,35.21,2085953.0
1636977490.6875,38.95,3.903684,35.21,2088354.0
1636977490.703125,33.15,3.879346,35.21,2091146.0
1636977490.71875,26.81,3.861413,35.21,2092138.0
1636977490.734375,20.53,3.839637,35.21,2090843.0
1636977490.75,14.76,3.828109,35.21,2089008.0
1636977490.765625,9.62,3.817861,35.21,2087062.0
1636977490.78125,4.93,3.776871,35.18,2085792.0
1636977490.796875,0.33,3.751252,35.18,2084733.0
1636977490.8125,-4.55,3.732038,35.18,2085037.0
1636977490.828125,-9.88,3.729476,35.18,2084991.0
1636977490.84375,-15.55,3.719228,35.21,2084834.0
1636977490.859375,-21.28,3.717947,35.21,2085456.0
1636977490.875,-26.71,3.717947,35.21,2085729.0
1636977490.890625,-31.61,3.733319,35.21,2086740.0
1636977490.90625,-35.93,3.7346,35.18,2058737.0
1636977490.921875,-39.91,3.738442,35.18,2087378.0
1636977490.9375,-43.95,3.738442,35.18,2088863.0
1636977490.953125,-48.57,3.738442,35.18,2088863.0
1636977490.96875,-54.27,3.742285,35.16,2090059.0
1636977490.984375,-61.3,3.746128,35.16,2091158.0
1636977491.0,-69.49,3.742285,35.16,2092540.0
1636977491.015625,-78.08,3.730757,35.16,2093947.0
1636977491.03125,-85.69,3.723071,35.16,2099759.0
1636977491.046875,-90.57,3.717947,35.16,2098287.0
1636977491.0625,-91.05,3.728195,35.16,2095106.0
1636977491.078125,-86.05,3.811456,35.16,2096800.0
1636977491.09375,-75.42,3.967731,35.18,2101092.0
1636977491.109375,-60.11,4.161154,35.18,2100169.0
1636977491.125,-41.92,4.294373,35.18,2096693.0
1636977491.140625,-22.93,4.337925,35.18,2093443.0
1636977491.15625,-5.03,4.362263,35.16,2091467.0
1636977491.171875,10.52,4.357139,35.16,2088496.0
1636977491.1875,23.2,4.330239,35.16,2089316.0
1636977491.203125,33.0,4.272596,35.16,2087307.0
1636977491.21875,40.14,4.208549,35.16,2085355.0
1636977491.234375,44.87,4.163716,35.16,2086664.0
1636977491.25,47.39,4.111197,35.16,2088205.0
1636977491.265625,47.96,4.045869,35.16,2087381.0
1636977491.28125,47.04,3.999755,35.16,2089554.0
1636977491.296875,45.25,3.95236,35.16,2088268.0
1636977491.3125,43.33,3.926741,35.16,2093688.0
1636977491.328125,41.89,3.915213,35.16,2091261.0
1636977491.34375,41.29,3.924179,35.18,2095800.0
1636977491.359375,41.58,3.929303,35.18,2098130.0
1636977491.375,42.55,3.939551,35.18,2100946.0
1636977491.390625,43.88,3.943393,35.18,2105811.0
1636977491.40625,45.19,3.93827,35.15,2110697.0
1636977491.421875,46.1,3.917775,35.15,2114731.0
1636977491.4375,46.28,3.889594,35.15,2114911.0
1636977491.453125,45.4,3.874223,35.15,2112497.0
1636977491.46875,43.24,3.865256,35.15,2108741.0
1636977491.484375,39.73,3.866537,35.15,2105342.0
1636977491.5,35.0,3.867818,35.15,2103188.0
1636977491.515625,29.4,3.867818,35.15,2101954.0
1636977491.53125,23.42,3.851166,35.15,2101244.0
1636977491.546875,17.53,3.846042,35.15,2100450.0
1636977491.5625,12.07,3.848604,35.15,2098865.0
1636977491.578125,7.04,3.842199,35.15,2098150.0
1636977491.59375,2.14,3.829389,35.15,2097951.0
1636977491.609375,-3.05,3.831951,35.15,2098127.0
1636977491.625,-8.98,3.840918,35.15,2098337.0
1636977491.640625,-15.82,3.834513,35.15,2098670.0
1636977491.65625,-23.47,3.817861,35.13,2098810.0
1636977491.671875,-31.54,3.803771,35.13,2099671.0
1636977491.6875,-39.57,3.796085,35.13,2099991.0
1636977491.703125,-47.15,3.78968,35.13,2100611.0
1636977491.71875,-54.1,3.792242,35.15,2101243.0
1636977491.734375,-60.5,3.788399,35.15,2102303.0
1636977491.75,-66.68,3.799928,35.15,2103163.0
1636977491.765625,-73.24,3.805052,35.15,2102457.0
1636977491.78125,-80.75,3.797366,35.15,2098294.0
1636977491.796875,-89.6,3.785837,35.15,2093310.0
1636977491.8125,-99.57,3.769185,35.15,2088886.0
1636977491.828125,-109.63,3.773028,35.15,2084207.0
1636977491.84375,-117.99,3.77559,35.11,2080661.0
1636977491.859375,-122.53,3.769185,35.11,2078288.0
1636977491.875,-121.42,3.766623,35.11,2076249.0
1636977491.890625,-113.78,3.778152,35.11,2074799.0
1636977491.90625,-99.94,3.773028,35.13,2073206.0
1636977491.921875,-81.39,3.769185,35.13,2071397.0
1636977491.9375,-60.34,3.769185,35.13,2070313.0
1636977491.953125,-39.02,3.767904,35.13,2069010.0
1636977491.96875,-19.25,3.781994,35.13,2068739.0
1636977491.984375,-2.05,3.801209,35.13,2068415.0
1636977492.0,12.23,3.81658,35.13,2068192.0
1636977492.015625,23.77,3.834513,35.13,2068297.0
1636977492.03125,32.94,3.846042,35.11,2068756.0
1636977492.046875,40.12,3.867818,35.11,2068621.0
1636977492.0625,45.56,3.892156,35.11,2069023.0
1636977492.078125,49.44,3.913932,35.11,2070140.0
1636977492.09375,51.94,3.928022,35.11,2071537.0
1636977492.109375,53.32,3.929303,35.11,2068456.0
1636977492.125,53.91,3.940832,35.11,2063732.0
1636977492.140625,54.08,3.947236,35.11,2058926.0
1636977492.15625,54.09,3.940832,35.11,2054083.0
1636977492.171875,54.1,3.944674,35.11,2049889.0
1636977492.1875,54.13,3.960046,35.11,2047690.0
1636977492.203125,54.17,3.974136,35.11,2047000.0
1636977492.21875,54.17,3.977979,35.11,2045264.0
1636977492.234375,54.08,3.972855,35.11,2043616.0
1636977492.25,53.76,3.967731,35.11,2042316.0
1636977492.265625,52.95,3.975417,35.11,2041853.0
1636977492.28125,51.33,3.970294,35.11,2042277.0
1636977492.296875,48.62,3.953641,35.11,2043469.0
1636977492.3125,44.7,3.92546,35.11,2043974.0
1636977492.328125,39.65,3.924179,35.11,2045513.0
1636977492.34375,33.78,3.91137,35.11,2046213.0
1636977492.359375,27.47,3.903684,35.11,2048386.0
1636977492.375,21.03,3.892156,35.11,2052064.0
1636977492.390625,14.58,3.890875,35.11,2055121.0
1636977492.40625,8.1,3.899842,35.11,2057911.0
1636977492.421875,1.46,3.892156,35.11,2062945.0
1636977492.4375,-5.36,3.88447,35.11,2062945.0
1636977492.453125,-12.26,3.871661,35.11,2064580.0
1636977492.46875,-19.0,3.861413,35.11,2061826.0
1636977492.484375,-25.33,3.862694,35.11,2056698.0
1636977492.5,-31.14,3.863975,35.11,2049867.0
1636977492.515625,-36.58,3.865256,35.11,2042940.0
1636977492.53125,-42.0,3.866537,35.09,2037324.0
1636977492.546875,-47.89,3.871661,35.09,2034873.0
1636977492.5625,-54.74,3.894718,35.09,2032260.0
1636977492.578125,-62.83,3.913932,35.09,2029800.0
1636977492.59375,-72.09,3.928022,35.07,2027629.0
1636977492.609375,-81.99,3.93827,35.07,2026071.0
1636977492.625,-91.48,3.948517,35.07,2025498.0
1636977492.640625,-99.03,3.956203,35.07,2024771.0
1636977492.65625,-102.9,3.958765,35.07,2025064.0
1636977492.671875,-101.58,3.953641,35.07,2025193.0
1636977492.6875,-94.23,3.95236,35.07,2024663.0
1636977492.703125,-81.02,3.940832,35.07,2023689.0
1636977492.71875,-63.21,3.929303,35.07,2022397.0
1636977492.734375,-42.81,3.915213,35.07,2021637.0
1636977492.75,-22.0,3.904965,35.07,2021288.0
1636977492.765625,-2.61,3.893437,35.07,2021463.0
1636977492.78125,14.31,3.899842,35.07,2022397.0
1636977492.796875,28.4,3.894718,35.07,2021002.0
1636977492.8125,39.8,3.894718,35.07,2015837.0
1636977492.828125,48.79,3.88447,35.07,2010734.0
1636977492.84375,55.54,3.88447,35.07,2006148.0
1636977492.859375,60.1,3.881908,35.07,2001970.0
1636977492.875,62.57,3.878065,35.07,1998434.0
1636977492.890625,63.17,3.883189,35.07,1996966.0
1636977492.90625,62.32,3.906246,35.03,1995596.0
1636977492.921875,60.5,3.936989,35.03,1994267.0
1636977492.9375,58.21,3.95236,35.03,1993375.0
1636977492.953125,55.84,3.936989,35.03,1992892.0
1636977492.96875,53.63,3.934427,35.05,1993058.0
1636977492.984375,51.73,3.931865,35.05,1993527.0
1636977493.0,50.21,3.916494,35.05,1994483.0
1636977493.015625,49.04,3.91137,35.05,1995560.0
1636977493.03125,48.07,3.912651,35.05,1996502.0
1636977493.046875,47.05,3.917775,35.05,1997633.0
1636977493.0625,45.68,3.935708,35.05,1999071.0
1636977493.078125,43.68,3.92546,35.05,2000530.0
1636977493.09375,40.91,3.929303,35.05,2001869.0
1636977493.109375,37.37,3.939551,35.05,2003471.0
1636977493.125,33.08,3.962608,35.05,2002335.0
1636977493.140625,28.11,3.984384,35.05,1998032.0
1636977493.15625,22.47,4.008722,35.03,1992861.0
1636977493.171875,16.2,4.029217,35.03,1988854.0
1636977493.1875,9.41,4.067645,35.03,1985407.0
1636977493.203125,2.4,4.058679,35.03,1981993.0
1636977493.21875,-4.39,4.063802,35.05,1979180.0
1636977493.234375,-10.57,4.050993,35.05,1977023.0
1636977493.25,-15.89,4.03306,35.05,1975975.0
1636977493.265625,-20.46,4.025374,35.05,1975484.0
1636977493.28125,-24.63,4.02025,35.03,1975327.0
1636977493.296875,-28.97,4.015127,35.03,1976219.0
1636977493.3125,-34.02,4.003598,35.03,1977750.0
1636977493.328125,-40.17,3.983103,35.03,1981948.0
1636977493.34375,-47.57,3.96517,35.03,1988232.0
1636977493.359375,-56.22,3.948517,35.03,1991787.0
1636977493.375,-65.82,3.931865,35.03,1994095.0
1636977493.390625,-75.69,3.922899,35.03,1994478.0
1636977493.40625,-84.66,3.922899,35.03,1994101.0
1636977493.421875,-91.1,3.940832,35.03,1992769.0
1636977493.4375,-93.21,3.975417,35.03,1989353.0
1636977493.453125,-89.54,3.993351,35.03,1985437.0
1636977493.46875,-79.6,3.997193,35.03,1981926.0
1636977493.484375,-64.1,3.992069,35.03,1979201.0
1636977493.5,-44.84,3.993351,35.03,1977713.0
1636977493.515625,-24.11,3.989508,35.03,1977160.0
1636977493.53125,-4.1,3.989508,35.03,1977041.0
1636977493.546875,13.7,4.002317,35.03,1976050.0
1636977493.5625,28.66,4.011284,35.03,1975710.0
1636977493.578125,40.79,4.004879,35.03,1976070.0
1636977493.59375,50.37,3.994631,35.03,1977184.0
1636977493.609375,57.66,3.97926,35.03,1978313.0
1636977493.625,62.73,3.969012,35.03,1980074.0
1636977493.640625,65.63,3.95236,35.03,1981743.0
1636977493.65625,66.53,3.960046,35.03,1983297.0
1636977493.671875,65.88,3.963889,35.03,1985042.0
1636977493.6875,64.39,3.947236,35.03,1986976.0
1636977493.703125,62.84,3.939551,35.03,1988779.0
1636977493.71875,61.85,3.919056,35.0,1988901.0
1636977493.734375,61.64,3.912651,35.0,1984817.0
1636977493.75,61.99,3.901122,35.0,1979990.0
1636977493.765625,62.39,3.88447,35.0,1976000.0
1636977493.78125,62.31,3.88447,35.0,1972455.0
1636977493.796875,61.47,3.883189,35.0,1969887.0
1636977493.8125,59.85,3.883189,35.0,1969147.0
1636977493.828125,57.65,3.878065,35.0,1969060.0
1636977493.84375,55.11,3.865256,35.0,1968988.0
1636977493.859375,52.27,3.861413,35.0,1969423.0
1636977493.875,48.96,3.853727,35.0,1969883.0
1636977493.890625,44.87,3.861413,35.0,1971219.0
1636977493.90625,39.75,3.871661,35.0,1972585.0
1636977493.921875,33.56,3.872941,35.0,1974261.0
1636977493.9375,26.52,3.885751,35.0,1976327.0
1636977493.953125,19.03,3.89728,35.0,1978527.0
1636977493.96875,11.49,3.894718,35.03,1980747.0
1636977493.984375,4.19,3.889594,35.03,1982889.0
1636977494.0,-2.73,3.874223,35.03,1985254.0
1636977494.015625,-9.34,3.872941,35.03,1988072.0
1636977494.03125,-15.85,3.878065,35.0,1990360.0
1636977494.046875,-22.56,3.892156,35.0,1988529.0
1636977494.0625,-29.82,3.894718,35.0,1986339.0
1636977494.078125,-37.94,3.876784,35.0,1984242.0
1636977494.09375,-47.08,3.866537,35.0,1982178.0
1636977494.109375,-57.17,3.853727,35.0,1980549.0
1636977494.125,-67.79,3.848604,35.0,1979569.0
1636977494.140625,-78.11,3.839637,35.0,1977977.0
1636977494.15625,-86.89,3.838356,35.0,1977246.0
1636977494.171875,-92.61,3.840918,35.0,1976647.0
1636977494.1875,-93.84,3.852447,35.0,1978788.0
1636977494.203125,-89.6,3.87038,35.0,1982407.0
1636977494.21875,-79.77,3.883189,34.99,1984654.0
1636977494.234375,-65.2,3.88447,34.99,1986257.0
1636977494.25,-47.56,3.894718,34.99,1986372.0
1636977494.265625,-28.86,3.889594,34.99,1986946.0
1636977494.28125,-10.86,3.901122,35.0,1988142.0
1636977494.296875,5.27,3.893437,35.0,1990473.0
1636977494.3125,19.14,3.887032,35.0,1992588.0
1636977494.328125,30.83,3.878065,35.0,1995088.0
1636977494.34375,40.59,3.879346,34.99,1996032.0
1636977494.359375,48.53,3.866537,34.99,1993528.0
1636977494.375,54.5,3.852447,34.99,1989622.0
1636977494.390625,58.29,3.838356,34.99,1986018.0
1636977494.40625,59.84,3.831951,34.99,1983101.0
1636977494.421875,59.38,3.83067,34.99,1980996.0
1636977494.4375,57.45,3.838356,34.99,1980061.0
1636977494.453125,54.82,3.848604,34.99,1980703.0
1636977494.46875,52.15,3.837075,34.99,1980699.0
1636977494.484375,49.93,3.828109,34.99,1980963.0
1636977494.5,48.34,3.826828,34.99,1981373.0
1636977494.515625,47.31,3.828109,34.99,1982449.0
1636977494.53125,46.57,3.822985,34.97,1983736.0
1636977494.546875,45.74,3.821704,34.97,1985461.0
1636977494.5625,44.48,3.828109,34.97,1987112.0
1636977494.578125,42.46,3.833232,34.97,1989072.0
1636977494.59375,39.54,3.840918,34.99,1990967.0
1636977494.609375,35.71,3.826828,34.99,1993006.0
1636977494.625,31.1,3.808894,34.99,1994971.0
1636977494.640625,25.88,3.812737,34.99,1997106.0
1636977494.65625,20.21,3.810175,34.97,1999284.0
1636977494.671875,14.17,3.822985,34.97,2001297.0
1636977494.6875,7.77,3.820423,34.97,1999279.0
1636977494.703125,1.03,3.815299,34.97,1995044.0
1636977494.71875,-5.97,3.821704,34.99,1991210.0
1636977494.734375,-13.06,3.820423,34.99,1987901.0
1636977494.75,-20.03,3.814018,34.99,1985164.0
1636977494.765625,-26.69,3.801209,34.99,1983591.0
1636977494.78125,-32.92,3.790961,34.95,1983806.0
1636977494.796875,-38.72,3.78968,34.95,1983826.0
1636977494.8125,-44.18,3.797366,34.95,1983748.0
1636977494.828125,-49.48,3.799928,34.95,1984125.0
1636977494.84375,-54.9,3.794804,34.97,1984992.0
1636977494.859375,-60.82,3.788399,34.97,1985298.0
1636977494.875,-67.62,3.784556,34.97,1985814.0
1636977494.890625,-75.6,3.78968,34.97,1986638.0
1636977494.90625,-84.74,3.784556,34.97,1986808.0
1636977494.921875,-94.44,3.783275,34.97,1987655.0
1636977494.9375,-103.5,3.779433,34.97,1988106.0
1636977494.953125,-110.18,3.781994,34.97,1988811.0
1636977494.96875,-112.69,3.796085,34.95,1989902.0
1636977494.984375,-109.69,3.785837,34.95,1991524.0
1636977495.0,-100.78,3.77559,34.95,1992789.0
1636977495.015625,-86.64,3.767904,34.95,1991385.0
1636977495.03125,-68.85,3.77559,34.95,1990759.0
1636977495.046875,-49.38,3.776871,34.95,1993200.0
1636977495.0625,-29.97,3.769185,34.95,1993465.0
1636977495.078125,-11.78,3.774309,34.95,1993405.0
1636977495.09375,4.72,3.769185,34.97,1992654.0
1636977495.109375,19.52,3.774309,34.97,1991257.0
1636977495.125,32.71,3.774309,34.97,1989058.0
1636977495.140625,44.24,3.755095,34.97,1988340.0
1636977495.15625,53.86,3.747409,34.93,1988772.0
1636977495.171875,61.18,3.751252,34.93,1990124.0
1636977495.1875,65.96,3.758937,34.93,1992906.0
1636977495.203125,68.24,3.767904,34.93,1996738.0
1636977495.21875,68.44,3.77559,34.95,2000540.0
1636977495.234375,67.22,3.784556,34.95,2004174.0
1636977495.25,65.33,3.788399,34.95,2007423.0
1636977495.265625,63.33,3.796085,34.95,2009988.0
1636977495.28125,61.54,3.785837,34.95,2012276.0
1636977495.296875,60.01,3.778152,34.95,2014634.0
1636977495.3125,58.71,3.785837,34.95,2017243.0
1636977495.328125,57.53,3.787118,34.95,2018028.0
1636977495.34375,56.41,3.784556,34.93,2014704.0
1636977495.359375,55.28,3.781994,34.93,2010205.0
1636977495.375,53.95,3.769185,34.93,2005881.0
1636977495.390625,52.13,3.766623,34.93,2002506.0
1636977495.40625,49.43,3.774309,34.93,1999335.0
1636977495.421875,45.55,3.787118,34.93,1998228.0
1636977495.4375,40.45,3.781994,34.93,1998220.0
1636977495.453125,34.4,3.769185,34.93,1998439.0
1636977495.46875,27.94,3.76278,34.93,1998735.0
1636977495.484375,21.67,3.770466,34.93,1999202.0
1636977495.5,15.97,3.780714,34.93,2000040.0
1636977495.515625,10.87,3.80249,34.93,2002520.0
1636977495.53125,6.01,3.806332,34.93,2001142.0
1636977495.546875,0.88,3.81658,34.93,2004309.0
1636977495.5625,-4.92,3.820423,34.93,2006031.0
1636977495.578125,-11.46,3.814018,34.93,2007553.0
1636977495.59375,-18.46,3.803771,34.91,2009803.0
1636977495.609375,-25.37,3.810175,34.91,2012034.0
1636977495.625,-31.73,3.812737,34.91,2014046.0
1636977495.640625,-37.41,3.822985,34.91,2016449.0
1636977495.65625,-42.7,3.815299,34.89,2017920.0
1636977495.671875,-48.19,3.817861,34.89,2015291.0
1636977495.6875,-54.58,3.799928,34.89,2011630.0
1636977495.703125,-62.35,3.78968,34.89,2008080.0
1636977495.71875,-71.65,3.787118,34.91,2005071.0
1636977495.734375,-82.1,3.794804,34.91,2003146.0
1636977495.75,-92.76,3.78968,34.91,2002515.0
1636977495.765625,-102.23,3.780714,34.91,2001597.0
1636977495.78125,-108.79,3.767904,34.89,2001036.0
1636977495.796875,-110.83,3.764061,34.89,2001583.0
1636977495.8125,-107.29,3.764061,34.89,2001583.0
1636977495.828125,-98.02,3.760218,34.89,2004015.0
1636977495.84375,-83.85,3.760218,34.91,2007486.0
1636977495.859375,-66.4,3.74869,34.91,2011419.0
1636977495.875,-47.48,3.744847,34.91,2017145.0
1636977495.890625,-28.64,3.742285,34.91,2024058.0
1636977495.90625,-10.8,3.747409,34.89,2031065.0
1636977495.921875,5.71,3.752533,34.89,2034305.0
1636977495.9375,20.95,3.755095,34.89,2034735.0
1636977495.953125,34.92,3.767904,34.89,2033733.0
1636977495.96875,47.4,3.776871,34.93,2033163.0
1636977495.984375,57.91,3.785837,34.93,2034733.0
1636977496.0,65.83,3.793523,34.93,2034772.0
1636977496.015625,70.89,3.799928,34.93,2031011.0
1636977496.03125,73.23,3.803771,34.91,2027043.0
1636977496.046875,73.58,3.806332,34.91,2023667.0
1636977496.0625,72.97,3.812737,34.91,2021667.0
1636977496.078125,72.27,3.819142,34.91,2020230.0
1636977496.09375,71.99,3.833232,34.91,2020256.0
1636977496.109375,72.01,3.860132,34.91,2020482.0
1636977496.125,71.84,3.880627,34.91,2020370.0
1636977496.140625,70.98,3.903684,34.91,2020307.0
1636977496.15625,69.25,3.920336,34.91,2020930.0
1636977496.171875,66.91,3.935708,34.91,2021699.0
1636977496.1875,64.43,3.95236,34.91,2023275.0
1636977496.203125,62.19,3.977979,34.91,2024619.0
1636977496.21875,60.15,4.034341,34.89,2026052.0
1636977496.234375,57.92,4.070207,34.89,2027913.0
1636977496.25,54.88,4.097107,34.89,2029508.0
1636977496.265625,50.64,4.118883,34.89,2031737.0
1636977496.28125,45.24,4.118883,34.91,2033434.0
1636977496.296875,39.14,4.11504,34.91,2035612.0
1636977496.3125,33.02,4.102231,34.91,2037121.0
1636977496.328125,27.45,4.083016,34.91,2034936.0
1636977496.34375,22.64,4.061241,34.89,2030710.0
1636977496.359375,18.36,4.034341,34.89,2027005.0
1636977496.375,14.13,4.015127,34.89,2023600.0
1636977496.390625,9.37,3.993351,34.89,2020486.0
1636977496.40625,3.72,3.972855,34.87,2018797.0
1636977496.421875,-2.89,3.940832,34.87,2018314.0
1636977496.4375,-10.14,3.92546,34.87,2017806.0
1636977496.453125,-17.49,3.91137,34.87,2017369.0
1636977496.46875,-24.4,3.903684,34.87,2017564.0
1636977496.484375,-30.5,3.892156,34.87,2017913.0
1636977496.5,-35.88,3.883189,34.87,2018791.0
1636977496.515625,-40.95,3.865256,34.87,2020221.0
1636977496.53125,-46.43,3.869099,34.89,2021525.0
1636977496.546875,-53.11,3.863975,34.89,2022891.0
1636977496.5625,-61.47,3.872941,34.89,2024578.0
1636977496.578125,-71.57,3.856289,34.89,2025803.0
1636977496.59375,-82.83,3.844761,34.87,2026007.0
1636977496.609375,-94.02,3.848604,34.87,2026498.0
1636977496.625,-103.43,3.856289,34.87,2026341.0
1636977496.640625,-109.14,3.856289,34.87,2026971.0
1636977496.65625,-109.56,3.861413,34.87,2026519.0
1636977496.671875,-103.86,3.875504,34.87,2023491.0
1636977496.6875,-92.29,3.889594,34.87,2020110.0
1636977496.703125,-76.15,3.903684,34.87,2016807.0
1636977496.71875,-57.39,3.91137,34.87,2014423.0
1636977496.734375,-37.95,3.902403,34.87,2012483.0
1636977496.75,-19.27,3.904965,34.87,2011787.0
1636977496.765625,-2.0,3.895999,34.87,2011533.0
1636977496.78125,13.82,3.88447,34.87,2010800.0
1636977496.796875,28.41,3.87038,34.87,2011479.0
1636977496.8125,41.76,3.862694,34.87,2014165.0
1636977496.828125,53.52,3.861413,34.87,2018606.0
1636977496.84375,63.13,3.863975,34.87,2021134.0
1636977496.859375,70.09,3.851166,34.87,2022560.0
1636977496.875,74.3,3.84348,34.87,2025308.0
1636977496.890625,76.11,3.828109,34.87,2028422.0
1636977496.90625,76.23,3.825547,34.87,2031207.0
1636977496.921875,75.4,3.822985,34.87,2034014.0
1636977496.9375,74.22,3.811456,34.87,2037539.0
1636977496.953125,72.92,3.797366,34.87,2040775.0
1636977496.96875,71.52,3.787118,34.84,2045710.0
1636977496.984375,69.94,3.80249,34.84,2050937.0
1636977497.0,68.09,3.801209,34.84,2052055.0
1636977497.015625,66.06,3.799928,34.84,2049757.0
1636977497.03125,63.97,3.792242,34.84,2043725.0
1636977497.046875,61.9,3.785837,34.84,2037063.0
1636977497.0625,59.86,3.778152,34.84,2031797.0
1636977497.078125,57.7,3.778152,34.84,2029278.0
1636977497.09375,55.17,3.779433,34.84,2028286.0
1636977497.109375,51.97,3.769185,34.84,2027240.0
1636977497.125,47.88,3.767904,34.84,2026273.0
1636977497.140625,42.8,3.781994,34.84,2025505.0
1636977497.15625,36.9,3.779433,34.84,2024815.0
1636977497.171875,30.53,3.776871,34.84,2024473.0
1636977497.1875,24.18,3.778152,34.84,2024832.0
1636977497.203125,18.29,3.779433,34.84,2025563.0
1636977497.21875,13.08,3.793523,34.87,2026379.0
1636977497.234375,8.51,3.798647,34.87,2026901.0
1636977497.25,4.23,3.797366,34.87,2027776.0
1636977497.265625,-0.15,3.790961,34.87,2029046.0
1636977497.28125,-5.0,3.78968,34.84,2029773.0
1636977497.296875,-10.47,3.784556,34.84,2031241.0
1636977497.3125,-16.54,3.798647,34.84,2033237.0
1636977497.328125,-23.03,3.808894,34.84,2033417.0
1636977497.34375,-29.72,3.826828,34.83,2026720.0
1636977497.359375,-36.41,3.835794,34.83,2030629.0
1636977497.375,-42.9,3.849885,34.83,2023439.0
1636977497.390625,-49.09,3.848604,34.83,2020206.0
1636977497.40625,-55.05,3.833232,34.83,2018011.0
1636977497.421875,-61.01,3.825547,34.83,2017741.0
1636977497.4375,-67.39,3.819142,34.83,2017733.0
1636977497.453125,-74.6,3.811456,34.83,2017527.0
1636977497.46875,-82.94,3.803771,34.83,2017871.0
1636977497.484375,-92.3,3.790961,34.83,2018298.0
1636977497.5,-102.04,3.794804,34.83,2019066.0
1636977497.515625,-111.03,3.806332,34.83,2020699.0
1636977497.53125,-117.71,3.81658,34.83,2022433.0
1636977497.546875,-120.47,3.81658,34.83,2024122.0
1636977497.5625,-118.01,3.820423,34.83,2025829.0
1636977497.578125,-109.82,3.806332,34.83,2028012.0
1636977497.59375,-96.33,3.80249,34.83,2029376.0
1636977497.609375,-78.94,3.799928,34.83,2031304.0
1636977497.625,-59.52,3.785837,34.83,2032249.0
1636977497.640625,-39.97,3.778152,34.83,2032789.0
1636977497.65625,-21.57,3.778152,34.84,2034523.0
1636977497.671875,-4.89,3.778152,34.84,2034810.0
1636977497.6875,10.09,3.771747,34.84,2032272.0
1636977497.703125,23.62,3.769185,34.84,2031377.0
1636977497.71875,35.72,3.758937,34.83,2031457.0
1636977497.734375,46.05,3.758937,34.83,2030368.0
1636977497.75,54.08,3.758937,34.83,2030368.0
1636977497.765625,59.41,3.787118,34.83,2029676.0
1636977497.78125,62.07,3.844761,34.81,2033521.0
1636977497.796875,62.57,3.929303,34.81,2038041.0
1636977497.8125,61.75,4.008722,34.81,2041484.0
1636977497.828125,60.45,4.107355,34.81,2042658.0
1636977497.84375,59.24,4.189335,34.83,2042445.0
1636977497.859375,58.31,4.220078,34.83,2041876.0
1636977497.875,57.54,4.225202,34.83,2041602.0
1636977497.890625,56.71,4.207268,34.83,2041834.0
1636977497.90625,55.68,4.19574,34.81,2043103.0
1636977497.921875,54.46,4.16884,34.81,2043774.0
1636977497.9375,53.19,4.149626,34.81,2044747.0
1636977497.953125,51.99,4.117602,34.81,2045943.0
1636977497.96875,50.84,4.093264,34.81,2047436.0
1636977497.984375,49.63,4.079174,34.81,2049057.0
1636977498.0,48.16,4.058679,34.81,2050617.0
1636977498.015625,46.26,4.04715,34.81,2052211.0
1636977498.03125,43.85,4.036902,34.81,2050023.0
1636977498.046875,40.95,4.025374,34.81,2045658.0
1636977498.0625,37.64,4.024093,34.81,2041653.0
1636977498.078125,34.01,4.016407,34.81,2038478.0
1636977498.09375,30.13,4.012565,34.81,2036224.0
1636977498.109375,26.09,4.017688,34.81,2034929.0
1636977498.125,21.97,4.016407,34.81,2034439.0
1636977498.140625,17.85,4.011284,34.81,2033883.0
1636977498.15625,13.74,4.015127,34.81,2033586.0
1636977498.171875,9.59,4.010003,34.81,2033341.0
1636977498.1875,5.26,4.01897,34.81,2033773.0
1636977498.203125,0.63,4.025374,34.81,2034522.0
1636977498.21875,-4.36,4.024093,34.79,2035872.0
1636977498.234375,-9.61,4.002317,34.79,2037002.0
1636977498.25,-15.0,4.007441,34.79,2038499.0
1636977498.265625,-20.35,3.998474,34.79,2040183.0
1636977498.28125,-25.52,3.994631,34.81,2041875.0
1636977498.296875,-30.51,4.00616,34.81,2043158.0
1636977498.3125,-35.39,4.034341,34.81,2044960.0
1636977498.328125,-40.34,4.062521,34.81,2047111.0
1636977498.34375,-45.58,4.07405,34.79,2048689.0
1636977498.359375,-51.4,4.11376,34.79,2048336.0
1636977498.375,-58.09,4.14194,34.79,2044544.0
1636977498.390625,-65.79,4.223921,34.79,2040654.0
1636977498.40625,-74.27,4.293092,34.79,2037222.0
1636977498.421875,-82.81,4.352015,34.79,2035033.0
1636977498.4375,-90.08,4.270035,34.79,2033176.0
1636977498.453125,-94.4,4.271316,34.79,2032994.0
1636977498.46875,-94.24,4.332801,34.75,2032902.0
1636977498.484375,-88.67,4.323834,34.75,2030841.0
1636977498.5,-77.79,4.330239,34.75,2029809.0
1636977498.515625,-62.67,4.380196,34.75,2027407.0
1636977498.53125,-45.06,4.42631,34.77,2026999.0
1636977498.546875,-26.85,4.472424,34.77,2027677.0
1636977498.5625,-9.55,4.498392,34.77,2031221.0
1636977498.578125,5.99,4.500954,34.77,2037304.0
1636977498.59375,19.5,4.520168,34.77,2041404.0
1636977498.609375,31.12,4.497111,34.77,2048892.0
1636977498.625,41.03,4.470211,34.77,2059214.0
1636977498.640625,49.29,4.440749,34.77,2067229.0
1636977498.65625,55.83,4.426659,34.77,2071002.0
1636977498.671875,60.54,4.439468,34.77,2070743.0
1636977498.6875,63.43,4.457402,34.77,2063269.0
1636977498.703125,64.74,4.44203,34.77,2068549.0
1636977498.71875,64.86,4.430502,34.75,2059833.0
1636977498.734375,64.32,4.416411,34.75,2057320.0
1636977498.75,63.49,4.408726,34.75,2056035.0
1636977498.765625,62.62,4.384388,34.75,2055438.0
1636977498.78125,61.71,4.365174,34.75,2054954.0
1636977498.796875,60.68,4.340836,34.75,2055066.0
1636977498.8125,59.43,4.331869,34.75,2055217.0
1636977498.828125,57.99,4.319059,34.75,2055496.0
1636977498.84375,56.44,4.315217,34.75,2055761.0
1636977498.859375,54.85,4.304969,34.75,2056681.0
1636977498.875,53.14,4.288317,34.75,2057572.0
1636977498.890625,51.11,4.281912,34.75,2059118.0
1636977498.90625,48.51,4.284474,34.73,2060702.0
1636977498.921875,45.16,4.276788,34.73,2062204.0
1636977498.9375,41.11,4.266541,34.73,2063956.0
1636977498.953125,36.58,4.25245,34.73,2065325.0
1636977498.96875,31.87,4.256293,34.71,2067002.0
1636977498.984375,27.23,4.248608,34.71,2069038.0
1636977499.0,22.71,4.25117,34.71,2071186.0
1636977499.015625,18.2,4.247327,34.71,2070537.0
1636977499.03125,13.53,4.253731,34.71,2066505.0
1636977499.046875,8.64,4.283193,34.71,2062114.0
1636977499.0625,3.58,4.321621,34.71,2057759.0
1636977499.078125,-1.49,4.356207,34.71,2054106.0
1636977499.09375,-6.43,4.376702,34.68,2051500.0
1636977499.109375,-11.16,4.380545,34.68,2050464.0
1636977499.125,-15.74,4.380545,34.68,2049345.0
1636977499.140625,-20.27,4.377983,34.68,2048718.0
1636977499.15625,-24.85,4.380545,34.71,2048319.0
1636977499.171875,-29.57,4.383107,34.71,2047986.0
1636977499.1875,-34.4,4.389512,34.71,2048214.0
1636977499.203125,-39.27,4.388231,34.71,2048214.0
1636977499.21875,-44.05,4.393354,34.68,2048564.0
1636977499.234375,-48.63,4.399759,34.68,2049583.0
1636977499.25,-52.96,4.410007,34.68,2050869.0
1636977499.265625,-57.17,4.406164,34.68,2051975.0
1636977499.28125,-61.55,4.393354,34.71,2053000.0
1636977499.296875,-66.55,4.375421,34.71,2054579.0
1636977499.3125,-72.6,4.370297,34.71,2054810.0
1636977499.328125,-79.9,4.366455,34.71,2054845.0
1636977499.34375,-88.09,4.34724,34.68,2054649.0
1636977499.359375,-96.23,4.334431,34.68,2050685.0
1636977499.375,-102.8,4.33315,34.68,2044722.0
1636977499.390625,-106.11,4.334431,34.68,2039466.0
1636977499.40625,-104.8,4.335712,34.68,2035486.0
1636977499.421875,-98.21,4.336993,34.68,2034656.0
1636977499.4375,-86.68,4.357488,34.68,2037474.0
1636977499.453125,-71.42,4.376702,34.68,2041161.0
1636977499.46875,-54.13,4.395916,34.68,2044852.0
1636977499.484375,-36.47,4.404883,34.68,2045679.0
1636977499.5,-19.68,4.403602,34.68,2043963.0
1636977499.515625,-4.38,4.390792,34.68,2042140.0
1636977499.53125,9.28,4.379264,34.68,2041438.0
1636977499.546875,21.39,4.381826,34.68,2042695.0
1636977499.5625,31.96,4.372859,34.68,2043466.0
1636977499.578125,40.79,4.361331,34.68,2044287.0
1636977499.59375,47.62,4.358769,34.66,2045730.0
1636977499.609375,52.27,4.36005,34.66,2047247.0
1636977499.625,54.85,4.365174,34.66,2048529.0
1636977499.640625,55.83,4.361331,34.66,2052143.0
1636977499.65625,55.87,4.344678,34.68,2053723.0
1636977499.671875,55.63,4.342116,34.68,2051553.0
1636977499.6875,55.5,4.344678,34.68,2047201.0
1636977499.703125,55.62,4.344678,34.68,2042691.0
1636977499.71875,55.89,4.353645,34.68,2050387.0
1636977499.734375,56.13,4.349802,34.68,2039420.0
1636977499.75,56.19,4.338274,34.68,2036133.0
1636977499.765625,55.98,4.334431,34.68,2034636.0
1636977499.78125,55.45,4.340836,34.68,2034220.0
1636977499.796875,54.53,4.338274,34.68,2033616.0
1636977499.8125,53.17,4.326745,34.68,2032868.0
1636977499.828125,51.28,4.317779,34.68,2032489.0
1636977499.84375,48.8,4.315217,34.66,2032122.0
1636977499.859375,45.66,4.302407,34.66,2032690.0
1636977499.875,41.88,4.304969,34.66,2033385.0
1636977499.890625,37.47,4.296002,34.66,2034605.0
1636977499.90625,32.51,4.299845,34.66,2037114.0
1636977499.921875,27.09,4.290879,34.66,2038013.0
1636977499.9375,21.41,4.307531,34.66,2039953.0
1636977499.953125,15.71,4.331869,34.66,2035741.0
1636977499.96875,10.26,4.338274,34.66,2041517.0
1636977499.984375,5.26,4.340836,34.66,2042814.0
1636977500.0,0.7,4.361331,34.66,2040849.0
1636977500.015625,-3.63,4.357488,34.66,2036548.0
1636977500.03125,-8.08,4.348521,34.65,2032359.0
1636977500.046875,-13.0,4.338274,34.65,2028306.0
1636977500.0625,-18.52,4.340836,34.65,2024844.0
1636977500.078125,-24.46,4.339555,34.65,2022538.0
1636977500.09375,-30.45,4.328026,34.65,2021892.0
1636977500.109375,-36.02,4.315217,34.65,2021288.0
1636977500.125,-40.88,4.308812,34.65,2019893.0
1636977500.140625,-45.08,4.30625,34.65,2017038.0
1636977500.15625,-48.96,4.303688,34.66,2016895.0
1636977500.171875,-53.06,4.303688,34.66,2018483.0
1636977500.1875,-57.92,4.294722,34.66,2021174.0
1636977500.203125,-63.91,4.294722,34.66,2024769.0
1636977500.21875,-71.13,4.290879,34.65,2028161.0
1636977500.234375,-79.3,4.285755,34.65,2031662.0
1636977500.25,-87.71,4.290879,34.65,2042605.0
1636977500.265625,-95.19,4.294722,34.65,2048798.0
1636977500.28125,-100.34,4.296002,34.65,2053539.0
1636977500.296875,-101.74,4.293441,34.65,2018423.0
1636977500.3125,-98.4,4.299845,34.65,2053760.0
1636977500.328125,-90.09,4.310093,34.65,2035898.0
1636977500.34375,-77.4,4.304969,34.65,2049644.0
1636977500.359375,-61.61,4.293441,34.65,2044348.0
1636977500.375,-44.28,4.293441,34.65,2039665.0
1636977500.390625,-26.85,4.284474,34.65,2037054.0
1636977500.40625,-10.37,4.290879,34.65,2035880.0
1636977500.421875,4.52,4.285755,34.65,2034663.0
1636977500.4375,17.56,4.276788,34.65,2033545.0
1636977500.453125,28.6,4.27935,34.65,2035264.0
1636977500.46875,37.61,4.276788,34.66,2033180.0
1636977500.484375,44.54,4.27935,34.66,2033608.0
1636977500.5,49.46,4.285755,34.66,2033847.0
1636977500.515625,52.57,4.303688,34.66,2034912.0
1636977500.53125,54.18,4.319059,34.63,2037613.0
1636977500.546875,54.8,4.344678,34.63,2039952.0
1636977500.5625,54.93,4.362612,34.63,2041646.0
1636977500.578125,55.04,4.365174,34.63,2038379.0
1636977500.59375,55.41,4.362612,34.63,2036142.0
1636977500.609375,56.09,4.349802,34.63,2042716.0
1636977500.625,56.89,4.354926,34.63,2044433.0
1636977500.640625,57.53,4.34596,34.63,2046312.0
1636977500.65625,57.76,4.329307,34.65,2047825.0
1636977500.671875,57.46,4.312655,34.65,2046780.0
1636977500.6875,56.62,4.304969,34.65,2042823.0
1636977500.703125,55.27,4.304969,34.65,2038575.0
1636977500.71875,53.34,4.298564,34.63,2034781.0
1636977500.734375,50.68,4.289598,34.63,2032053.0
1636977500.75,47.07,4.272945,34.63,2029777.0
1636977500.765625,42.42,4.276788,34.63,2029187.0
1636977500.78125,36.87,4.275507,34.65,2028538.0
1636977500.796875,30.76,4.278069,34.65,2028464.0
1636977500.8125,24.56,4.269103,34.65,2028226.0
1636977500.828125,18.64,4.262698,34.65,2028296.0
1636977500.84375,13.16,4.270384,34.63,2029115.0
1636977500.859375,8.02,4.275507,34.63,2030009.0
1636977500.875,2.95,4.29216,34.63,2031496.0
1636977500.890625,-2.35,4.310093,34.63,2033070.0
1636977500.90625,-8.08,4.315217,34.61,2034507.0
1636977500.921875,-14.22,4.30625,34.61,2035999.0
1636977500.9375,-20.54,4.310093,34.61,2037756.0
1636977500.953125,-26.68,4.310093,34.61,2039750.0
1636977500.96875,-32.35,4.303688,34.61,2041703.0
1636977500.984375,-37.47,4.296002,34.61,2043010.0
1636977501.0,-42.26,4.289598,34.61,2040328.0
1636977501.015625,-47.25,4.288317,34.61,2034925.0
1636977501.03125,-53.09,4.289598,34.59,2030016.0
1636977501.046875,-60.3,4.283193,34.59,2026511.0
1636977501.0625,-69.07,4.283193,34.59,2023773.0
1636977501.078125,-79.04,4.285755,34.59,2022173.0
1636977501.09375,-89.2,4.293441,34.61,2021742.0
1636977501.109375,-98.09,4.301126,34.61,2021959.0
1636977501.125,-103.96,4.307531,34.61,2022018.0
1636977501.140625,-105.26,4.307531,34.61,2022311.0
1636977501.15625,-101.03,4.315217,34.63,2022771.0
1636977501.171875,-91.22,4.353645,34.63,2025527.0
1636977501.1875,-76.75,4.429221,34.63,2029257.0
1636977501.203125,-59.3,4.500954,34.63,2032656.0
1636977501.21875,-40.79,4.577811,34.61,2035239.0
1636977501.234375,-22.91,4.602149,34.61,2036218.0
1636977501.25,-6.78,4.63161,34.61,2036243.0
1636977501.265625,7.16,4.630329,34.61,2036503.0
1636977501.28125,19.01,4.625206,34.63,2038319.0
1636977501.296875,29.08,4.586777,34.63,2040154.0
1636977501.3125,37.65,4.561158,34.63,2042279.0
1636977501.328125,44.84,4.558596,34.63,2044012.0
1636977501.34375,50.59,4.55091,34.61,2045253.0
1636977501.359375,54.77,4.552192,34.61,2043533.0
1636977501.375,57.36,4.404883,34.61,2040451.0
1636977501.390625,58.5,4.44203,34.61,2037674.0
1636977501.40625,58.56,4.471492,34.59,2035394.0
1636977501.421875,58.01,4.504797,34.59,2033308.0
1636977501.4375,57.28,,,2031949.0
1636977501.453125,56.61,,,2032149.0
1636977501.46875,56.05,,,2032314.0
1636977501.484375,55.48,,,2031996.0
1636977501.5,54.74,,,2032487.0
1636977501.515625,53.74,,,2033040.0
1636977501.53125,52.42,,,2033817.0
1636977501.546875,50.74,,,2035411.0
1636977501.5625,48.61,,,2036492.0
1636977501.578125,45.88,,,2038413.0
1636977501.59375,42.35,,,2039582.0
1636977501.609375,37.89,,,2041344.0
1636977501.625,32.48,,,2042834.0
1636977501.640625,26.25,,,2044401.0
1636977501.65625,19.52,,,2046505.0
1636977501.671875,12.72,,,2048419.0
1636977501.6875,6.32,,,2050337.0
1636977501.703125,0.64,,,2050313.0
1636977501.71875,-4.3,,,2047161.0
1636977501.734375,-8.81,,,2044037.0
1636977501.75,-13.48,,,2041668.0
1636977501.765625,-18.8,,,2039149.0
1636977501.78125,-24.99,,,2037404.0
1636977501.796875,-31.76,,,2037210.0
1636977501.8125,-38.56,,,2037317.0
1636977501.828125,-44.81,,,2037511.0
1636977501.84375,-50.29,,,2036615.0
1636977501.859375,-55.25,,,2036104.0
1636977501.875,-60.32,,,2034838.0
1636977501.890625,-66.2,,,2034246.0
1636977501.90625,-73.41,,,2035299.0
1636977501.921875,-82.06,,,2036712.0
1636977501.9375,-91.78,,,2039200.0
1636977501.953125,-101.78,,,2042681.0
1636977501.96875,-110.83,,,2046742.0
1636977501.984375,-117.4,,,2049486.0
1636977502.0,-119.91,,,2051139.0
1636977502.015625,-117.08,,,2052225.0
1636977502.03125,-108.39,,,2052672.0
1636977502.046875,-94.32,,,2050455.0
1636977502.0625,-76.32,,,2047979.0
1636977502.078125,-56.37,,,2045905.0
1636977502.09375,-36.41,,,2043966.0
1636977502.109375,-17.75,,,2042435.0
1636977502.125,-0.93,,,2041679.0
1636977502.140625,14.15,,,2041788.0
1636977502.15625,27.81,,,2041947.0
1636977502.171875,40.16,,,2041939.0
1636977502.1875,51.03,,,2042715.0
1636977502.203125,60.01,,,2043145.0
1636977502.21875,66.8,,,2044401.0
1636977502.234375,71.37,,,2045704.0
1636977502.25,74.08,,,2047352.0
1636977502.265625,75.46,,,2048805.0
1636977502.28125,76.07,,,2050351.0
1636977502.296875,76.26,,,2051785.0
1636977502.3125,76.2,,,2053461.0
1636977502.328125,75.88,,,2055388.0
1636977502.34375,75.26,,,2057143.0
1636977502.359375,74.33,,,2058981.0
1636977502.375,73.13,,,2060855.0
1636977502.390625,71.69,,,2060101.0
1636977502.40625,69.97,,,2056509.0
1636977502.421875,67.89,,,2052448.0
1636977502.4375,65.25,,,2048867.0
1636977502.453125,61.87,,,2045885.0
1636977502.46875,57.57,,,2043438.0
1636977502.484375,52.32,,,2042547.0
1636977502.5,46.26,,,2041967.0
1636977502.515625,39.72,,,2041396.0
1636977502.53125,33.15,,,2041367.0
1636977502.546875,26.98,,,2041406.0
1636977502.5625,21.37,,,2041693.0
1636977502.578125,16.18,,,2041693.0
1636977502.59375,10.97,,,2042459.0
1636977502.609375,5.28,,,2043863.0
1636977502.625,-1.22,,,2045200.0
1636977502.640625,-8.47,,,2046001.0
1636977502.65625,-16.1,,,2045793.0
1636977502.671875,-23.56,,,2045454.0
1636977502.6875,-30.38,,,2047529.0
1636977502.703125,-36.44,,,2051167.0
1636977502.71875,-41.97,,,2056689.0
1636977502.734375,-47.5,,,2062123.0
1636977502.75,-53.69,,,2066426.0
1636977502.765625,-61.11,,,2067216.0
1636977502.78125,-70.1,,,2066720.0
1636977502.796875,-80.54,,,2066243.0
1636977502.8125,-91.73,,,2066315.0
1636977502.828125,-102.35,,,2066576.0
1636977502.84375,-110.58,,,2070005.0
1636977502.859375,-114.53,,,2074842.0
1636977502.875,-112.76,,,2079023.0
1636977502.890625,-104.78,,,2082288.0
1636977502.90625,-91.25,,,2084427.0
1636977502.921875,-73.77,,,2085746.0
1636977502.9375,-54.42,,,2086814.0
1636977502.953125,-35.06,,,2088430.0
1636977502.96875,-16.92,,,2090214.0
1636977502.984375,-0.5,,,2091531.0
1636977503.0,14.23,,,2092008.0
1636977503.015625,27.47,,,2092874.0
1636977503.03125,39.28,,,2093410.0
1636977503.046875,49.45,,,2094034.0
1636977503.0625,57.69,,,2095235.0
1636977503.078125,63.75,,,2095732.0
1636977503.09375,67.68,,,2094662.0
1636977503.109375,69.8,,,2090378.0
1636977503.125,70.57,,,2084762.0
1636977503.140625,70.51,,,2079866.0
1636977503.15625,69.96,,,2075988.0
1636977503.171875,69.12,,,2072365.0
1636977503.1875,68.08,,,2070098.0
1636977503.203125,66.91,,,2068901.0
1636977503.21875,65.74,,,2067710.0
1636977503.234375,64.69,,,2066398.0
1636977503.25,63.8,,,2065828.0
1636977503.265625,62.89,,,2065729.0
1636977503.28125,61.59,,,2065998.0
1636977503.296875,59.39,,,2066710.0
1636977503.3125,55.84,,,2067392.0
1636977503.328125,50.78,,,2067958.0
1636977503.34375,44.35,,,2069266.0
1636977503.359375,37.02,,,2070258.0
1636977503.375,29.4,,,2071468.0
1636977503.390625,22.13,,,2072535.0
1636977503.40625,15.55,,,2074118.0
1636977503.421875,9.76,,,2075440.0
1636977503.4375,4.53,,,2075564.0
1636977503.453125,-0.51,,,2071822.0
1636977503.46875,-5.74,,,2066240.0
1636977503.484375,-11.4,,,2061586.0
1636977503.5,-17.49,,,2056854.0
1636977503.515625,-23.81,,,2053114.0
1636977503.53125,-30.09,,,2050636.0
1636977503.546875,-36.1,,,2049495.0
1636977503.5625,-41.78,,,2049495.0
1636977503.578125,-47.28,,,2047809.0
1636977503.59375,-52.97,,,2046523.0
1636977503.609375,-59.33,,,2044826.0
1636977503.625,-66.86,,,2043804.0
1636977503.640625,-75.81,,,2042165.0
1636977503.65625,-85.97,,,2041537.0
1636977503.671875,-96.42,,,2042214.0
1636977503.6875,-105.64,,,2044238.0
1636977503.703125,-111.65,,,2046868.0
1636977503.71875,-112.61,,,2049398.0
1636977503.734375,-107.32,,,2054740.0
1636977503.75,-95.79,,,2061756.0
1636977503.765625,-79.18,,,2069632.0
1636977503.78125,-59.61,,,2073404.0
1636977503.796875,-39.36,,,2072760.0
1636977503.8125,-20.27,,,2065992.0
1636977503.828125,-3.3,,,2058522.0
1636977503.84375,11.45,,,2054790.0
1636977503.859375,24.32,,,2052012.0
1636977503.875,35.59,,,2049117.0
1636977503.890625,45.22,,,2047606.0
1636977503.90625,52.86,,,2047093.0
1636977503.921875,58.11,,,2046303.0
1636977503.9375,61.0,,,2045736.0
1636977503.953125,62.0,,,2045654.0
1636977503.96875,61.96,,,2045862.0
1636977503.984375,61.75,,,2046708.0
1636977504.0,61.88,,,2047996.0
1636977504.015625,62.4,,,2049182.0
1636977504.03125,63.02,,,2050566.0
1636977504.046875,63.4,,,2051750.0
1636977504.0625,63.36,,,2053309.0
1636977504.078125,62.93,,,2054378.0
1636977504.09375,62.28,,,2055233.0
1636977504.109375,61.54,,,2056963.0
1636977504.125,60.71,,,2057646.0
1636977504.140625,59.62,,,2054772.0
1636977504.15625,57.96,,,2049623.0
1636977504.171875,55.45,,,2040655.0
1636977504.1875,51.86,,,2044687.0
1636977504.203125,47.08,,,2036850.0
1636977504.21875,41.26,,,2034652.0
1636977504.234375,34.71,,,2033654.0
1636977504.25,27.89,,,2031382.0
1636977504.265625,21.3,,,2032579.0
1636977504.28125,15.25,,,2031180.0
1636977504.296875,9.79,,,2031118.0
1636977504.3125,4.65,,,2031738.0
1636977504.328125,-0.65,,,2032446.0
1636977504.34375,-6.49,,,2033803.0
1636977504.359375,-13.03,,,2035194.0
1636977504.375,-20.13,,,2036635.0
1636977504.390625,-27.38,,,2038573.0
1636977504.40625,-34.37,,,2039983.0
1636977504.421875,-40.86,,,2040789.0
1636977504.4375,-46.88,,,2042030.0
1636977504.453125,-52.71,,,2043250.0
1636977504.46875,-58.75,,,2043677.0
1636977504.484375,-65.38,,,2040343.0
1636977504.5,-72.88,,,2034894.0
1636977504.515625,-81.4,,,2029259.0
1636977504.53125,-90.83,,,2024665.0
1636977504.546875,-100.64,,,2018582.0
1636977504.5625,-109.77,,,2021268.0
1636977504.578125,-116.64,,,2023097.0
1636977504.59375,-119.45,,,2018085.0
1636977504.609375,-116.78,,,2021057.0
1636977504.625,-108.09,,,2024428.0
1636977504.640625,-94.02,,,2025375.0
1636977504.65625,-76.21,,,2024806.0
1636977504.671875,-56.76,,,2024067.0
1636977504.6875,-37.52,,,2024322.0
1636977504.703125,-19.65,,,2025080.0
1636977504.71875,-3.55,,,2025408.0
1636977504.734375,10.96,,,2026484.0
1636977504.75,24.15,,,2027285.0
1636977504.765625,36.04,,,2028078.0
1636977504.78125,46.39,,,2029043.0
1636977504.796875,54.8,,,2030584.0
1636977504.8125,61.02,,,2031387.0
1636977504.828125,65.12,,,2027735.0
1636977504.84375,67.5,,,2021350.0
1636977504.859375,68.75,,,2016658.0
1636977504.875,69.44,,,2011925.0
1636977504.890625,69.88,,,2008483.0
1636977504.90625,70.09,,,2006414.0
1636977504.921875,69.96,,,2005060.0
1636977504.9375,69.39,,,2004242.0
1636977504.953125,68.42,,,2002788.0
1636977504.96875,67.25,,,2003348.0
1636977504.984375,66.03,,,2003035.0
1636977505.0,64.76,,,2003910.0
1636977505.015625,63.16,,,2004949.0
1636977505.03125,60.76,,,2006436.0
1636977505.046875,57.12,,,2007933.0
1636977505.0625,52.04,,,2009447.0
1636977505.078125,45.67,,,2012501.0
1636977505.09375,38.49,,,2010906.0
1636977505.109375,31.12,,,2014331.0
1636977505.125,24.09,,,2016466.0
1636977505.140625,17.7,,,2016602.0
1636977505.15625,11.94,,,2012204.0
1636977505.171875,6.52,,,2007067.0
1636977505.1875,1.03,,,2003397.0
1636977505.203125,-4.9,,,1999610.0
1636977505.21875,-11.43,,,1997117.0
1636977505.234375,-18.42,,,1995907.0
1636977505.25,-25.52,,,1995378.0
1636977505.265625,-32.25,,,1994342.0
1636977505.28125,-38.28,,,1993185.0
1636977505.296875,-43.64,,,1992956.0
1636977505.3125,-48.72,,,1993941.0
1636977505.328125,-54.24,,,1996281.0
1636977505.34375,-60.95,,,1999394.0
1636977505.359375,-69.36,,,2001661.0
1636977505.375,-79.45,,,2002108.0
1636977505.390625,-90.5,,,2002532.0
1636977505.40625,-101.17,,,2004112.0
1636977505.421875,-109.64,,,2009233.0
1636977505.4375,-114.08,,,2017504.0
1636977505.453125,-113.02,,,2026303.0
1636977505.46875,-105.81,,,2032231.0
1636977505.484375,-92.9,,,2030429.0
1636977505.5,-75.69,,,2024139.0
1636977505.515625,-56.17,,,2018192.0
1636977505.53125,-36.34,,,2014425.0
1636977505.546875,-17.66,,,2010751.0
1636977505.5625,-0.83,,,2008386.0
1636977505.578125,14.15,,,2007552.0
1636977505.59375,27.56,,,2007651.0
1636977505.609375,39.66,,,2007390.0
1636977505.625,50.33,,,2006956.0
1636977505.640625,59.17,,,2006972.0
1636977505.65625,65.7,,,2007918.0
1636977505.671875,69.68,,,2008727.0
1636977505.6875,71.32,,,2009972.0
1636977505.703125,71.17,,,2011585.0
1636977505.71875,70.01,,,2013136.0
1636977505.734375,68.5,,,2014567.0
1636977505.75,66.95,,,2016592.0
1636977505.765625,65.41,,,2018539.0
1636977505.78125,63.67,,,2020366.0
1636977505.796875,61.54,,,2022564.0
1636977505.8125,58.96,,,2024682.0
1636977505.828125,56.07,,,2024070.0
1636977505.84375,53.09,,,2019712.0
1636977505.859375,50.19,,,2014662.0
1636977505.875,47.26,,,2010904.0
1636977505.890625,44.01,,,2007152.0
1636977505.90625,39.96,,,2004895.0
1636977505.921875,34.71,,,2003709.0
1636977505.9375,28.11,,,2003547.0
1636977505.953125,20.31,,,2003627.0
1636977505.96875,11.79,,,2003216.0
1636977505.984375,3.16,,,2003739.0
1636977506.0,-5.02,,,2004676.0
1636977506.015625,-12.42,,,2004676.0
1636977506.03125,-19.02,,,2005847.0
1636977506.046875,-25.02,,,2007398.0
1636977506.0625,-30.83,,,2008959.0
1636977506.078125,-36.89,,,2010933.0
1636977506.09375,-43.62,,,2012815.0
1636977506.109375,-51.42,,,2014549.0
1636977506.125,-60.48,,,2016879.0
1636977506.140625,-70.7,,,2017982.0
1636977506.15625,-81.47,,,2019350.0
1636977506.171875,-91.6,,,2017850.0
1636977506.1875,-99.38,,,2013217.0
1636977506.203125,-102.91,,,2007709.0
1636977506.21875,-100.71,,,2002731.0
1636977506.234375,-92.22,,,1997606.0
1636977506.25,-78.11,,,1993547.0
1636977506.265625,-60.1,,,1991548.0
1636977506.28125,-40.44,,,1992113.0
1636977506.296875,-21.21,,,1995162.0
1636977506.3125,-3.73,,,1996691.0
1636977506.328125,11.52,,,1996938.0
1636977506.34375,24.71,,,1996552.0
1636977506.359375,36.17,,,1995797.0
1636977506.375,46.01,,,1995411.0
1636977506.390625,54.02,,,1996406.0
1636977506.40625,59.88,,,1998469.0
1636977506.421875,63.43,,,2000886.0
1636977506.4375,64.88,,,2003284.0
1636977506.453125,64.83,,,2006485.0
1636977506.46875,64.0,,,2009367.0
1636977506.484375,62.98,,,2011801.0
1636977506.5,62.07,,,2010720.0
1636977506.515625,61.23,,,2007020.0
1636977506.53125,60.19,,,2002653.0
1636977506.546875,58.7,,,1999278.0
1636977506.5625,56.6,,,1996479.0
1636977506.578125,53.97,,,1994702.0
1636977506.59375,51.04,,,1994596.0
1636977506.609375,48.07,,,1994382.0
1636977506.625,45.18,,,1994237.0
1636977506.640625,42.22,,,1994823.0
1636977506.65625,38.82,,,1995516.0
1636977506.671875,34.49,,,1996683.0
1636977506.6875,28.84,,,1998301.0
1636977506.703125,21.8,,,2000125.0
1636977506.71875,13.68,,,2002073.0
1636977506.734375,5.06,,,2004262.0
1636977506.75,-3.41,,,2006448.0
1636977506.765625,-11.23,,,2008490.0
1636977506.78125,-18.19,,,2010967.0
1636977506.796875,-24.29,,,2013142.0
1636977506.8125,-29.76,,,2015707.0
1636977506.828125,-34.93,,,2017218.0
1636977506.84375,-40.18,,,2014099.0
1636977506.859375,-45.99,,,2009854.0
1636977506.875,-52.87,,,2005646.0
1636977506.890625,-61.18,,,2002186.0
1636977506.90625,-70.88,,,1998740.0
1636977506.921875,-81.32,,,1997212.0
1636977506.9375,-91.13,,,1997082.0
1636977506.953125,-98.49,,,1996856.0
1636977506.96875,-101.54,,,1997376.0
1636977506.984375,-98.97,,,1999675.0
1636977507.0,-90.49,,,2002371.0
1636977507.015625,-76.93,,,2006824.0
1636977507.03125,-59.96,,,2011424.0
1636977507.046875,-41.6,,,2016154.0
1636977507.0625,-23.52,,,2022130.0
1636977507.078125,-6.74,,,2029900.0
1636977507.09375,8.42,,,2034972.0
1636977507.109375,22.0,,,2039675.0
1636977507.125,34.09,,,2042152.0
1636977507.140625,44.51,,,2043744.0
1636977507.15625,52.92,,,2045126.0
1636977507.171875,58.98,,,2045497.0
1636977507.1875,62.67,,,2042098.0
1636977507.203125,64.33,,,2038093.0
1636977507.21875,64.57,,,2033721.0
1636977507.234375,64.08,,,2030227.0
1636977507.25,63.35,,,2026651.0
1636977507.265625,62.58,,,2024983.0
1636977507.28125,61.75,,,2023956.0
1636977507.296875,60.75,,,2022185.0
1636977507.3125,59.51,,,2020208.0
1636977507.328125,58.04,,,2019125.0
1636977507.34375,56.4,,,2018606.0
1636977507.359375,54.61,,,2018804.0
1636977507.375,52.55,,,2019336.0
1636977507.390625,50.04,,,2020082.0
1636977507.40625,46.83,,,2021215.0
1636977507.421875,42.74,,,2022100.0
1636977507.4375,37.75,,,2023437.0
1636977507.453125,31.93,,,2024228.0
1636977507.46875,25.52,,,2026147.0
1636977507.484375,18.74,,,2028000.0
1636977507.5,11.81,,,2029896.0
1636977507.515625,4.84,,,2029996.0
1636977507.53125,-2.13,,,2026336.0
1636977507.546875,-9.06,,,2022030.0
1636977507.5625,-15.88,,,2018090.0
1636977507.578125,-22.48,,,2015069.0
1636977507.59375,-28.63,,,2012352.0
1636977507.609375,-34.2,,,2011582.0
1636977507.625,-39.23,,,2011297.0
1636977507.640625,-44.08,,,2011187.0
1636977507.65625,-49.36,,,2011204.0
1636977507.671875,-55.83,,,2011596.0
1636977507.6875,-64.01,,,2012231.0
1636977507.703125,-73.79,,,2013213.0
1636977507.71875,-84.27,,,2014797.0
1636977507.734375,-93.76,,,2015732.0
1636977507.75,-100.22,,,2014835.0
1636977507.765625,-101.83,,,2014607.0
1636977507.78125,-97.55,,,2014103.0
1636977507.796875,-87.41,,,2014006.0
1636977507.8125,-72.45,,,2016404.0
1636977507.828125,-54.37,,,2020294.0
1636977507.84375,-35.02,,,2027630.0
1636977507.859375,-15.96,,,2031171.0
1636977507.875,1.76,,,2032548.0
1636977507.890625,17.62,,,2030972.0
1636977507.90625,31.42,,,2027263.0
1636977507.921875,43.12,,,2023850.0
1636977507.9375,52.66,,,2021940.0
1636977507.953125,59.99,,,2021669.0
1636977507.96875,65.11,,,2022479.0
1636977507.984375,68.22,,,2021846.0
1636977508.0,69.63,,,2021438.0
1636977508.015625,69.81,,,2021194.0
1636977508.03125,69.16,,,2021093.0
1636977508.046875,67.97,,,2021289.0
1636977508.0625,66.4,,,2021898.0
1636977508.078125,64.55,,,2022986.0
1636977508.09375,62.49,,,2024152.0
1636977508.109375,60.4,,,2025391.0
1636977508.125,58.43,,,2026625.0
1636977508.140625,56.65,,,2028092.0
1636977508.15625,54.94,,,2029948.0
1636977508.171875,52.97,,,2031405.0
1636977508.1875,50.28,,,2033476.0
1636977508.203125,46.58,,,2032473.0
1636977508.21875,41.81,,,2028614.0
1636977508.234375,36.21,,,2025154.0
1636977508.25,30.23,,,2021832.0
1636977508.265625,24.28,,,2018733.0
1636977508.28125,18.5,,,2016903.0
1636977508.296875,12.74,,,2016580.0
1636977508.3125,6.6,,,2016370.0
1636977508.328125,-0.31,,,2016036.0
1636977508.34375,-8.14,,,2015788.0
1636977508.359375,-16.7,,,2015903.0
1636977508.375,-25.46,,,2016814.0
1636977508.390625,-33.82,,,2018328.0
1636977508.40625,-41.24,,,2019532.0
1636977508.421875,-47.54,,,2020741.0
1636977508.4375,-52.9,,,2022479.0
1636977508.453125,-57.89,,,2023680.0
1636977508.46875,-63.27,,,2025377.0
1636977508.484375,-69.82,,,2026101.0
1636977508.5,-78.0,,,2026868.0
1636977508.515625,-87.72,,,2026927.0
1636977508.53125,-98.1,,,2023192.0
1636977508.546875,-107.56,,,2018833.0
1636977508.5625,-114.11,,,2015360.0
1636977508.578125,-115.9,,,2012897.0
1636977508.59375,-111.78,,,2010744.0
1636977508.609375,-101.72,,,2009346.0
1636977508.625,-86.8,,,2008702.0
1636977508.640625,-68.79,,,2010442.0
1636977508.65625,-49.61,,,2014223.0
1636977508.671875,-30.74,,,2017587.0
1636977508.6875,-13.01,,,2021446.0
1636977508.703125,3.29,,,2023629.0
1636977508.71875,18.05,,,2023706.0
1636977508.734375,31.07,,,2023866.0
1636977508.75,41.97,,,2024676.0
1636977508.765625,50.32,,,2027175.0
1636977508.78125,55.92,,,2029711.0
1636977508.796875,58.94,,,2032822.0
1636977508.8125,59.96,,,2035352.0
1636977508.828125,59.78,,,2038080.0
1636977508.84375,59.12,,,2040692.0
1636977508.859375,58.53,,,2042676.0
1636977508.875,58.24,,,2041777.0
1636977508.890625,58.24,,,2038352.0
1636977508.90625,58.36,,,2034902.0
1636977508.921875,58.4,,,2031681.0
1636977508.9375,58.24,,,2029096.0
1636977508.953125,57.87,,,2027383.0
1636977508.96875,57.37,,,2026903.0
1636977508.984375,56.76,,,2027075.0
1636977509.0,55.87,,,2026975.0
1636977509.015625,54.35,,,2027293.0
1636977509.03125,51.69,,,2027762.0
1636977509.046875,47.56,,,2029040.0
1636977509.0625,41.88,,,2030148.0
1636977509.078125,35.09,,,2031760.0
1636977509.09375,27.9,,,2033664.0
1636977509.109375,21.05,,,2035369.0
1636977509.125,15.05,,,2037220.0
1636977509.140625,9.9,,,2038803.0
1636977509.15625,5.23,,,2040803.0
1636977509.171875,0.42,,,2042882.0
1636977509.1875,-5.09,,,2044939.0
1636977509.203125,-11.51,,,2045564.0
1636977509.21875,-18.71,,,2043072.0
1636977509.234375,-26.18,,,2038929.0
1636977509.25,-33.33,,,2035701.0
1636977509.265625,-39.69,,,2032344.0
1636977509.28125,-45.14,,,2029814.0
1636977509.296875,-49.92,,,2029023.0
1636977509.3125,-54.63,,,2028914.0
1636977509.328125,-60.0,,,2028757.0
1636977509.34375,-66.73,,,2028567.0
1636977509.359375,-75.13,,,2028712.0
1636977509.375,-84.88,,,2029757.0
1636977509.390625,-94.91,,,2030905.0
1636977509.40625,-103.45,,,2031811.0
1636977509.421875,-108.42,,,2033105.0
1636977509.4375,-108.02,,,2033867.0
1636977509.453125,-101.38,,,2034469.0
1636977509.46875,-88.82,,,2034897.0
1636977509.484375,-71.83,,,2035069.0
1636977509.5,-52.49,,,2035265.0
1636977509.515625,-32.83,,,2036204.0
1636977509.53125,-14.34,,,2038335.0
1636977509.546875,2.25,,,2034705.0
1636977509.5625,16.8,,,2030256.0
1636977509.578125,29.44,,,2026762.0
1636977509.59375,40.26,,,2023312.0
1636977509.609375,49.2,,,2038163.0
1636977509.625,56.17,,,2020895.0
1636977509.640625,61.12,,,2019886.0
1636977509.65625,64.22,,,2019594.0
1636977509.671875,65.84,,,2019142.0
1636977509.6875,66.48,,,2018976.0
1636977509.703125,66.62,,,2019203.0
1636977509.71875,66.56,,,2020164.0
1636977509.734375,66.46,,,2021733.0
1636977509.75,66.23,,,2023209.0
1636977509.765625,65.76,,,2025109.0
1636977509.78125,65.0,,,2026692.0
1636977509.796875,64.01,,,2028643.0
1636977509.8125,62.96,,,2032275.0
1636977509.828125,61.92,,,2034008.0
1636977509.84375,60.77,,,2036217.0
1636977509.859375,59.12,,,2030452.0
1636977509.875,56.48,,,2038433.0
1636977509.890625,52.43,,,2039791.0
1636977509.90625,46.92,,,2038030.0
1636977509.921875,40.28,,,2033887.0
1636977509.9375,33.14,,,2029521.0
1636977509.953125,26.21,,,2023225.0
1636977509.96875,19.97,,,2021257.0
1636977509.984375,14.55,,,2020357.0
1636977510.0,9.73,,,2019978.0
1636977510.015625,5.11,,,2019485.0
1636977510.03125,0.32,,,2026329.0
1636977510.046875,-4.84,,,2019820.0
1636977510.0625,-10.3,,,2020191.0
1636977510.078125,-15.84,,,2021230.0
1636977510.09375,-21.19,,,2022246.0
1636977510.109375,-26.23,,,2023769.0
1636977510.125,-30.97,,,2025315.0
1636977510.140625,-35.66,,,2026819.0
1636977510.15625,-40.69,,,2028433.0
1636977510.171875,-46.5,,,2029886.0
1636977510.1875,-53.49,,,2031915.0
1636977510.203125,-61.81,,,2034119.0
1636977510.21875,-71.18,,,2036321.0
1636977510.234375,-80.77,,,2039696.0
1636977510.25,-89.2,,,2042296.0
1636977510.265625,-94.74,,,2041280.0
1636977510.28125,-95.82,,,2040087.0
1636977510.296875,-91.45,,,2038408.0
1636977510.3125,-81.64,,,2034876.0
1636977510.328125,-67.38,,,2031846.0
1636977510.34375,-50.37,,,2028837.0
1636977510.359375,-32.44,,,2027050.0
1636977510.375,-15.11,,,2027768.0
1636977510.390625,0.75,,,2031275.0
1636977510.40625,14.83,,,2034816.0
1636977510.421875,27.13,,,2039361.0
1636977510.4375,37.61,,,2041544.0
1636977510.453125,46.14,,,2040795.0
1636977510.46875,52.46,,,2041274.0
1636977510.484375,56.45,,,2041972.0
1636977510.5,58.25,,,2043056.0
1636977510.515625,58.3,,,2045259.0
1636977510.53125,57.17,,,2046962.0
1636977510.546875,55.4,,,2049433.0
1636977510.5625,53.37,,,2052073.0
1636977510.578125,51.27,,,2053998.0
1636977510.59375,49.18,,,2052299.0
1636977510.609375,47.13,,,2048572.0
1636977510.625,45.2,,,2044504.0
1636977510.640625,43.46,,,2040845.0
1636977510.65625,41.89,,,2037741.0
1636977510.671875,40.36,,,2036300.0
1636977510.6875,38.59,,,2036072.0
1636977510.703125,36.22,,,2035740.0
1636977510.71875,32.97,,,2035107.0
1636977510.734375,28.74,,,2035365.0
1636977510.75,23.63,,,2035711.0
1636977510.765625,17.94,,,2036602.0
1636977510.78125,12.01,,,2037345.0
1636977510.796875,6.1,,,2038865.0
1636977510.8125,0.29,,,2040600.0
1636977510.828125,-5.56,,,2041999.0
1636977510.84375,-11.73,,,2043356.0
1636977510.859375,-18.46,,,2044929.0
1636977510.875,-25.84,,,2046566.0
1636977510.890625,-33.65,,,2048799.0
1636977510.90625,-41.44,,,2049985.0
1636977510.921875,-48.67,,,2050732.0
1636977510.9375,-54.93,,,2046850.0
1636977510.953125,-60.18,,,2041780.0
1636977510.96875,-64.8,,,2037214.0
1636977510.984375,-69.59,,,2032729.0
1636977511.0,-75.47,,,2029135.0
1636977511.015625,-83.11,,,2027049.0
1636977511.03125,-92.7,,,2025866.0
1636977511.046875,-103.6,,,2025288.0
1636977511.0625,-114.37,,,2024058.0
1636977511.078125,-122.96,,,2023314.0
1636977511.09375,-127.19,,,2022898.0
1636977511.109375,-125.39,,,2021831.0
1636977511.125,-116.9,,,2019673.0
1636977511.140625,-102.32,,,2017186.0
1636977511.15625,-83.37,,,2014646.0
1636977511.171875,-62.34,,,2014793.0
1636977511.1875,-41.42,,,2018374.0
1636977511.203125,-22.12,,,2023220.0
1636977511.21875,-5.1,,,2027829.0
1636977511.234375,9.72,,,2030973.0
1636977511.25,22.71,,,2030383.0
1636977511.265625,34.13,,,2025059.0
1636977511.28125,44.0,,,2018790.0
1636977511.296875,52.04,,,2014179.0
1636977511.3125,58.06,,,2009506.0
1636977511.328125,62.05,,,2006705.0
1636977511.34375,64.35,,,2004938.0
1636977511.359375,65.44,,,2004192.0
1636977511.375,65.86,,,2003450.0
1636977511.390625,65.87,,,2003118.0
1636977511.40625,65.61,,,2003231.0
1636977511.421875,65.02,,,2003751.0
1636977511.4375,64.13,,,2004662.0
1636977511.453125,63.11,,,2006088.0
1636977511.46875,62.24,,,2007460.0
1636977511.484375,61.78,,,2008911.0
1636977511.5,61.71,,,2010121.0
1636977511.515625,61.64,,,2011758.0
1636977511.53125,60.92,,,2013688.0
1636977511.546875,58.84,,,2015343.0
1636977511.5625,54.99,,,2017200.0
1636977511.578125,49.44,,,2018786.0
1636977511.59375,42.74,,,2016680.0
1636977511.609375,35.69,,,2010957.0
1636977511.625,29.01,,,2004566.0
1636977511.640625,23.03,,,1999231.0
1636977511.65625,17.64,,,1994002.0
1636977511.671875,12.33,,,1990456.0
1636977511.6875,6.59,,,1988602.0
1636977511.703125,0.09,,,1987544.0
1636977511.71875,-7.15,,,1986502.0
1636977511.734375,-14.83,,,1985643.0
1636977511.75,-22.49,,,1985079.0
1636977511.765625,-29.76,,,1985936.0
1636977511.78125,-36.47,,,1986637.0
1636977511.796875,-42.71,,,1987754.0
1636977511.8125,-48.79,,,1989155.0
1636977511.828125,-55.13,,,1990503.0
1636977511.84375,-62.21,,,1992232.0
1636977511.859375,-70.33,,,1992232.0
1636977511.875,-79.55,,,1993777.0
1636977511.890625,-89.41,,,1995321.0
1636977511.90625,-98.81,,,1997567.0
1636977511.921875,-106.08,,,2000692.0
1636977511.9375,-109.29,,,2003542.0
1636977511.953125,-106.81,,,2002076.0
1636977511.96875,-97.89,,,1996784.0
1636977511.984375,-83.02,,,1992287.0
1636977512.0,-63.83,,,1988630.0
1636977512.015625,-42.6,,,1985288.0
1636977512.03125,-21.57,,,1984265.0
1636977512.046875,-2.28,,,1986903.0
1636977512.0625,14.6,,,1989608.0
1636977512.078125,29.1,,,1990107.0
1636977512.09375,41.55,,,1989162.0
1636977512.109375,52.13,,,1988056.0
1636977512.125,60.84,,,1987363.0
1636977512.140625,67.54,,,1987449.0
1636977512.15625,72.22,,,1987898.0
1636977512.171875,75.13,,,1988340.0
1636977512.1875,76.66,,,1989417.0
1636977512.203125,77.21,,,1991080.0
1636977512.21875,77.04,,,1992819.0
1636977512.234375,76.24,,,1995374.0
1636977512.25,74.88,,,1997441.0
1636977512.265625,73.11,,,1999782.0
1636977512.28125,71.21,,,2001806.0
1636977512.296875,69.46,,,2000266.0
1636977512.3125,68.02,,,1995544.0
1636977512.328125,66.84,,,1991283.0
1636977512.34375,65.6,,,1987329.0
1636977512.359375,63.89,,,1984066.0
1636977512.375,61.32,,,1982505.0
1636977512.390625,57.6,,,1981973.0
1636977512.40625,52.65,,,1981688.0
1636977512.421875,46.53,,,1981222.0
1636977512.4375,39.5,,,1981530.0
1636977512.453125,31.98,,,1982337.0
1636977512.46875,24.46,,,1983199.0
1636977512.484375,17.36,,,1985033.0
1636977512.5,10.85,,,1986474.0
1636977512.515625,4.76,,,1988833.0
1636977512.53125,-1.3,,,1990795.0
1636977512.546875,-7.74,,,1992832.0
1636977512.5625,-14.71,,,1994734.0
1636977512.578125,-21.97,,,1997207.0
1636977512.59375,-29.02,,,1999314.0
1636977512.609375,-35.36,,,2001611.0
1636977512.625,-40.82,,,2003393.0
1636977512.640625,-45.75,,,2000750.0
1636977512.65625,-50.92,,,1996520.0
1636977512.671875,-57.27,,,1991887.0
1636977512.6875,-65.36,,,1988517.0
1636977512.703125,-75.09,,,1985131.0
1636977512.71875,-85.52,,,1983116.0
1636977512.734375,-95.06,,,1981251.0
1636977512.75,-101.84,,,1979258.0
1636977512.765625,-104.22,,,1979731.0
1636977512.78125,-101.25,,,1980206.0
1636977512.796875,-92.91,,,1980818.0
1636977512.8125,-80.08,,,1981495.0
1636977512.828125,-64.25,,,1981253.0
1636977512.84375,-47.13,,,1983350.0
1636977512.859375,-30.16,,,1987690.0
1636977512.875,-14.34,,,1992999.0
1636977512.890625,-0.18,,,1998338.0
1636977512.90625,12.13,,,2002775.0
1636977512.921875,22.48,,,2004699.0
1636977512.9375,30.71,,,2006315.0
1636977512.953125,36.67,,,2008054.0
1636977512.96875,40.4,,,2010461.0
1636977512.984375,42.21,,,2010476.0
1636977513.0,42.7,,,2007517.0
1636977513.015625,42.56,,,2004500.0
1636977513.03125,42.37,,,2001911.0
1636977513.046875,42.45,,,1999653.0
1636977513.0625,42.8,,,1997794.0
1636977513.078125,43.29,,,1998088.0
1636977513.09375,43.75,,,1998665.0
1636977513.109375,44.08,,,1999160.0
1636977513.125,44.18,,,1999555.0
1636977513.140625,43.94,,,2000430.0
1636977513.15625,43.25,,,2001645.0
1636977513.171875,41.95,,,2003219.0
1636977513.1875,39.96,,,2005110.0
1636977513.203125,37.23,,,2006606.0
1636977513.21875,33.79,,,2008704.0
1636977513.234375,29.65,,,2010352.0
1636977513.25,24.9,,,2011998.0
1636977513.265625,19.68,,,2014275.0
1636977513.28125,14.23,,,2016275.0
1636977513.296875,8.84,,,2018228.0
1636977513.3125,3.72,,,2019886.0
1636977513.328125,-1.16,,,2017556.0
1636977513.34375,-6.06,,,2013695.0
1636977513.359375,-11.41,,,2010062.0
1636977513.375,-17.5,,,2006980.0
1636977513.390625,-24.31,,,2004673.0
1636977513.40625,-31.45,,,2003979.0
1636977513.421875,-38.34,,,2003726.0
1636977513.4375,-44.46,,,2003941.0
1636977513.453125,-49.72,,,2004226.0
1636977513.46875,-54.46,,,2004808.0
1636977513.484375,-59.41,,,2005404.0
1636977513.5,-65.34,,,2007215.0
1636977513.515625,-72.73,,,2008380.0
1636977513.53125,-81.49,,,2009803.0
1636977513.546875,-90.77,,,2011703.0
1636977513.5625,-99.16,,,2013274.0
1636977513.578125,-104.79,,,2013672.0
1636977513.59375,-105.92,,,2013622.0
1636977513.609375,-101.3,,,2014299.0
1636977513.625,-90.67,,,2013834.0
1636977513.640625,-74.88,,,2015817.0
1636977513.65625,-55.67,,,2015597.0
1636977513.671875,-35.21,,,2015996.0
1636977513.6875,-15.42,,,2014675.0
1636977513.703125,2.48,,,2011904.0
1636977513.71875,18.13,,,2008799.0
1636977513.734375,31.76,,,2003693.0
1636977513.75,43.73,,,2005341.0
1636977513.765625,54.16,,,2002393.0
1636977513.78125,62.79,,,2001654.0
1636977513.796875,69.26,,,2001524.0
1636977513.8125,73.37,,,2002497.0
1636977513.828125,75.34,,,2004762.0
1636977513.84375,75.77,,,2007691.0
1636977513.859375,75.37,,,2010639.0
1636977513.875,74.67,,,2014088.0
1636977513.890625,73.82,,,2016679.0
1636977513.90625,72.68,,,2018754.0
1636977513.921875,71.03,,,2020997.0
1636977513.9375,68.84,,,2023142.0
1636977513.953125,66.4,,,2025795.0
1636977513.96875,64.13,,,2028496.0
1636977513.984375,62.38,,,2030849.0
1636977514.0,61.17,,,2031137.0
1636977514.015625,60.17,,,2027943.0
1636977514.03125,58.71,,,2023369.0
1636977514.046875,56.15,,,2020128.0
1636977514.0625,52.01,,,2016582.0
1636977514.078125,46.23,,,2014144.0
1636977514.09375,39.19,,,2013458.0
1636977514.109375,31.62,,,2013273.0
1636977514.125,24.33,,,2013285.0
1636977514.140625,17.98,,,2013260.0
1636977514.15625,12.77,,,2013830.0
1636977514.171875,8.39,,,2014267.0
1636977514.1875,4.17,,,2015947.0
1636977514.203125,-0.58,,,2017338.0
1636977514.21875,-6.24,,,2018994.0
1636977514.234375,-12.66,,,2020607.0
1636977514.25,-19.33,,,2022624.0
1636977514.265625,-25.59,,,2024692.0
1636977514.28125,-31.04,,,2026665.0
1636977514.296875,-35.76,,,2028898.0
1636977514.3125,-40.23,,,2031142.0
1636977514.328125,-45.1,,,2029832.0
1636977514.34375,-50.99,,,2025965.0
1636977514.359375,-58.21,,,2023342.0
1636977514.375,-66.75,,,2021162.0
1636977514.390625,-76.16,,,2019892.0
1636977514.40625,-85.5,,,2020611.0
1636977514.421875,-93.37,,,2021501.0
1636977514.4375,-98.16,,,2023550.0
1636977514.453125,-98.39,,,2026735.0
1636977514.46875,-93.21,,,2031728.0
1636977514.484375,-82.72,,,2036894.0
1636977514.5,-67.97,,,2040564.0
1636977514.515625,-50.68,,,2043883.0
1636977514.53125,-32.67,,,2046009.0
1636977514.546875,-15.32,,,2048109.0
1636977514.5625,0.57,,,2050918.0
1636977514.578125,14.74,,,2054242.0
1636977514.59375,27.23,,,2057193.0
1636977514.609375,38.01,,,2059852.0
1636977514.625,46.92,,,2062012.0
1636977514.640625,53.74,,,2064091.0
1636977514.65625,58.44,,,2063941.0
1636977514.671875,61.17,,,2060590.0
1636977514.6875,62.32,,,2056628.0
1636977514.703125,62.41,,,2052599.0
1636977514.71875,61.86,,,2049458.0
1636977514.734375,60.99,,,2046978.0
1636977514.75,59.94,,,2046474.0
1636977514.765625,58.74,,,2046428.0
1636977514.78125,57.37,,,2046233.0
1636977514.796875,55.79,,,2046171.0
1636977514.8125,54.0,,,2046393.0
1636977514.828125,52.05,,,2047056.0
1636977514.84375,50.06,,,2048295.0
1636977514.859375,48.15,,,2049785.0
1636977514.875,46.32,,,2051280.0
1636977514.890625,44.34,,,2052806.0
1636977514.90625,41.81,,,2054372.0
1636977514.921875,38.33,,,2055954.0
1636977514.9375,33.67,,,2057746.0
1636977514.953125,27.98,,,2059907.0
1636977514.96875,21.79,,,2061773.0
1636977514.984375,15.73,,,2063431.0
1636977515.0,10.24,,,2061502.0
1636977515.015625,5.35,,,2057315.0
1636977515.03125,0.69,,,2053217.0
1636977515.046875,-4.28,,,2049828.0
1636977515.0625,-9.95,,,2046241.0
1636977515.078125,-16.4,,,2044106.0
1636977515.09375,-23.36,,,2043674.0
1636977515.109375,-30.34,,,2043414.0
1636977515.125,-36.83,,,2042845.0
1636977515.140625,-42.55,,,2042270.0
1636977515.15625,-47.49,,,2042165.0
1636977515.171875,-51.95,,,2042980.0
1636977515.1875,-56.5,,,2044823.0
1636977515.203125,-61.75,,,2047220.0
1636977515.21875,-68.22,,,2050816.0
1636977515.234375,-75.99,,,2050816.0
1636977515.25,-84.64,,,2055600.0
1636977515.265625,-93.1,,,2060546.0
1636977515.28125,-99.88,,,2065138.0
1636977515.296875,-103.36,,,2068884.0
1636977515.3125,-102.2,,,2072975.0
1636977515.328125,-95.74,,,2076233.0
1636977515.34375,-84.26,,,2076214.0
1636977515.359375,-68.83,,,2073160.0
1636977515.375,-51.08,,,2069799.0
1636977515.390625,-32.78,,,2066753.0
1636977515.40625,-15.39,,,2063096.0
1636977515.421875,0.15,,,2060510.0
1636977515.4375,13.43,,,2059557.0
1636977515.453125,24.44,,,2058489.0
1636977515.46875,33.33,,,2057322.0
1636977515.484375,40.28,,,2056522.0
1636977515.5,45.39,,,2056384.0
1636977515.515625,48.75,,,2056264.0
1636977515.53125,50.54,,,2056868.0
1636977515.546875,51.07,,,2057588.0
1636977515.5625,50.81,,,2058135.0
1636977515.578125,50.21,,,2059419.0
1636977515.59375,49.63,,,2060524.0
1636977515.609375,49.25,,,2061700.0
1636977515.625,49.02,,,2062541.0
1636977515.640625,48.79,,,2064046.0
1636977515.65625,48.36,,,2065738.0
1636977515.671875,47.63,,,2064534.0
1636977515.6875,46.61,,,2060236.0
1636977515.703125,45.36,,,2055584.0
1636977515.71875,43.94,,,2050766.0
1636977515.734375,42.24,,,2046367.0
1636977515.75,40.11,,,2042775.0
1636977515.765625,37.33,,,2041024.0
1636977515.78125,33.8,,,2040282.0
1636977515.796875,29.58,,,2039479.0
1636977515.8125,24.92,,,2039006.0
1636977515.828125,20.2,,,2038885.0
1636977515.84375,15.75,,,2039265.0
1636977515.859375,11.72,,,2040044.0
1636977515.875,7.97,,,2041366.0
1636977515.890625,4.14,,,2042715.0
1636977515.90625,-0.25,,,2043557.0
1636977515.921875,-5.53,,,2043785.0
1636977515.9375,-11.77,,,2043003.0
1636977515.953125,-18.61,,,2042525.0
1636977515.96875,-25.49,,,2042196.0
1636977515.984375,-31.75,,,2041935.0
1636977516.0,-36.96,,,2043103.0
1636977516.015625,-41.09,,,2041409.0
1636977516.03125,-44.49,,,2036945.0
1636977516.046875,-47.77,,,2032418.0
1636977516.0625,-51.62,,,2030048.0
1636977516.078125,-56.55,,,2029893.0
1636977516.09375,-62.84,,,2030091.0
1636977516.109375,-70.45,,,2029982.0
1636977516.125,-78.91,,,2029588.0
1636977516.140625,-87.29,,,2028115.0
1636977516.15625,-94.12,,,2026156.0
1636977516.171875,-97.7,,,2025880.0
1636977516.1875,-96.42,,,2025453.0
1636977516.203125,-89.35,,,2026265.0
1636977516.21875,-76.74,,,2027066.0
1636977516.234375,-59.97,,,2027993.0
1636977516.25,-41.23,,,2029084.0
1636977516.265625,-22.75,,,2029996.0
1636977516.28125,-6.1,,,2031796.0
1636977516.296875,8.1,,,2033061.0
1636977516.3125,20.08,,,2035059.0
1636977516.328125,30.46,,,2037141.0
1636977516.34375,39.66,,,2037665.0
1636977516.359375,47.69,,,2034468.0
1636977516.375,54.18,,,2030631.0
1636977516.390625,58.76,,,2027438.0
1636977516.40625,61.31,,,2024208.0
1636977516.421875,62.13,,,2022115.0
1636977516.4375,61.84,,,2021329.0
1636977516.453125,61.12,,,2020996.0
1636977516.46875,60.42,,,2020828.0
1636977516.484375,59.94,,,2020423.0
1636977516.5,59.61,,,2020855.0
1636977516.515625,59.23,,,2021668.0
1636977516.53125,58.62,,,2022931.0
1636977516.546875,57.71,,,2024387.0
1636977516.5625,56.58,,,2026517.0
1636977516.578125,55.31,,,2028200.0
1636977516.59375,53.92,,,2030203.0
1636977516.609375,52.24,,,2032080.0
1636977516.625,49.96,,,2033996.0
1636977516.640625,46.75,,,2036114.0
1636977516.65625,42.44,,,2038235.0
1636977516.671875,37.11,,,2040023.0
1636977516.6875,31.04,,,2039311.0
1636977516.703125,24.71,,,2035430.0
1636977516.71875,18.52,,,2030655.0
1636977516.734375,12.79,,,2025872.0
1636977516.75,7.56,,,2021347.0
1636977516.765625,2.71,,,2017039.0
1636977516.78125,-2.0,,,2014359.0
1636977516.796875,-6.84,,,2014128.0
1636977516.8125,-12.0,,,2016629.0
1636977516.828125,-17.53,,,2019495.0
1636977516.84375,-23.32,,,2023204.0
1636977516.859375,-29.13,,,2026328.0
1636977516.875,-34.68,,,2030641.0
1636977516.890625,-39.79,,,2036515.0
1636977516.90625,-44.51,,,2042940.0
1636977516.921875,-49.16,,,2046911.0
1636977516.9375,-54.22,,,2048674.0
1636977516.953125,-60.14,,,2049341.0
1636977516.96875,-67.25,,,2050646.0
1636977516.984375,-75.47,,,2052953.0
1636977517.0,-84.29,,,2054735.0
1636977517.015625,-92.68,,,2057578.0
1636977517.03125,-99.25,,,2059048.0
1636977517.046875,-102.5,,,2057148.0
1636977517.0625,-101.17,,,2053032.0
1636977517.078125,-94.66,,,2048935.0
1636977517.09375,-83.21,,,2044726.0
1636977517.109375,-67.92,,,2041748.0
1636977517.125,-50.43,,,2039740.0
1636977517.140625,-32.47,,,2038865.0
1636977517.15625,-15.45,,,2037983.0
1636977517.171875,-0.2,,,2037207.0
1636977517.1875,12.99,,,2036628.0
1636977517.203125,24.2,,,2036653.0
1636977517.21875,33.5,,,2037285.0
1636977517.234375,40.88,,,2038121.0
1636977517.25,46.25,,,2038560.0
1636977517.265625,49.59,,,2039454.0
1636977517.28125,51.18,,,2039926.0
1636977517.296875,51.57,,,2041410.0
1636977517.3125,51.47,,,2042933.0
1636977517.328125,51.44,,,2044592.0
1636977517.34375,51.71,,,2046670.0
1636977517.359375,52.07,,,2048705.0
1636977517.375,52.16,,,2047204.0
1636977517.390625,51.74,,,2042989.0
1636977517.40625,50.82,,,2038942.0
1636977517.421875,49.67,,,2035223.0
1636977517.4375,48.6,,,2031954.0
1636977517.453125,47.73,,,2030169.0
1636977517.46875,46.85,,,2029779.0
1636977517.484375,45.57,,,2029374.0
1636977517.5,43.44,,,2029116.0
1636977517.515625,40.26,,,2029293.0
1636977517.53125,36.1,,,2029832.0
1636977517.546875,31.26,,,2030734.0
1636977517.5625,26.09,,,2032313.0
1636977517.578125,20.92,,,2033807.0
1636977517.59375,15.94,,,2034340.0
1636977517.609375,11.2,,,2033460.0
1636977517.625,6.71,,,2032297.0
1636977517.640625,2.39,,,2031646.0
1636977517.65625,-1.87,,,2032732.0
1636977517.671875,-6.23,,,2033853.0
1636977517.6875,-10.83,,,2034167.0
1636977517.703125,-15.68,,,2032655.0
1636977517.71875,-20.66,,,2028275.0
1636977517.734375,-25.54,,,2024873.0
1636977517.75,-30.14,,,2026064.0
1636977517.765625,-34.41,,,2026962.0
1636977517.78125,-38.61,,,2028444.0
1636977517.796875,-43.13,,,2027690.0
1636977517.8125,-48.48,,,2026023.0
1636977517.828125,-55.0,,,2023895.0
1636977517.84375,-62.65,,,2022302.0
1636977517.859375,-70.93,,,2023652.0
1636977517.875,-78.78,,,2022899.0
1636977517.890625,-84.82,,,2022253.0
1636977517.90625,-87.57,,,2025275.0
1636977517.921875,-85.85,,,2031425.0
1636977517.9375,-79.13,,,2033298.0
1636977517.953125,-67.79,,,2029590.0
1636977517.96875,-53.02,,,2035169.0
1636977517.984375,-36.51,,,2027406.0
1636977518.0,-19.96,,,2043470.0
1636977518.015625,-4.62,,,2040347.0
1636977518.03125,8.88,,,2037244.0
1636977518.046875,20.49,,,2039585.0
1636977518.0625,30.37,,,2041646.0
1636977518.078125,38.64,,,2035384.0
1636977518.09375,45.26,,,2030779.0
1636977518.109375,50.08,,,2026554.0
1636977518.125,53.04,,,2026554.0
1636977518.140625,54.32,,,2022430.0
1636977518.15625,54.26,,,2020181.0
1636977518.171875,53.31,,,2019086.0
1636977518.1875,51.81,,,2017806.0
1636977518.203125,50.03,,,2017377.0
1636977518.21875,48.16,,,2016879.0
1636977518.234375,46.41,,,2017097.0
1636977518.25,45.05,,,2017599.0
1636977518.265625,44.24,,,2018928.0
1636977518.28125,43.99,,,2020240.0
1636977518.296875,44.07,,,2021802.0
1636977518.3125,44.04,,,2023012.0
1636977518.328125,43.44,,,2024476.0
1636977518.34375,41.86,,,2026519.0
1636977518.359375,39.06,,,2028414.0
1636977518.375,34.96,,,2030516.0
1636977518.390625,29.71,,,2031588.0
1636977518.40625,23.68,,,2028960.0
1636977518.421875,17.39,,,2024151.0
1636977518.4375,11.39,,,2020460.0
1636977518.453125,6.09,,,2017495.0
1636977518.46875,1.58,,,2015730.0
1636977518.484375,-2.46,,,2016029.0
1636977518.5,-6.61,,,2017589.0
1636977518.515625,-11.46,,,2020077.0
1636977518.53125,-17.29,,,2022730.0
1636977518.546875,-23.89,,,2025639.0
1636977518.5625,-30.74,,,2031570.0
1636977518.578125,-37.18,,,2036824.0
1636977518.59375,-42.75,,,2041218.0
1636977518.609375,-47.37,,,2044471.0
1636977518.625,-51.37,,,2046710.0
1636977518.640625,-55.31,,,2048984.0
1636977518.65625,-59.86,,,2051349.0
1636977518.671875,-65.61,,,2053517.0
1636977518.6875,-72.87,,,2056229.0
1636977518.703125,-81.55,,,2058243.0
1636977518.71875,-90.96,,,2057774.0
1636977518.734375,-99.81,,,2051916.0
1636977518.75,-106.38,,,2044467.0
1636977518.765625,-108.92,,,2036775.0
1636977518.78125,-106.13,,,2029500.0
1636977518.796875,-97.65,,,2022001.0
1636977518.8125,-84.18,,,2018243.0
1636977518.828125,-67.23,,,2015379.0
1636977518.84375,-48.65,,,2012681.0
1636977518.859375,-30.1,,,2010390.0
1636977518.875,-12.73,,,2009322.0
1636977518.890625,2.83,,,2008628.0
1636977518.90625,16.33,,,2008476.0
1636977518.921875,27.67,,,2008670.0
1636977518.9375,36.82,,,2009511.0
1636977518.953125,43.85,,,2010040.0
1636977518.96875,48.98,,,2010750.0
1636977518.984375,52.55,,,2011621.0
1636977519.0,55.01,,,2012665.0
1636977519.015625,56.7,,,2014015.0
1636977519.03125,57.82,,,2015858.0
1636977519.046875,58.42,,,2016466.0
1636977519.0625,58.46,,,2013323.0
1636977519.078125,57.9,,,2007032.0
1636977519.09375,56.79,,,2001555.0
1636977519.109375,55.25,,,1996106.0
1636977519.125,53.49,,,1991480.0
1636977519.140625,51.72,,,1988509.0
1636977519.15625,50.16,,,1987126.0
1636977519.171875,48.85,,,1986516.0
1636977519.1875,47.65,,,1985643.0
1636977519.203125,46.2,,,1985195.0
1636977519.21875,44.05,,,1985386.0
1636977519.234375,40.9,,,1985184.0
1636977519.25,36.72,,,1985324.0
1636977519.265625,31.82,,,1985072.0
1636977519.28125,26.72,,,1985441.0
1636977519.296875,21.91,,,1984938.0
1636977519.3125,17.6,,,1985146.0
1636977519.328125,13.63,,,1986711.0
1636977519.34375,9.63,,,1992810.0
1636977519.359375,5.23,,,1999716.0
1636977519.375,0.28,,,2005857.0
1636977519.390625,-5.11,,,2009851.0
1636977519.40625,-10.69,,,2006800.0
1636977519.421875,-16.28,,,2001239.0
1636977519.4375,-21.78,,,1996673.0
1636977519.453125,-27.26,,,1992248.0
1636977519.46875,-32.82,,,1989630.0
1636977519.484375,-38.57,,,1987440.0
1636977519.5,-44.65,,,1985894.0
1636977519.515625,-51.32,,,1984356.0
1636977519.53125,-58.86,,,1984246.0
1636977519.546875,-67.33,,,1984542.0
1636977519.5625,-76.34,,,1985733.0
1636977519.578125,-84.82,,,1987410.0
1636977519.59375,-91.14,,,1989319.0
1636977519.609375,-93.58,,,1991707.0
1636977519.625,-90.85,,,1994220.0
1636977519.640625,-82.59,,,1996269.0
1636977519.65625,-69.54,,,1999192.0
1636977519.671875,-53.29,,,2001696.0
1636977519.6875,-35.79,,,2004223.0
1636977519.703125,-18.82,,,2006492.0
1636977519.71875,-3.55,,,2009225.0
1636977519.734375,9.51,,,2008406.0
1636977519.75,20.39,,,2004346.0
1636977519.765625,29.3,,,2000074.0
1636977519.78125,36.34,,,1996036.0
1636977519.796875,41.48,,,1992344.0
1636977519.8125,44.55,,,1989678.0
1636977519.828125,45.55,,,1988916.0
1636977519.84375,44.87,,,1989122.0
1636977519.859375,43.22,,,1989170.0
1636977519.875,41.45,,,1989205.0
1636977519.890625,40.23,,,1989938.0
1636977519.90625,39.74,,,1991148.0
1636977519.921875,39.73,,,1992627.0
1636977519.9375,39.77,,,1994388.0
1636977519.953125,39.56,,,1996513.0
1636977519.96875,39.09,,,1998819.0
1636977519.984375,38.63,,,2000763.0
1636977520.0,38.36,,,2003396.0
1636977520.015625,38.27,,,2006437.0
1636977520.03125,37.96,,,2008866.0
1636977520.046875,36.9,,,2010403.0
1636977520.0625,34.66,,,2011526.0
1636977520.078125,31.09,,,2010676.0
1636977520.09375,26.45,,,2005062.0
1636977520.109375,21.25,,,1998621.0
1636977520.125,15.99,,,1992347.0
1636977520.140625,11.02,,,1987371.0
1636977520.15625,6.39,,,1986104.0
1636977520.171875,1.96,,,1988004.0
1636977520.1875,-2.57,,,1989885.0
1636977520.203125,-7.42,,,1989449.0
1636977520.21875,-12.73,,,1988063.0
1636977520.234375,-18.46,,,1986482.0
1636977520.25,-24.46,,,1984591.0
1636977520.265625,-30.46,,,1984588.0
1636977520.28125,-36.27,,,1985349.0
1636977520.296875,-41.73,,,1987065.0
1636977520.3125,-46.9,,,1989042.0
1636977520.328125,-52.04,,,1991800.0
1636977520.34375,-57.63,,,1994625.0
1636977520.359375,-64.26,,,1997590.0
1636977520.375,-72.37,,,2000676.0
1636977520.390625,-81.95,,,2003397.0
1636977520.40625,-92.29,,,2006469.0
1636977520.421875,-101.89,,,2008510.0
1636977520.4375,-108.84,,,2006673.0
1636977520.453125,-111.21,,,2002827.0
1636977520.46875,-107.75,,,1998691.0
1636977520.484375,-98.19,,,1995288.0
1636977520.5,-83.35,,,1992656.0
1636977520.515625,-64.87,,,1991696.0
1636977520.53125,-44.7,,,1991400.0
1636977520.546875,-24.61,,,1991400.0
1636977520.5625,-5.84,,,1991545.0
1636977520.578125,10.96,,,1991607.0
1636977520.59375,25.62,,,1992147.0
1636977520.609375,38.18,,,1993126.0
1636977520.625,48.63,,,1994529.0
1636977520.640625,56.86,,,1996055.0
1636977520.65625,62.73,,,1997814.0
1636977520.671875,66.28,,,2000130.0
1636977520.6875,67.86,,,2001891.0
1636977520.703125,68.1,,,2004057.0
1636977520.71875,67.8,,,2006392.0
1636977520.734375,67.59,,,2008654.0
1636977520.75,67.78,,,2010813.0
1636977520.765625,68.23,,,2013147.0
1636977520.78125,68.61,,,2015622.0
1636977520.796875,68.62,,,2017893.0
1636977520.8125,68.11,,,2016247.0
1636977520.828125,67.19,,,2012687.0
1636977520.84375,66.02,,,2008958.0
1636977520.859375,64.65,,,2004981.0
1636977520.875,62.96,,,2000979.0
1636977520.890625,60.65,,,1997435.0
1636977520.90625,57.45,,,1994510.0
1636977520.921875,53.2,,,1992586.0
1636977520.9375,48.03,,,1991507.0
1636977520.953125,42.27,,,1991430.0
1636977520.96875,36.34,,,1993463.0
1636977520.984375,30.51,,,1999497.0
1636977521.0,24.84,,,2004722.0
1636977521.015625,19.14,,,2010284.0
1636977521.03125,13.06,,,2013015.0
1636977521.046875,6.34,,,2014490.0
1636977521.0625,-1.07,,,2015874.0
1636977521.078125,-8.97,,,2020011.0
1636977521.09375,-16.92,,,2022044.0
1636977521.109375,-24.47,,,2017844.0
1636977521.125,-31.28,,,2024107.0
1636977521.140625,-37.35,,,2025628.0
1636977521.15625,-43.01,,,2027681.0
1636977521.171875,-48.82,,,2027460.0
1636977521.1875,-55.42,,,2024209.0
1636977521.203125,-63.32,,,2020010.0
1636977521.21875,-72.59,,,2016603.0
1636977521.234375,-82.64,,,2013317.0
1636977521.25,-92.19,,,2010904.0
1636977521.265625,-99.39,,,2009585.0
1636977521.28125,-102.3,,,2009548.0
1636977521.296875,-99.46,,,2009086.0
1636977521.3125,-90.45,,,2009123.0
1636977521.328125,-76.08,,,2009131.0
1636977521.34375,-58.13,,,2010074.0
1636977521.359375,-38.86,,,2011148.0
1636977521.375,-20.2,,,2013029.0
1636977521.390625,-3.4,,,2014775.0
1636977521.40625,11.19,,,2017148.0
1636977521.421875,23.85,,,2019648.0
1636977521.4375,34.99,,,2022162.0
1636977521.453125,44.83,,,2024603.0
1636977521.46875,53.2,,,2026798.0
1636977521.484375,59.76,,,2029342.0
1636977521.5,64.26,,,2031981.0
1636977521.515625,66.71,,,2034117.0
1636977521.53125,67.52,,,2032124.0
1636977521.546875,67.21,,,2028230.0
1636977521.5625,66.25,,,2024699.0
1636977521.578125,64.88,,,2021421.0
1636977521.59375,63.14,,,2018919.0
1636977521.609375,61.06,,,2017585.0
1636977521.625,58.81,,,2017377.0
1636977521.640625,56.72,,,2017754.0
1636977521.65625,55.1,,,2017827.0
1636977521.671875,54.04,,,2016872.0
1636977521.6875,53.2,,,2016104.0
1636977521.703125,52.0,,,2015614.0
1636977521.71875,49.77,,,2016578.0
1636977521.734375,46.09,,,2017979.0
1636977521.75,40.98,,,2019148.0
1636977521.765625,34.75,,,2020661.0
1636977521.78125,27.92,,,2022531.0
1636977521.796875,20.9,,,2024686.0
1636977521.8125,13.96,,,2027074.0
1636977521.828125,7.18,,,2031432.0
1636977521.84375,0.54,,,2036105.0
1636977521.859375,-6.03,,,2038744.0
1636977521.875,-12.6,,,2040936.0
1636977521.890625,-19.25,,,2040325.0
1636977521.90625,-25.92,,,2035661.0
1636977521.921875,-32.46,,,2030647.0
1636977521.9375,-38.56,,,2027065.0
1636977521.953125,-43.97,,,2023852.0
1636977521.96875,-48.63,,,2020837.0
1636977521.984375,-52.81,,,2019659.0
1636977522.0,-57.14,,,2019810.0
1636977522.015625,-62.46,,,2019961.0
1636977522.03125,-69.52,,,2019824.0
1636977522.046875,-78.56,,,2020464.0
1636977522.0625,-89.07,,,2021409.0
1636977522.078125,-99.69,,,2022944.0
1636977522.09375,-108.42,,,2024265.0
1636977522.109375,-113.15,,,2026091.0
1636977522.125,-112.2,,,2028079.0
1636977522.140625,-104.9,,,2029768.0
1636977522.15625,-91.75,,,2032051.0
1636977522.171875,-74.32,,,2033803.0
1636977522.1875,-54.68,,,2036420.0
1636977522.203125,-34.88,,,2038710.0
1636977522.21875,-16.36,,,2040829.0
1636977522.234375,0.16,,,2043053.0
1636977522.25,14.59,,,2044914.0
1636977522.265625,27.07,,,2042863.0
1636977522.28125,37.72,,,2038542.0
1636977522.296875,46.48,,,2033944.0
1636977522.3125,53.16,,,2030225.0
1636977522.328125,57.68,,,2027207.0
1636977522.34375,60.14,,,2025034.0
1636977522.359375,60.95,,,2024537.0
1636977522.375,60.75,,,2023517.0
1636977522.390625,60.15,,,2023215.0
1636977522.40625,59.62,,,2022700.0
1636977522.421875,59.35,,,2023082.0
1636977522.4375,59.3,,,2023946.0
1636977522.453125,59.34,,,2024864.0
1636977522.46875,59.31,,,2026104.0
1636977522.484375,59.09,,,2027728.0
1636977522.5,58.53,,,2029220.0
1636977522.515625,57.47,,,2029220.0
1636977522.53125,55.63,,,2030966.0
1636977522.546875,52.77,,,2033425.0
1636977522.5625,48.77,,,2035321.0
1636977522.578125,43.72,,,2038572.0
1636977522.59375,37.93,,,2042681.0
1636977522.609375,31.85,,,2047227.0
1636977522.625,25.88,,,2050915.0
1636977522.640625,20.23,,,2051221.0
1636977522.65625,14.83,,,2051193.0
1636977522.671875,9.39,,,2052975.0
1636977522.6875,3.59,,,2053843.0
1636977522.703125,-2.75,,,2053989.0
1636977522.71875,-9.55,,,2053690.0
1636977522.734375,-16.49,,,2053556.0
1636977522.75,-23.13,,,2052947.0
1636977522.765625,-29.12,,,2052619.0
1636977522.78125,-34.36,,,2053987.0
1636977522.796875,-39.16,,,2054811.0
1636977522.8125,-44.15,,,2056637.0
1636977522.828125,-50.1,,,2057523.0
1636977522.84375,-57.62,,,2058809.0
1636977522.859375,-66.82,,,2059384.0
1636977522.875,-77.08,,,2060928.0
1636977522.890625,-87.03,,,2061844.0
1636977522.90625,-94.76,,,2063835.0
1636977522.921875,-98.34,,,2065342.0
1636977522.9375,-96.39,,,2067103.0
1636977522.953125,-88.5,,,2068915.0
1636977522.96875,-75.41,,,2071020.0
1636977522.984375,-58.69,,,2073351.0
1636977523.0,-40.28,,,2074685.0
1636977523.015625,-21.84,,,2072393.0
1636977523.03125,-4.41,,,2068003.0
1636977523.046875,11.61,,,2063494.0
1636977523.0625,26.13,,,2059809.0
1636977523.078125,39.05,,,2056754.0
1636977523.09375,50.11,,,2054630.0
1636977523.109375,58.92,,,2053449.0
1636977523.125,65.22,,,2052772.0
1636977523.140625,69.14,,,2052312.0
1636977523.15625,71.19,,,2051967.0
1636977523.171875,72.08,,,2051856.0
1636977523.1875,72.41,,,2052306.0
1636977523.203125,72.46,,,2052686.0
1636977523.21875,72.21,,,2053578.0
1636977523.234375,71.48,,,2054632.0
1636977523.25,70.22,,,2056038.0
1636977523.265625,68.59,,,2057551.0
1636977523.28125,66.89,,,2058932.0
1636977523.296875,65.41,,,2060428.0
1636977523.3125,64.16,,,2062053.0
1636977523.328125,62.87,,,2063467.0
1636977523.34375,61.05,,,2064649.0
1636977523.359375,58.2,,,2066195.0
1636977523.375,54.0,,,2067054.0
1636977523.390625,48.41,,,2065416.0
1636977523.40625,41.69,,,2060263.0
1636977523.421875,34.37,,,2052249.0
1636977523.4375,27.01,,,2045833.0
1636977523.453125,19.99,,,2039709.0
1636977523.46875,13.48,,,2035382.0
1636977523.484375,7.29,,,2033416.0
1636977523.5,1.11,,,2036575.0
1636977523.515625,-5.33,,,2039576.0
1636977523.53125,-12.14,,,2040554.0
1636977523.546875,-19.19,,,2040624.0
1636977523.5625,-26.16,,,2039738.0
1636977523.578125,-32.71,,,2038507.0
1636977523.59375,-38.64,,,2038326.0
1636977523.609375,-43.96,,,2039029.0
1636977523.625,-48.93,,,2041384.0
1636977523.640625,-54.02,,,2043544.0
1636977523.65625,-59.8,,,2048067.0
1636977523.671875,-66.81,,,2052498.0
1636977523.6875,-75.3,,,2056336.0
1636977523.703125,-85.03,,,2060321.0
1636977523.71875,-95.08,,,2063700.0
1636977523.734375,-103.94,,,2067087.0
1636977523.75,-109.77,,,2070325.0
1636977523.765625,-110.93,,,2070106.0
1636977523.78125,-106.51,,,2067215.0
1636977523.796875,-96.63,,,2064244.0
1636977523.8125,-82.39,,,2061809.0
1636977523.828125,-65.52,,,2059265.0
1636977523.84375,-47.79,,,2057389.0
1636977523.859375,-30.56,,,2057522.0
1636977523.875,-14.54,,,2057618.0
1636977523.890625,0.18,,,2057670.0
1636977523.90625,13.77,,,2057732.0
1636977523.921875,26.3,,,2058522.0
1636977523.9375,37.52,,,2060357.0
1636977523.953125,46.95,,,2063468.0
1636977523.96875,54.13,,,2062230.0
1636977523.984375,58.86,,,2059516.0
1636977524.0,61.35,,,2065272.0
1636977524.015625,62.18,,,2066658.0
1636977524.03125,61.97,,,2068244.0
1636977524.046875,61.2,,,2070584.0
1636977524.0625,60.18,,,2072412.0
1636977524.078125,59.01,,,2074440.0
1636977524.09375,57.77,,,2076491.0
1636977524.109375,56.51,,,2079179.0
1636977524.125,55.31,,,2081058.0
1636977524.140625,54.16,,,2080259.0
1636977524.15625,52.93,,,2076294.0
1636977524.171875,51.42,,,2071612.0
1636977524.1875,49.46,,,2066205.0
1636977524.203125,46.92,,,2059862.0
1636977524.21875,43.74,,,2053597.0
1636977524.234375,39.9,,,2049126.0
1636977524.25,35.39,,,2046987.0
1636977524.265625,30.25,,,2047600.0
1636977524.28125,24.69,,,2051639.0
1636977524.296875,19.08,,,2055016.0
1636977524.3125,13.83,,,2056612.0
1636977524.328125,9.19,,,2055060.0
1636977524.34375,5.15,,,2053750.0
1636977524.359375,1.32,,,2052769.0
1636977524.375,-2.83,,,2053632.0
1636977524.390625,-7.73,,,2054311.0
1636977524.40625,-13.5,,,2055192.0
1636977524.421875,-19.87,,,2057177.0
1636977524.4375,-26.34,,,2059265.0
1636977524.453125,-32.32,,,2060597.0
1636977524.46875,-37.51,,,2063444.0
1636977524.484375,-41.93,,,2066563.0
1636977524.5,-45.99,,,2067057.0
1636977524.515625,-50.29,,,2062880.0
1636977524.53125,-55.5,,,2057947.0
1636977524.546875,-62.15,,,2052819.0
1636977524.5625,-70.52,,,2049150.0
1636977524.578125,-80.47,,,2045472.0
1636977524.59375,-91.35,,,2043503.0
1636977524.609375,-101.96,,,2042372.0
1636977524.625,-110.64,,,2041517.0
1636977524.640625,-115.58,,,2040121.0
1636977524.65625,-115.2,,,2039687.0
1636977524.671875,-108.7,,,2039949.0
1636977524.6875,-96.34,,,2040580.0
1636977524.703125,-79.37,,,2041464.0
1636977524.71875,-59.74,,,2042590.0
1636977524.734375,-39.49,,,2043879.0
1636977524.75,-20.23,,,2045054.0
1636977524.765625,-2.81,,,2046104.0
1636977524.78125,12.55,,,2047551.0
1636977524.796875,26.09,,,2049423.0
1636977524.8125,38.01,,,2050896.0
1636977524.828125,48.34,,,2052708.0
1636977524.84375,56.89,,,2054412.0
1636977524.859375,63.44,,,2052808.0
1636977524.875,67.97,,,2047145.0
1636977524.890625,70.74,,,2041254.0
1636977524.90625,72.22,,,2036810.0
1636977524.921875,72.93,,,2032249.0
1636977524.9375,73.17,,,2027669.0
1636977524.953125,73.01,,,2023492.0
1636977524.96875,72.34,,,2020230.0
1636977524.984375,71.08,,,2018710.0
1636977525.0,69.4,,,2018625.0
1636977525.015625,67.66,,,2018608.0
1636977525.03125,66.24,,,2018734.0
1636977525.046875,65.28,,,2019029.0
1636977525.0625,64.5,,,2018892.0
1636977525.078125,63.23,,,2017655.0
1636977525.09375,60.75,,,2016381.0
1636977525.109375,56.57,,,2017676.0
1636977525.125,50.72,,,2020593.0
1636977525.140625,43.79,,,2022833.0
1636977525.15625,36.61,,,2024291.0
1636977525.171875,30.03,,,2025353.0
1636977525.1875,24.53,,,2025809.0
1636977525.203125,20.1,,,2026160.0
1636977525.21875,16.32,,,2026419.0
1636977525.234375,12.59,,,2022204.0
1636977525.25,8.36,,,2016930.0
1636977525.265625,3.39,,,2011949.0
1636977525.28125,-2.24,,,2007617.0
1636977525.296875,-8.17,,,2003839.0
1636977525.3125,-14.0,,,2002098.0
1636977525.328125,-19.44,,,2000841.0
1636977525.34375,-24.51,,,1999732.0
1636977525.359375,-29.42,,,1998684.0
1636977525.375,-34.52,,,1998411.0
1636977525.390625,-40.17,,,1998207.0
1636977525.40625,-46.68,,,1998659.0
1636977525.421875,-54.18,,,1999387.0
1636977525.4375,-62.59,,,2000140.0
1636977525.453125,-71.38,,,2001473.0
1636977525.46875,-79.53,,,2002466.0
1636977525.484375,-85.54,,,2004049.0
1636977525.5,-87.72,,,2005653.0
1636977525.515625,-84.73,,,2006929.0
1636977525.53125,-76.07,,,2008942.0
1636977525.546875,-62.41,,,2010893.0
1636977525.5625,-45.36,,,2010926.0
1636977525.578125,-26.96,,,2006562.0
1636977525.59375,-9.04,,,2000477.0
1636977525.609375,7.34,,,1995019.0
1636977525.625,21.87,,,1990188.0
1636977525.640625,34.65,,,1985973.0
1636977525.65625,45.76,,,1984133.0
1636977525.671875,55.03,,,1982908.0
1636977525.6875,62.06,,,1981814.0
1636977525.703125,66.53,,,1981225.0
1636977525.71875,68.47,,,1980599.0
1636977525.734375,68.44,,,1981218.0
1636977525.75,67.26,,,1982032.0
1636977525.765625,65.78,,,1983099.0
1636977525.78125,64.58,,,1984085.0
1636977525.796875,63.81,,,1983288.0
1636977525.8125,63.3,,,1982606.0
1636977525.828125,62.74,,,1982926.0
1636977525.84375,61.9,,,1982593.0
1636977525.859375,60.61,,,1982312.0
1636977525.875,58.89,,,1983324.0
1636977525.890625,56.78,,,1983324.0
1636977525.90625,54.34,,,1988160.0
1636977525.921875,51.53,,,1994859.0
1636977525.9375,48.28,,,1996482.0
1636977525.953125,44.48,,,1991332.0
1636977525.96875,40.01,,,1984312.0
1636977525.984375,34.89,,,1977218.0
1636977526.0,29.28,,,1970254.0
1636977526.015625,23.4,,,1965663.0
1636977526.03125,17.58,,,1964584.0
1636977526.046875,12.06,,,1965100.0
1636977526.0625,6.92,,,1967170.0
1636977526.078125,2.12,,,1971063.0
1636977526.09375,-2.55,,,1974557.0
1636977526.109375,-7.35,,,1976955.0
1636977526.125,-12.56,,,1979795.0
1636977526.140625,-18.36,,,1982583.0
1636977526.15625,-24.86,,,1985561.0
1636977526.171875,-31.95,,,1988256.0
1636977526.1875,-39.35,,,1991325.0
1636977526.203125,-46.68,,,1994228.0
1636977526.21875,-53.53,,,1996671.0
1636977526.234375,-59.66,,,1999076.0
1636977526.25,-65.11,,,2001965.0
1636977526.265625,-70.26,,,2004430.0
1636977526.28125,-75.7,,,2006845.0
1636977526.296875,-82.09,,,2004831.0
1636977526.3125,-89.85,,,1999830.0
1636977526.328125,-98.94,,,1994702.0
1636977526.34375,-108.69,,,1990270.0
1636977526.359375,-117.85,,,1986228.0
1636977526.375,-124.78,,,1983671.0
1636977526.390625,-127.79,,,1982582.0
1636977526.40625,-125.67,,,1982506.0
1636977526.421875,-117.96,,,1981994.0
1636977526.4375,-105.14,,,1981928.0
1636977526.453125,-88.51,,,1982347.0
1636977526.46875,-69.83,,,1983728.0
1636977526.484375,-50.83,,,1985137.0
1636977526.5,-32.8,,,1986688.0
1636977526.515625,-16.39,,,1988708.0
1636977526.53125,-1.7,,,1990900.0
1636977526.546875,11.53,,,1993149.0
1636977526.5625,23.54,,,1995814.0
1636977526.578125,34.36,,,1997401.0
1636977526.59375,43.72,,,1997552.0
1636977526.609375,51.27,,,1993473.0
1636977526.625,56.75,,,1986582.0
1636977526.640625,60.21,,,1979932.0
1636977526.65625,62.04,,,1974351.0
1636977526.671875,62.79,,,1969836.0
1636977526.6875,63.02,,,1967495.0
1636977526.703125,63.08,,,1968216.0
1636977526.71875,63.08,,,1970067.0
1636977526.734375,62.96,,,1971718.0
1636977526.75,62.62,,,1972248.0
1636977526.765625,62.0,,,1973389.0
1636977526.78125,61.09,,,1973885.0
1636977526.796875,59.91,,,1974734.0
1636977526.8125,58.43,,,1976720.0
1636977526.828125,56.6,,,1978672.0
1636977526.84375,54.3,,,1980970.0
1636977526.859375,51.41,,,1983322.0
1636977526.875,47.83,,,1985456.0
1636977526.890625,43.51,,,1988471.0
1636977526.90625,38.51,,,1989218.0
1636977526.921875,33.0,,,1985874.0
1636977526.9375,27.27,,,1981611.0
1636977526.953125,21.63,,,1977859.0
1636977526.96875,16.31,,,1974488.0
1636977526.984375,11.43,,,1972070.0
1636977527.0,6.88,,,1971398.0
1636977527.015625,2.42,,,1971689.0
1636977527.03125,-2.22,,,1972168.0
1636977527.046875,-7.28,,,1972282.0
1636977527.0625,-12.77,,,1973504.0
1636977527.078125,-18.53,,,1974647.0
1636977527.09375,-24.31,,,1976363.0
1636977527.109375,-29.86,,,1978639.0
1636977527.125,-35.06,,,1980731.0
1636977527.140625,-40.01,,,1982863.0
1636977527.15625,-44.99,,,1985594.0
1636977527.171875,-50.4,,,1987942.0
1636977527.1875,-56.66,,,1987942.0
1636977527.203125,-64.12,,,1990314.0
1636977527.21875,-72.96,,,1993003.0
1636977527.234375,-82.92,,,1995535.0
1636977527.25,-93.2,,,1998947.0
1636977527.265625,-102.39,,,2001540.0
1636977527.28125,-108.69,,,2001253.0
1636977527.296875,-110.34,,,1997305.0
1636977527.3125,-106.19,,,1993282.0
1636977527.328125,-96.1,,,1989628.0
1636977527.34375,-81.08,,,1986475.0
1636977527.359375,-62.94,,,1984237.0
1636977527.375,-43.76,,,1983867.0
1636977527.390625,-25.26,,,1983040.0
1636977527.40625,-8.47,,,1981135.0
1636977527.421875,6.33,,,1979089.0
1636977527.4375,19.32,,,1978085.0
1636977527.453125,30.81,,,1978042.0
1636977527.46875,40.98,,,1979142.0
1636977527.484375,49.78,,,1981992.0
1636977527.5,56.95,,,1986553.0
1636977527.515625,62.24,,,1991138.0
1636977527.53125,65.56,,,1994553.0
1636977527.546875,67.15,,,1997935.0
1636977527.5625,67.46,,,2000237.0
1636977527.578125,67.05,,,2002479.0
1636977527.59375,66.39,,,2004636.0
1636977527.609375,65.68,,,2007924.0
1636977527.625,64.91,,,2010790.0
1636977527.640625,63.99,,,2011046.0
1636977527.65625,62.95,,,2007438.0
1636977527.671875,61.92,,,2003873.0
1636977527.6875,61.07,,,2000867.0
1636977527.703125,60.43,,,1998592.0
1636977527.71875,59.71,,,1996947.0
1636977527.734375,58.4,,,1997097.0
1636977527.75,55.92,,,1997212.0
1636977527.765625,51.91,,,1997509.0
1636977527.78125,46.45,,,1998158.0
1636977527.796875,40.05,,,1996784.0
1636977527.8125,33.44,,,1999528.0
1636977527.828125,27.28,,,2001257.0
1636977527.84375,21.96,,,2002635.0
1636977527.859375,17.46,,,2004581.0
1636977527.875,13.45,,,2006645.0
1636977527.890625,9.43,,,2008642.0
1636977527.90625,5.0,,,2010750.0
1636977527.921875,-0.02,,,2012614.0
1636977527.9375,-5.56,,,2015122.0
1636977527.953125,-11.38,,,2017463.0
1636977527.96875,-17.19,,,2020012.0
1636977527.984375,-22.78,,,2022487.0
1636977528.0,-28.09,,,2025013.0
1636977528.015625,-33.21,,,2025300.0
1636977528.03125,-38.37,,,2021922.0
1636977528.046875,-43.94,,,2017413.0
1636977528.0625,-50.33,,,2011062.0
1636977528.078125,-57.94,,,2008627.0
1636977528.09375,-66.87,,,2013719.0
1636977528.109375,-76.75,,,2007591.0
1636977528.125,-86.5,,,2007428.0
1636977528.140625,-94.52,,,2006974.0
1636977528.15625,-98.97,,,2005859.0
1636977528.171875,-98.38,,,2003023.0
1636977528.1875,-92.11,,,2001795.0
1636977528.203125,-80.61,,,2001263.0
1636977528.21875,-65.32,,,2001648.0
1636977528.234375,-48.2,,,2001425.0
1636977528.25,-31.12,,,2001359.0
1636977528.265625,-15.47,,,2002488.0
1636977528.28125,-1.87,,,2007454.0
1636977528.296875,9.67,,,2013392.0
1636977528.3125,19.48,,,2010928.0
1636977528.328125,27.83,,,2021822.0
1636977528.34375,34.82,,,2023006.0
1636977528.359375,40.32,,,2021590.0
1636977528.375,44.19,,,2017300.0
1636977528.390625,46.43,,,2013187.0
1636977528.40625,47.34,,,2010918.0
1636977528.421875,47.43,,,2008917.0
1636977528.4375,47.29,,,2008309.0
1636977528.453125,47.35,,,2008514.0
1636977528.46875,47.77,,,2020390.0
1636977528.484375,48.45,,,2024251.0
1636977528.5,49.13,,,2024772.0
1636977528.515625,49.55,,,2008618.0
1636977528.53125,49.55,,,2008299.0
1636977528.546875,49.05,,,2009587.0
1636977528.5625,48.06,,,2008786.0
1636977528.578125,46.61,,,2017528.0
1636977528.59375,44.67,,,2012581.0
1636977528.609375,42.15,,,2014332.0
1636977528.625,38.92,,,2016076.0
1636977528.640625,34.88,,,2019877.0
1636977528.65625,30.07,,,2017868.0
1636977528.671875,24.72,,,2023776.0
1636977528.6875,19.21,,,2021749.0
1636977528.703125,14.01,,,2030262.0
1636977528.71875,9.41,,,2027996.0
1636977528.734375,5.49,,,2032383.0
1636977528.75,2.05,,,2031185.0
1636977528.765625,-1.32,,,2026727.0
1636977528.78125,-4.99,,,2025890.0
1636977528.796875,-9.16,,,2017959.0
1636977528.8125,-13.85,,,2021713.0
1636977528.828125,-18.91,,,2014292.0
1636977528.84375,-24.13,,,2012025.0
1636977528.859375,-29.34,,,2010941.0
1636977528.875,-34.38,,,2010220.0
1636977528.890625,-39.22,,,2009547.0
1636977528.90625,-43.88,,,2008982.0
1636977528.921875,-48.55,,,2008742.0
1636977528.9375,-53.6,,,2009480.0
1636977528.953125,-59.49,,,2009287.0
1636977528.96875,-66.67,,,2009472.0
1636977528.984375,-75.24,,,2009149.0
1636977529.0,-84.79,,,2008999.0
1636977529.015625,-94.21,,,2009349.0
1636977529.03125,-101.86,,,2008899.0
1636977529.046875,-105.91,,,2009077.0
1636977529.0625,-104.86,,,2010181.0
1636977529.078125,-98.01,,,2014206.0
1636977529.09375,-85.74,,,2018738.0
1636977529.109375,-69.36,,,2022145.0
1636977529.125,-50.79,,,2023411.0
1636977529.140625,-31.96,,,2020078.0
1636977529.15625,-14.28,,,2013163.0
1636977529.171875,1.48,,,2006039.0
1636977529.1875,15.27,,,1999965.0
1636977529.203125,27.35,,,1994826.0
1636977529.21875,38.0,,,1990544.0
1636977529.234375,47.29,,,1988511.0
1636977529.25,54.99,,,1987322.0
1636977529.265625,60.83,,,1986185.0
1636977529.28125,64.6,,,1986185.0
1636977529.296875,66.44,,,1985987.0
1636977529.3125,66.76,,,1985602.0
1636977529.328125,66.14,,,1986024.0
1636977529.34375,65.14,,,1986713.0
1636977529.359375,64.1,,,1987586.0
1636977529.375,63.2,,,1988726.0
1636977529.390625,62.44,,,1989867.0
1636977529.40625,61.84,,,1991820.0
1636977529.421875,61.39,,,1993543.0
1636977529.4375,61.13,,,1994986.0
1636977529.453125,60.95,,,1996740.0
1636977529.46875,60.66,,,1998295.0
1636977529.484375,59.9,,,2000472.0
1636977529.5,58.29,,,2002545.0
1636977529.515625,55.57,,,2003258.0
1636977529.53125,51.69,,,1999337.0
1636977529.546875,46.84,,,1993919.0
1636977529.5625,41.37,,,1988776.0
1636977529.578125,35.67,,,1985170.0
1636977529.59375,30.02,,,1981192.0
1636977529.609375,24.55,,,1979383.0
1636977529.625,19.27,,,1978404.0
1636977529.640625,14.1,,,1977283.0
1636977529.65625,8.94,,,1976245.0
1636977529.671875,3.65,,,1975436.0
1636977529.6875,-1.84,,,1975609.0
1636977529.703125,-7.59,,,1976289.0
1636977529.71875,-13.59,,,1977167.0
1636977529.734375,-19.67,,,1978454.0
1636977529.75,-25.64,,,1980014.0
1636977529.765625,-31.29,,,1981677.0
1636977529.78125,-36.61,,,1982895.0
1636977529.796875,-41.71,,,1984410.0
1636977529.8125,-46.86,,,1987999.0
1636977529.828125,-52.39,,,1992650.0
1636977529.84375,-58.57,,,1998530.0
1636977529.859375,-65.62,,,2004332.0
1636977529.875,-73.55,,,2007623.0
1636977529.890625,-82.11,,,2007238.0
1636977529.90625,-90.57,,,2007653.0
1636977529.921875,-97.69,,,2007806.0
1636977529.9375,-101.82,,,2007850.0
1636977529.953125,-101.35,,,2007531.0
1636977529.96875,-95.29,,,2007172.0
1636977529.984375,-83.72,,,2007516.0
1636977530.0,-67.84,,,2007898.0
1636977530.015625,-49.62,,,2008188.0
1636977530.03125,-31.06,,,2009338.0
1636977530.046875,-13.68,,,2010679.0
1636977530.0625,1.8,,,2011883.0
1636977530.078125,15.34,,,2012683.0
1636977530.09375,27.14,,,2013316.0
1636977530.109375,37.34,,,2014157.0
1636977530.125,45.86,,,2015783.0
1636977530.140625,52.5,,,2016895.0
1636977530.15625,57.13,,,2018384.0
1636977530.171875,59.83,,,2019498.0
1636977530.1875,60.94,,,2021474.0
1636977530.203125,60.87,,,2023281.0
1636977530.21875,60.08,,,2025256.0
1636977530.234375,58.88,,,2026877.0
1636977530.25,57.51,,,2025699.0
1636977530.265625,56.1,,,2021169.0
1636977530.28125,54.67,,,2015914.0
1636977530.296875,53.2,,,2011762.0
1636977530.3125,51.64,,,2007930.0
1636977530.328125,49.99,,,2005127.0
1636977530.34375,48.26,,,2003611.0
1636977530.359375,46.49,,,2003186.0
1636977530.375,44.61,,,2002257.0
1636977530.390625,42.39,,,2001960.0
1636977530.40625,39.48,,,2001890.0
1636977530.421875,35.57,,,2002297.0
1636977530.4375,30.57,,,2003168.0
1636977530.453125,24.71,,,2004122.0
1636977530.46875,18.52,,,2005678.0
1636977530.484375,12.59,,,2006934.0
1636977530.5,7.3,,,2008312.0
1636977530.515625,2.71,,,2009974.0
1636977530.53125,-1.54,,,2011652.0
1636977530.546875,-5.92,,,2013264.0
1636977530.5625,-10.93,,,2015211.0
1636977530.578125,-16.74,,,2017255.0
1636977530.59375,-23.32,,,2019706.0
1636977530.609375,-30.35,,,2021905.0
1636977530.625,-37.42,,,2021618.0
1636977530.640625,-44.18,,,2016809.0
1636977530.65625,-50.33,,,2010909.0
1636977530.671875,-55.82,,,2006348.0
1636977530.6875,-60.8,,,2001915.0
1636977530.703125,-65.63,,,1997013.0
1636977530.71875,-70.87,,,1994523.0
1636977530.734375,-77.09,,,1993735.0
1636977530.75,-84.64,,,1992881.0
1636977530.765625,-93.37,,,1991938.0
1636977530.78125,-102.41,,,1993097.0
1636977530.796875,-110.25,,,1996812.0
1636977530.8125,-114.98,,,2001285.0
1636977530.828125,-114.87,,,2005634.0
1636977530.84375,-108.97,,,2006798.0
1636977530.859375,-97.41,,,2007552.0
1636977530.875,-81.45,,,2007069.0
1636977530.890625,-63.03,,,2006847.0
1636977530.90625,-44.16,,,2007908.0
1636977530.921875,-26.34,,,2010129.0
1636977530.9375,-10.31,,,2012509.0
1636977530.953125,3.85,,,2014684.0
1636977530.96875,16.38,,,2018197.0
1636977530.984375,27.4,,,2020379.0
1636977531.0,36.84,,,2017853.0
1636977531.015625,44.4,,,2013404.0
1636977531.03125,49.91,,,2009423.0
1636977531.046875,53.46,,,2005727.0
1636977531.0625,55.51,,,2002401.0
1636977531.078125,56.77,,,2000403.0
1636977531.09375,57.86,,,1999524.0
1636977531.109375,59.13,,,1999277.0
1636977531.125,60.61,,,1998817.0
1636977531.140625,62.05,,,1998508.0
1636977531.15625,63.18,,,1998741.0
1636977531.171875,63.85,,,1999679.0
1636977531.1875,64.06,,,2000508.0
1636977531.203125,63.95,,,2001711.0
1636977531.21875,63.57,,,2002217.0
1636977531.234375,62.89,,,2004220.0
1636977531.25,61.75,,,2005759.0
1636977531.265625,59.91,,,2007364.0
1636977531.28125,57.16,,,2009340.0
1636977531.296875,53.4,,,2011378.0
1636977531.3125,48.64,,,2013610.0
1636977531.328125,43.08,,,2015405.0
1636977531.34375,36.97,,,2017822.0
1636977531.359375,30.69,,,2019847.0
1636977531.375,24.57,,,2020739.0
1636977531.390625,18.86,,,2017463.0
1636977531.40625,13.65,,,2012913.0
1636977531.421875,8.88,,,2008304.0
1636977531.4375,4.31,,,2003967.0
1636977531.453125,-0.34,,,1999933.0
1636977531.46875,-5.27,,,1996936.0
1636977531.484375,-10.55,,,1993633.0
1636977531.5,-16.07,,,1990634.0
1636977531.515625,-21.62,,,1987153.0
1636977531.53125,-27.05,,,1986401.0
1636977531.546875,-32.3,,,1986568.0
1636977531.5625,-37.5,,,1988221.0
1636977531.578125,-42.95,,,1991997.0
1636977531.59375,-49.01,,,1995970.0
1636977531.609375,-56.04,,,1998056.0
1636977531.625,-64.27,,,1999679.0
1636977531.640625,-73.7,,,1999968.0
1636977531.65625,-83.84,,,2000503.0
1636977531.671875,-93.72,,,2001091.0
1636977531.6875,-101.76,,,2002144.0
1636977531.703125,-106.2,,,2004077.0
1636977531.71875,-105.5,,,2005446.0
1636977531.734375,-98.95,,,2007374.0
1636977531.75,-86.9,,,2008399.0
1636977531.765625,-70.73,,,2005713.0
1636977531.78125,-52.31,,,2000556.0
1636977531.796875,-33.52,,,1995557.0
1636977531.8125,-15.67,,,1991533.0
1636977531.828125,0.54,,,1987682.0
1636977531.84375,14.96,,,1985335.0
1636977531.859375,27.65,,,1984275.0
1636977531.875,38.67,,,1983538.0
1636977531.890625,47.98,,,1982365.0
1636977531.90625,55.45,,,1981811.0
1636977531.921875,61.03,,,1981860.0
1636977531.9375,64.75,,,1981939.0
1636977531.953125,66.83,,,1982515.0
1636977531.96875,67.65,,,1983408.0
1636977531.984375,67.64,,,1984688.0
1636977532.0,67.22,,,1985779.0
1636977532.015625,66.71,,,1987070.0
1636977532.03125,66.25,,,1988608.0
1636977532.046875,65.81,,,1990271.0
1636977532.0625,65.29,,,1991706.0
1636977532.078125,64.62,,,1993146.0
1636977532.09375,63.78,,,1995310.0
1636977532.109375,62.84,,,1996851.0
