timestamp,bvp,eda,temp,PPG GREEN
1588332603.703125,36.17,0.119135,31.97,2063489.0
1588332603.71875,37.99,0.121697,31.97,2065377.0
1588332603.734375,39.07,0.129383,31.97,2066710.0
1588332603.75,39.21,0.124259,31.97,2065991.0
1588332603.765625,38.1,0.120416,31.97,2064596.0
1588332603.78125,35.69,0.119135,31.97,2063233.0
1588332603.796875,32.21,0.119135,32.0,2062354.0
1588332603.8125,28.2,0.117854,32.0,2062493.0
1588332603.828125,24.32,0.128102,32.0,2062944.0
1588332603.84375,21.16,0.131945,32.0,2063875.0
1588332603.859375,18.97,0.131945,31.99,2064798.0
1588332603.875,17.69,0.131945,31.99,2065935.0
1588332603.890625,16.93,0.129383,31.99,2066907.0
1588332603.90625,16.27,0.126821,31.99,2068071.0
1588332603.921875,15.41,0.128102,31.97,2069531.0
1588332603.9375,14.24,0.12554,31.97,2071051.0
1588332603.953125,12.83,0.128102,31.97,2072614.0
1588332603.96875,11.21,0.129383,31.97,2074240.0
1588332603.984375,9.34,0.129383,31.99,2075940.0
1588332604.0,7.08,0.126821,31.99,2077718.0
1588332604.015625,4.22,0.126821,31.99,2079250.0
1588332604.03125,0.64,0.124259,31.99,2081300.0
1588332604.046875,-3.69,0.124259,31.97,2083498.0
1588332604.0625,-8.7,0.124259,31.97,2086793.0
1588332604.078125,-14.27,0.126821,31.97,2089842.0
1588332604.09375,-20.22,0.124259,31.97,2091848.0
1588332604.109375,-26.28,0.124259,31.95,2094195.0
1588332604.125,-32.1,0.124259,31.95,2096959.0
1588332604.140625,-37.29,0.122978,31.95,2099526.0
1588332604.15625,-41.56,0.120416,31.95,2102376.0
1588332604.171875,-44.83,0.120416,31.97,2105088.0
1588332604.1875,-47.34,0.120416,31.97,2107467.0
1588332604.203125,-49.59,0.124259,31.97,2109828.0
1588332604.21875,-52.28,0.126821,31.97,2111871.0
1588332604.234375,-56.07,0.126821,31.95,2114056.0
1588332604.25,-61.31,0.124259,31.95,2116228.0
1588332604.265625,-67.79,0.122978,31.95,2118087.0
1588332604.28125,-74.61,0.120416,31.95,2120045.0
1588332604.296875,-80.23,0.121697,31.99,2121806.0
1588332604.3125,-82.86,0.120416,31.99,2123326.0
1588332604.328125,-81.05,0.121697,31.99,2124814.0
1588332604.34375,-74.25,0.124259,31.99,2126145.0
1588332604.359375,-63.08,0.124259,31.97,2127145.0
1588332604.375,-49.26,0.124259,31.97,2128841.0
1588332604.390625,-34.96,0.124259,31.97,2130190.0
1588332604.40625,-22.16,0.121697,31.97,2130464.0
1588332604.421875,-12.08,0.122978,31.99,2130621.0
1588332604.4375,-4.96,0.122978,31.99,2131432.0
1588332604.453125,-0.32,0.121697,31.99,2132370.0
1588332604.46875,2.58,0.124259,31.99,2133457.0
1588332604.484375,4.33,0.12554,31.99,2134419.0
1588332604.5,5.13,0.124259,31.99,2135308.0
1588332604.515625,4.83,0.124259,31.99,2136689.0
1588332604.53125,3.18,0.124259,31.99,2137803.0
1588332604.546875,0.16,0.121697,31.97,2138871.0
1588332604.5625,-3.87,0.121697,31.97,2139866.0
1588332604.578125,-8.15,0.119135,31.97,2141207.0
1588332604.59375,-11.74,0.120416,31.97,2142994.0
1588332604.609375,-13.83,0.124259,31.99,2144589.0
1588332604.625,-14.1,0.124259,31.99,2145973.0
1588332604.640625,-12.77,0.122978,31.99,2146862.0
1588332604.65625,-10.52,0.122978,31.99,2147535.0
1588332604.671875,-8.1,0.122978,31.97,2148357.0
1588332604.6875,-6.08,0.119135,31.97,2148619.0
1588332604.703125,-4.52,0.119135,31.97,2147081.0
1588332604.71875,-3.02,0.119135,31.97,2146148.0
1588332604.734375,-0.95,0.133226,31.97,2145816.0
1588332604.75,2.39,0.122978,31.97,2145570.0
1588332604.765625,7.56,0.12554,31.97,2145681.0
1588332604.78125,14.97,0.12554,31.97,2145900.0
1588332604.796875,24.94,0.124259,31.97,2146186.0
1588332604.8125,37.75,0.124259,31.97,2146239.0
1588332604.828125,53.83,0.120416,31.97,2146227.0
1588332604.84375,73.72,0.120416,31.97,2146690.0
1588332604.859375,97.89,0.121697,31.97,2147328.0
1588332604.875,126.25,0.119135,31.97,2148053.0
1588332604.890625,157.68,0.120416,31.97,2148869.0
1588332604.90625,189.91,0.124259,31.97,2149623.0
1588332604.921875,219.99,0.124259,31.97,2150054.0
1588332604.9375,245.26,0.122978,31.97,2150689.0
1588332604.953125,264.32,0.124259,31.97,2151314.0
1588332604.96875,277.52,0.122978,31.97,2152277.0
1588332604.984375,286.38,0.119135,31.99,2152189.0
1588332605.0,292.22,0.119135,31.99,2150802.0
1588332605.015625,294.98,0.120416,31.99,2149147.0
1588332605.03125,292.5,0.119135,31.99,2147723.0
1588332605.046875,281.3,0.121697,31.97,2147069.0
1588332605.0625,258.03,0.122978,31.97,2147419.0
1588332605.078125,220.89,0.124259,31.97,2147640.0
1588332605.09375,170.02,0.122978,31.97,2147982.0
1588332605.109375,107.12,0.124259,31.95,2148046.0
1588332605.125,34.79,0.120416,31.95,2148296.0
1588332605.140625,-43.28,0.120416,31.95,2150653.0
1588332605.15625,-121.64,0.120416,31.95,2153022.0
1588332605.171875,-192.53,0.119135,31.95,2151987.0
1588332605.1875,-246.78,0.119135,31.95,2149235.0
1588332605.203125,-276.44,0.122978,31.95,2153963.0
1588332605.21875,-277.83,0.122978,31.95,2154693.0
1588332605.234375,-253.68,0.12554,31.95,2155649.0
1588332605.25,-212.52,0.124259,31.95,2156040.0
1588332605.265625,-165.66,0.124259,31.95,2156613.0
1588332605.28125,-122.91,0.120416,31.95,2157255.0
1588332605.296875,-89.73,0.120416,31.93,2157837.0
1588332605.3125,-66.59,0.119135,31.93,2157093.0
1588332605.328125,-50.96,0.121697,31.93,2155281.0
1588332605.34375,-39.98,0.124259,31.93,2153924.0
1588332605.359375,-32.24,0.122978,31.95,2153336.0
1588332605.375,-27.94,0.124259,31.95,2153430.0
1588332605.390625,-27.52,0.121697,31.95,2154144.0
1588332605.40625,-30.39,0.122978,31.95,2155689.0
1588332605.421875,-34.49,0.124259,31.95,2156940.0
1588332605.4375,-37.2,0.120416,31.95,2157779.0
1588332605.453125,-36.54,0.121697,31.95,2158834.0
1588332605.46875,-32.13,0.120416,31.95,2160062.0
1588332605.484375,-25.23,0.120416,31.95,2160867.0
1588332605.5,-17.95,0.122978,31.95,2162410.0
1588332605.515625,-12.18,0.124259,31.95,2163985.0
1588332605.53125,-8.68,0.122978,31.95,2165965.0
1588332605.546875,-7.04,0.122978,31.91,2168574.0
1588332605.5625,-6.06,0.122978,31.91,2174868.0
1588332605.578125,-4.56,0.120416,31.91,2182063.0
1588332605.59375,-2.07,0.120416,31.91,2187602.0
1588332605.609375,1.03,0.120416,31.93,2190309.0
1588332605.625,3.73,0.117854,31.93,2191485.0
1588332605.640625,5.04,0.122978,31.93,2192648.0
1588332605.65625,4.49,0.122978,31.93,2190005.0
1588332605.671875,2.42,0.122978,31.91,2185234.0
1588332605.6875,-0.25,0.122978,31.91,2180700.0
1588332605.703125,-2.38,0.122978,31.91,2177367.0
1588332605.71875,-3.29,0.120416,31.91,2175388.0
1588332605.734375,-2.93,0.121697,31.93,2174373.0
1588332605.75,-1.92,0.120416,31.93,2173481.0
1588332605.765625,-1.18,0.121697,31.93,2171692.0
1588332605.78125,-1.4,0.122978,31.93,2172835.0
1588332605.796875,-2.67,0.124259,31.91,2170931.0
1588332605.8125,-4.41,0.122978,31.91,2170751.0
1588332605.828125,-5.67,0.122978,31.91,2171435.0
1588332605.84375,-5.63,0.124259,31.91,2171858.0
1588332605.859375,-4.0,0.120416,31.91,2171160.0
1588332605.875,-1.22,0.120416,31.91,2172470.0
1588332605.890625,1.71,0.120416,31.91,2173532.0
1588332605.90625,3.62,0.120416,31.91,2172253.0
1588332605.921875,3.61,0.122978,31.93,2172800.0
1588332605.9375,1.43,0.122978,31.93,2174117.0
1588332605.953125,-2.37,0.124259,31.93,2174655.0
1588332605.96875,-6.33,0.122978,31.93,2175317.0
1588332605.984375,-8.45,0.121697,31.93,2174554.0
1588332606.0,-6.67,0.120416,31.93,2172822.0
1588332606.015625,0.41,0.121697,31.93,2170817.0
1588332606.03125,12.87,0.120416,31.93,2169422.0
1588332606.046875,29.24,0.119135,31.91,2168151.0
1588332606.0625,46.86,0.122978,31.91,2167895.0
1588332606.078125,62.83,0.124259,31.91,2167958.0
1588332606.09375,74.98,0.124259,31.91,2168009.0
1588332606.109375,82.6,0.122978,31.91,2167989.0
1588332606.125,86.46,0.121697,31.91,2167778.0
1588332606.140625,88.14,0.120416,31.91,2168249.0
1588332606.15625,89.25,0.119135,31.91,2168874.0
1588332606.171875,90.72,0.120416,31.91,2169276.0
1588332606.1875,92.75,0.119135,31.91,2169966.0
1588332606.203125,95.02,0.120416,31.91,2171019.0
1588332606.21875,97.29,0.124259,31.91,2171802.0
1588332606.234375,99.61,0.122978,31.91,2172770.0
1588332606.25,102.38,0.122978,31.91,2173554.0
1588332606.265625,106.15,0.122978,31.91,2174697.0
1588332606.28125,111.23,0.120416,31.91,2175832.0
1588332606.296875,117.48,0.119135,31.91,2177088.0
1588332606.3125,124.11,0.119135,31.91,2177193.0
1588332606.328125,129.8,0.120416,31.91,2174838.0
1588332606.34375,132.88,0.124259,31.91,2172543.0
1588332606.359375,131.71,0.12554,31.91,2170584.0
1588332606.375,124.94,0.122978,31.91,2169359.0
1588332606.390625,111.86,0.122978,31.91,2168910.0
1588332606.40625,92.54,0.122978,31.91,2169703.0
1588332606.421875,67.91,0.120416,31.93,2170253.0
1588332606.4375,39.82,0.120416,31.93,2170253.0
1588332606.453125,10.79,0.120416,31.93,2170484.0
1588332606.46875,-16.28,0.120416,31.93,2170373.0
1588332606.484375,-38.75,0.122978,31.91,2170619.0
1588332606.5,-54.88,0.124259,31.91,2170867.0
1588332606.515625,-64.32,0.124259,31.91,2171393.0
1588332606.53125,-68.14,0.122978,31.91,2171934.0
1588332606.546875,-68.52,0.122978,31.91,2172636.0
1588332606.5625,-67.95,0.120416,31.91,2173312.0
1588332606.578125,-68.55,0.120416,31.91,2174049.0
1588332606.59375,-71.64,0.120416,31.91,2174700.0
1588332606.609375,-77.62,0.120416,31.91,2175530.0
1588332606.625,-86.26,0.121697,31.91,2175305.0
1588332606.640625,-96.92,0.117854,31.91,2173097.0
1588332606.65625,-108.75,0.124259,31.91,2170329.0
1588332606.671875,-120.83,0.124259,31.91,2168283.0
1588332606.6875,-132.27,0.122978,31.91,2166857.0
1588332606.703125,-142.39,0.121697,31.91,2165933.0
1588332606.71875,-150.96,0.121697,31.91,2165579.0
1588332606.734375,-158.3,0.120416,31.89,2165142.0
1588332606.75,-165.03,0.120416,31.89,2164525.0
1588332606.765625,-171.56,0.122978,31.89,2164146.0
1588332606.78125,-177.31,0.12554,31.89,2163953.0
1588332606.796875,-180.26,0.124259,31.89,2163756.0
1588332606.8125,-177.19,0.122978,31.89,2163811.0
1588332606.828125,-164.73,0.122978,31.89,2164432.0
1588332606.84375,-141.01,0.122978,31.89,2166294.0
1588332606.859375,-106.91,0.120416,31.91,2169378.0
1588332606.875,-66.31,0.120416,31.91,2171592.0
1588332606.890625,-24.98,0.120416,31.91,2172980.0
1588332606.90625,11.38,0.122978,31.91,2174117.0
1588332606.921875,39.03,0.12554,31.91,2174792.0
1588332606.9375,57.14,0.124259,31.91,2172912.0
1588332606.953125,67.21,0.122978,31.91,2170416.0
1588332606.96875,71.65,0.124259,31.91,2167941.0
1588332606.984375,72.23,0.12554,31.91,2165076.0
1588332607.0,69.47,0.120416,31.91,2162274.0
1588332607.015625,62.97,0.122978,31.91,2160520.0
1588332607.03125,52.51,0.121697,31.91,2159860.0
1588332607.046875,38.89,0.120416,31.91,2158695.0
1588332607.0625,24.07,0.124259,31.91,2157520.0
1588332607.078125,10.55,0.124259,31.91,2156519.0
1588332607.09375,0.36,0.122978,31.91,2156175.0
1588332607.109375,-5.72,0.12554,31.91,2156206.0
1588332607.125,-8.28,0.124259,31.91,2156525.0
1588332607.140625,-8.8,0.124259,31.91,2156863.0
1588332607.15625,-9.03,0.124259,31.91,2157166.0
1588332607.171875,-10.2,0.122978,31.91,2157745.0
1588332607.1875,-12.76,0.122978,31.91,2158277.0
1588332607.203125,-16.35,0.124259,31.91,2158929.0
1588332607.21875,-20.16,0.12554,31.91,2159727.0
1588332607.234375,-23.42,0.12554,31.89,2160224.0
1588332607.25,-25.8,0.124259,31.89,2158350.0
1588332607.265625,-27.52,0.124259,31.89,2153992.0
1588332607.28125,-29.37,0.121697,31.89,2149496.0
1588332607.296875,-32.29,0.122978,31.87,2145362.0
1588332607.3125,-36.96,0.121697,31.87,2141552.0
1588332607.328125,-43.47,0.122978,31.87,2138641.0
1588332607.34375,-51.18,0.126821,31.87,2136845.0
1588332607.359375,-58.95,0.126821,31.89,2135489.0
1588332607.375,-65.53,0.12554,31.89,2133572.0
1588332607.390625,-70.0,0.12554,31.89,2132331.0
1588332607.40625,-72.08,0.124259,31.89,2131366.0
1588332607.421875,-72.22,0.126821,31.89,2130433.0
1588332607.4375,-71.41,0.122978,31.89,2130257.0
1588332607.453125,-70.81,0.122978,31.89,2130150.0
1588332607.46875,-71.5,0.121697,31.89,2130062.0
1588332607.484375,-74.33,0.122978,31.89,2130021.0
1588332607.5,-79.8,0.122978,31.89,2130297.0
1588332607.515625,-87.98,0.124259,31.89,2130991.0
1588332607.53125,-98.15,0.12554,31.89,2131431.0
1588332607.546875,-108.41,0.12554,31.89,2131927.0
1588332607.5625,-115.68,0.126821,31.89,2131589.0
1588332607.578125,-116.21,0.122978,31.89,2127261.0
1588332607.59375,-106.89,0.121697,31.89,2122033.0
1588332607.609375,-86.6,0.122978,31.91,2117532.0
1588332607.625,-57.19,0.122978,31.91,2113342.0
1588332607.640625,-23.13,0.126821,31.91,2110118.0
1588332607.65625,9.81,0.124259,31.91,2107890.0
1588332607.671875,36.63,0.124259,31.89,2106680.0
1588332607.6875,54.66,0.12554,31.89,2105478.0
1588332607.703125,64.11,0.124259,31.89,2104316.0
1588332607.71875,67.26,0.124259,31.89,2103428.0
1588332607.734375,67.01,0.122978,31.91,2103206.0
1588332607.75,65.54,0.121697,31.91,2103795.0
1588332607.765625,63.66,0.121697,31.91,2104476.0
1588332607.78125,61.17,0.124259,31.91,2105378.0
1588332607.796875,57.58,0.12554,31.89,2106771.0
1588332607.8125,52.87,0.12554,31.89,2107658.0
1588332607.828125,47.65,0.13835,31.89,2108447.0
1588332607.84375,42.94,0.12554,31.89,2109397.0
1588332607.859375,39.7,0.124259,31.89,2110200.0
1588332607.875,38.35,0.122978,31.89,2111176.0
1588332607.890625,38.68,0.121697,31.89,2112087.0
1588332607.90625,39.95,0.122978,31.89,2109763.0
1588332607.921875,41.29,0.126821,31.89,2104698.0
1588332607.9375,41.92,0.12554,31.89,2100136.0
1588332607.953125,41.37,0.12554,31.89,2096225.0
1588332607.96875,39.47,0.12554,31.89,2093049.0
1588332607.984375,36.28,0.124259,31.91,2090931.0
1588332608.0,31.94,0.122978,31.91,2089595.0
1588332608.015625,26.64,0.122978,31.91,2088394.0
1588332608.03125,20.57,0.122978,31.91,2087003.0
1588332608.046875,13.94,0.121697,31.87,2085858.0
1588332608.0625,6.9,0.12554,31.87,2085135.0
1588332608.078125,-0.46,0.126821,31.87,2084673.0
1588332608.09375,-8.07,0.12554,31.87,2084378.0
1588332608.109375,-15.78,0.12554,31.91,2084128.0
1588332608.125,-23.33,0.12554,31.91,2084342.0
1588332608.140625,-30.33,0.126821,31.91,2084594.0
1588332608.15625,-36.41,0.122978,31.91,2084899.0
1588332608.171875,-41.42,0.122978,31.91,2085559.0
1588332608.1875,-45.45,0.122978,31.91,2085825.0
1588332608.203125,-48.92,0.12554,31.91,2086670.0
1588332608.21875,-52.41,0.126821,31.91,2087494.0
1588332608.234375,-56.54,0.126821,31.91,2085365.0
1588332608.25,-61.94,0.126821,31.91,2080179.0
1588332608.265625,-69.1,0.124259,31.91,2074971.0
1588332608.28125,-78.32,0.124259,31.91,2070765.0
1588332608.296875,-89.18,0.122978,31.89,2067167.0
1588332608.3125,-100.18,0.122978,31.89,2064166.0
1588332608.328125,-108.53,0.121697,31.89,2062808.0
1588332608.34375,-110.7,0.124259,31.89,2061458.0
1588332608.359375,-103.63,0.126821,31.91,2060008.0
1588332608.375,-86.08,0.126821,31.91,2058972.0
1588332608.390625,-59.54,0.128102,31.91,2058567.0
1588332608.40625,-27.98,0.12554,31.91,2058640.0
1588332608.421875,3.48,0.124259,31.89,2058871.0
1588332608.4375,30.37,0.122978,31.89,2059194.0
1588332608.453125,50.29,0.122978,31.89,2059680.0
1588332608.46875,63.14,0.126821,31.89,2060122.0
1588332608.484375,70.46,0.126821,31.89,2060813.0
1588332608.5,74.21,0.12554,31.89,2061558.0
1588332608.515625,75.8,0.126821,31.89,2062211.0
1588332608.53125,75.81,0.12554,31.89,2063218.0
1588332608.546875,74.36,0.122978,31.89,2064272.0
1588332608.5625,71.64,0.122978,31.89,2063809.0
1588332608.578125,68.11,0.122978,31.89,2059736.0
1588332608.59375,64.5,0.124259,31.89,2055100.0
1588332608.609375,61.36,0.126821,31.89,2051674.0
1588332608.625,58.88,0.126821,31.89,2048450.0
1588332608.640625,56.82,0.12554,31.89,2045969.0
1588332608.65625,54.74,0.12554,31.89,2044698.0
1588332608.671875,52.3,0.122978,31.91,2043933.0
1588332608.6875,49.46,0.122978,31.91,2043630.0
1588332608.703125,46.44,0.124259,31.91,2043246.0
1588332608.71875,43.64,0.128102,31.91,2043490.0
1588332608.734375,41.26,0.126821,31.91,2043846.0
1588332608.75,39.09,0.128102,31.91,2044263.0
1588332608.765625,36.58,0.126821,31.91,2045016.0
1588332608.78125,32.93,0.126821,31.91,2046063.0
1588332608.796875,27.5,0.124259,31.89,2047232.0
1588332608.8125,20.25,0.122978,31.89,2048659.0
1588332608.828125,11.79,0.124259,31.89,2050166.0
1588332608.84375,3.24,0.124259,31.89,2051621.0
1588332608.859375,-4.27,0.140912,31.91,2053465.0
1588332608.875,-10.17,0.12554,31.91,2055571.0
1588332608.890625,-14.68,0.126821,31.91,2057943.0
1588332608.90625,-18.69,0.126821,31.91,2058791.0
1588332608.921875,-23.25,0.124259,31.89,2056851.0
1588332608.9375,-28.95,0.124259,31.89,2054224.0
1588332608.953125,-35.6,0.122978,31.89,2052248.0
1588332608.96875,-42.29,0.122978,31.89,2050694.0
1588332608.984375,-47.93,0.128102,31.91,2049107.0
1588332609.0,-51.76,0.126821,31.91,2048628.0
1588332609.015625,-53.77,0.126821,31.91,2048802.0
1588332609.03125,-54.75,0.140912,31.91,2048695.0
1588332609.046875,-55.95,0.122978,31.89,2048718.0
1588332609.0625,-58.76,0.122978,31.89,2048949.0
1588332609.078125,-64.27,0.12554,31.89,2049236.0
1588332609.09375,-72.88,0.124259,31.89,2049855.0
1588332609.109375,-84.0,0.126821,31.91,2050629.0
1588332609.125,-95.7,0.12554,31.91,2051499.0
1588332609.140625,-104.94,0.128102,31.91,2052472.0
1588332609.15625,-108.17,0.128102,31.91,2053565.0
1588332609.171875,-102.47,0.126821,31.89,2054492.0
1588332609.1875,-86.79,0.124259,31.89,2055412.0
1588332609.203125,-62.57,0.124259,31.89,2056640.0
1588332609.21875,-33.37,0.12554,31.89,2057739.0
1588332609.234375,-3.73,0.126821,31.91,2058887.0
1588332609.25,22.44,0.129383,31.91,2060069.0
1588332609.265625,42.99,0.126821,31.91,2061445.0
1588332609.28125,57.71,0.128102,31.91,2061424.0
1588332609.296875,67.73,0.126821,31.89,2059075.0
1588332609.3125,74.48,0.124259,31.89,2056966.0
1588332609.328125,78.88,0.124259,31.89,2055105.0
1588332609.34375,81.22,0.122978,31.89,2053927.0
1588332609.359375,81.48,0.12554,31.91,2053276.0
1588332609.375,79.88,0.12554,31.91,2053309.0
1588332609.390625,77.07,0.126821,31.91,2053521.0
1588332609.40625,74.02,0.128102,31.91,2054065.0
1588332609.421875,71.57,0.128102,31.89,2054233.0
1588332609.4375,70.09,0.126821,31.89,2054950.0
1588332609.453125,69.4,0.12554,31.89,2055954.0
1588332609.46875,68.84,0.124259,31.89,2057141.0
1588332609.484375,67.74,0.124259,31.91,2058259.0
1588332609.5,65.66,0.12554,31.91,2059661.0
1588332609.515625,62.63,0.128102,31.91,2060795.0
1588332609.53125,59.1,0.128102,31.91,2062245.0
1588332609.546875,55.63,0.126821,31.91,2063738.0
1588332609.5625,52.62,0.126821,31.91,2064949.0
1588332609.578125,50.02,0.124259,31.91,2066539.0
1588332609.59375,47.37,0.12554,31.91,2067897.0
1588332609.609375,43.97,0.124259,31.91,2069002.0
1588332609.625,39.18,0.128102,31.91,2068080.0
1588332609.640625,32.8,0.129383,31.91,2066487.0
1588332609.65625,25.21,0.129383,31.91,2065621.0
1588332609.671875,17.33,0.129383,31.89,2064876.0
1588332609.6875,10.31,0.129383,31.89,2064594.0
1588332609.703125,5.07,0.126821,31.89,2065341.0
1588332609.71875,1.88,0.126821,31.89,2066074.0
1588332609.734375,0.18,0.12554,31.91,2067644.0
1588332609.75,-1.31,0.124259,31.91,2066897.0
1588332609.765625,-4.1,0.130664,31.91,2068813.0
1588332609.78125,-9.28,0.128102,31.91,2071237.0
1588332609.796875,-17.02,0.129383,31.89,2072603.0
1588332609.8125,-26.37,0.126821,31.89,2069762.0
1588332609.828125,-35.69,0.126821,31.89,2074423.0
1588332609.84375,-43.23,0.12554,31.89,2075828.0
1588332609.859375,-48.03,0.12554,31.89,2077679.0
1588332609.875,-50.24,0.12554,31.89,2079331.0
1588332609.890625,-51.19,0.128102,31.89,2080669.0
1588332609.90625,-52.75,0.128102,31.89,2082906.0
1588332609.921875,-56.73,0.129383,31.91,2082364.0
1588332609.9375,-64.32,0.129383,31.91,2081543.0
1588332609.953125,-75.72,0.128102,31.91,2079884.0
1588332609.96875,-90.01,0.12554,31.91,2079351.0
1588332609.984375,-105.06,0.126821,31.87,2079780.0
1588332610.0,-117.7,0.12554,31.87,2080289.0
1588332610.015625,-124.26,0.129383,31.87,2079452.0
1588332610.03125,-121.55,0.129383,31.87,2080362.0
1588332610.046875,-107.94,0.129383,31.89,2081071.0
1588332610.0625,-84.29,0.129383,31.89,2082504.0
1588332610.078125,-53.92,0.128102,31.89,2081629.0
1588332610.09375,-21.74,0.12554,31.89,2083535.0
1588332610.109375,7.32,0.12554,31.89,2084429.0
1588332610.125,29.85,0.12554,31.89,2085550.0
1588332610.140625,44.76,0.126821,31.89,2086513.0
1588332610.15625,53.01,0.128102,31.89,2087615.0
1588332610.171875,56.66,0.128102,31.91,2088766.0
1588332610.1875,57.71,0.129383,31.91,2089543.0
1588332610.203125,57.37,0.129383,31.91,2090931.0
1588332610.21875,56.01,0.12554,31.91,2093083.0
1588332610.234375,53.61,0.12554,31.89,2091852.0
1588332610.25,50.25,0.124259,31.89,2093806.0
1588332610.265625,46.39,0.124259,31.89,2092712.0
1588332610.28125,42.77,0.130664,31.89,2091078.0
1588332610.296875,40.08,0.129383,31.91,2089871.0
1588332610.3125,38.69,0.129383,31.91,2088751.0
1588332610.328125,38.48,0.129383,31.91,2088217.0
1588332610.34375,38.94,0.128102,31.91,2087979.0
1588332610.359375,39.46,0.12554,31.89,2088304.0
1588332610.375,39.63,0.12554,31.89,2088687.0
1588332610.390625,39.44,0.12554,31.89,2089057.0
1588332610.40625,39.23,0.128102,31.89,2089484.0
1588332610.421875,39.4,0.129383,31.93,2090217.0
1588332610.4375,40.17,0.129383,31.93,2090978.0
1588332610.453125,41.29,0.129383,31.93,2091993.0
1588332610.46875,42.18,0.128102,31.93,2092739.0
1588332610.484375,42.18,0.126821,31.89,2093647.0
1588332610.5,40.88,0.12554,31.89,2094574.0
1588332610.515625,38.46,0.12554,31.89,2095564.0
1588332610.53125,35.59,0.126821,31.89,2096468.0
1588332610.546875,32.96,0.128102,31.89,2097366.0
1588332610.5625,31.16,0.128102,31.89,2098492.0
1588332610.578125,30.5,0.129383,31.89,2099645.0
1588332610.59375,30.88,0.129383,31.89,2099502.0
1588332610.609375,31.8,0.129383,31.93,2097953.0
1588332610.625,32.65,0.126821,31.93,2096729.0
1588332610.640625,32.81,0.126821,31.93,2095529.0
1588332610.65625,32.1,0.12554,31.93,2094572.0
1588332610.671875,30.92,0.126821,31.91,2094122.0
1588332610.6875,29.73,0.128102,31.91,2094129.0
1588332610.703125,29.0,0.129383,31.91,2094236.0
1588332610.71875,29.07,0.128102,31.91,2094647.0
1588332610.734375,29.81,0.129383,31.91,2094945.0
1588332610.75,30.44,0.142194,31.91,2095486.0
1588332610.765625,29.89,0.12554,31.91,2096068.0
1588332610.78125,26.85,0.12554,31.91,2096977.0
1588332610.796875,20.46,0.12554,31.91,2097865.0
1588332610.8125,10.66,0.128102,31.91,2098868.0
1588332610.828125,-2.33,0.128102,31.91,2099570.0
1588332610.84375,-17.27,0.130664,31.91,2100909.0
1588332610.859375,-31.68,0.129383,31.91,2101846.0
1588332610.875,-42.11,0.129383,31.91,2103235.0
1588332610.890625,-45.14,0.129383,31.91,2104350.0
1588332610.90625,-38.02,0.126821,31.91,2105726.0
1588332610.921875,-20.09,0.12554,31.91,2107014.0
1588332610.9375,7.32,0.12554,31.91,2106868.0
1588332610.953125,41.15,0.126821,31.91,2105648.0
1588332610.96875,75.36,0.129383,31.91,2104452.0
1588332610.984375,104.27,0.129383,31.89,2104121.0
1588332611.0,124.76,0.131945,31.89,2103853.0
1588332611.015625,136.75,0.128102,31.89,2103949.0
1588332611.03125,141.93,0.129383,31.89,2104761.0
1588332611.046875,143.1,0.126821,31.91,2105557.0
1588332611.0625,141.45,0.126821,31.91,2105917.0
1588332611.078125,137.7,0.126821,31.91,2106461.0
1588332611.09375,132.43,0.126821,31.91,2107111.0
1588332611.109375,122.61,0.128102,31.91,2107931.0
1588332611.125,106.34,0.129383,31.91,2108638.0
1588332611.140625,85.12,0.131945,31.91,2109338.0
1588332611.15625,63.24,0.130664,31.91,2110059.0
1588332611.171875,44.73,0.129383,31.93,2110868.0
1588332611.1875,32.82,0.130664,31.93,2111859.0
1588332611.203125,25.87,0.128102,31.93,2112283.0
1588332611.21875,21.19,0.128102,31.93,2113454.0
1588332611.234375,16.49,0.126821,31.91,2114197.0
1588332611.25,4.5,0.12554,31.91,2115191.0
1588332611.265625,-19.7,0.129383,31.91,2115953.0
1588332611.28125,-54.93,0.130664,31.91,2115392.0
1588332611.296875,-95.03,0.130664,31.93,2113559.0
1588332611.3125,-133.48,0.130664,31.93,2111600.0
1588332611.328125,-164.52,0.130664,31.93,2110321.0
1588332611.34375,-189.92,0.128102,31.93,2109128.0
1588332611.359375,-213.52,0.129383,31.91,2108452.0
1588332611.375,-239.26,0.126821,31.91,2108200.0
1588332611.390625,-277.77,0.126821,31.91,2108207.0
1588332611.40625,-336.42,0.129383,31.91,2107969.0
1588332611.421875,-413.5,0.130664,31.91,2107865.0
1588332611.4375,-499.4,0.130664,31.91,2108126.0
1588332611.453125,-583.28,0.130664,31.91,2108593.0
1588332611.46875,-655.05,0.129383,31.91,2109098.0
1588332611.484375,-714.85,0.129383,31.91,2109437.0
1588332611.5,-766.08,0.126821,31.91,2110331.0
1588332611.515625,-764.25,0.128102,31.91,2110878.0
1588332611.53125,-686.04,0.126821,31.91,2111711.0
1588332611.546875,-544.55,0.128102,31.93,2112460.0
1588332611.5625,-380.03,0.130664,31.93,2113213.0
1588332611.578125,-228.76,0.129383,31.93,2113910.0
1588332611.59375,-127.0,0.130664,31.93,2114542.0
1588332611.609375,-59.81,0.129383,31.91,2113203.0
1588332611.625,-14.79,0.126821,31.91,2110847.0
1588332611.640625,14.89,0.126821,31.91,2108747.0
1588332611.65625,32.54,0.126821,31.91,2107053.0
1588332611.671875,39.45,0.126821,31.91,2105405.0
1588332611.6875,33.62,0.130664,31.91,2104210.0
1588332611.703125,18.43,0.130664,31.91,2103967.0
1588332611.71875,2.44,0.129383,31.91,2103811.0
1588332611.734375,-5.82,0.129383,31.91,2103484.0
1588332611.75,1.55,0.130664,31.91,2103275.0
1588332611.765625,23.25,0.129383,31.91,2103128.0
1588332611.78125,55.54,0.126821,31.91,2103620.0
1588332611.796875,94.06,0.12554,31.91,2104176.0
1588332611.8125,128.58,0.126821,31.91,2104688.0
1588332611.828125,150.26,0.126821,31.91,2105511.0
1588332611.84375,157.3,0.129383,31.91,2106123.0
1588332611.859375,154.49,0.130664,31.89,2107106.0
1588332611.875,148.62,0.130664,31.89,2107766.0
1588332611.890625,146.93,0.130664,31.89,2108515.0
1588332611.90625,149.66,0.130664,31.89,2109679.0
1588332611.921875,154.98,0.131945,31.91,2110533.0
1588332611.9375,161.03,0.128102,31.91,2109790.0
1588332611.953125,162.95,0.128102,31.91,2107353.0
1588332611.96875,157.52,0.126821,31.91,2104751.0
1588332611.984375,146.28,0.130664,31.91,2102723.0
1588332612.0,134.16,0.131945,31.91,2100673.0
1588332612.015625,125.98,0.130664,31.91,2099024.0
1588332612.03125,125.52,0.131945,31.91,2098195.0
1588332612.046875,131.49,0.131945,31.91,2097933.0
1588332612.0625,141.05,0.128102,31.91,2097680.0
1588332612.078125,151.03,0.128102,31.91,2097399.0
1588332612.09375,156.4,0.129383,31.91,2097422.0
1588332612.109375,152.54,0.128102,31.91,2097878.0
1588332612.125,137.72,0.130664,31.91,2098121.0
1588332612.140625,113.61,0.131945,31.91,2098928.0
1588332612.15625,84.29,0.129383,31.91,2099636.0
1588332612.171875,55.6,0.130664,31.93,2100555.0
1588332612.1875,31.83,0.129383,31.93,2101506.0
1588332612.203125,15.78,0.129383,31.93,2102211.0
1588332612.21875,8.09,0.126821,31.93,2103088.0
1588332612.234375,6.49,0.128102,31.93,2104049.0
1588332612.25,7.39,0.128102,31.93,2104875.0
1588332612.265625,7.78,0.129383,31.93,2106003.0
1588332612.28125,6.2,0.128102,31.93,2107040.0
1588332612.296875,2.47,0.131945,31.91,2106959.0
1588332612.3125,-2.7,0.130664,31.91,2104216.0
1588332612.328125,-9.0,0.131945,31.91,2101113.0
1588332612.34375,-16.22,0.128102,31.91,2098779.0
1588332612.359375,-24.16,0.128102,31.91,2096239.0
1588332612.375,-32.57,0.128102,31.91,2094388.0
1588332612.390625,-41.09,0.129383,31.91,2093073.0
1588332612.40625,-49.32,0.133226,31.91,2092655.0
1588332612.421875,-56.97,0.129383,31.91,2091934.0
1588332612.4375,-63.88,0.131945,31.91,2091105.0
1588332612.453125,-70.16,0.131945,31.91,2091007.0
1588332612.46875,-76.13,0.131945,31.91,2091223.0
1588332612.484375,-82.1,0.129383,31.91,2091330.0
1588332612.5,-88.28,0.129383,31.91,2091836.0
1588332612.515625,-94.51,0.129383,31.91,2092227.0
1588332612.53125,-100.16,0.131945,31.91,2092968.0
1588332612.546875,-104.26,0.133226,31.91,2093498.0
1588332612.5625,-105.69,0.131945,31.91,2094100.0
1588332612.578125,-103.62,0.133226,31.91,2094953.0
1588332612.59375,-98.02,0.133226,31.91,2095581.0
1588332612.609375,-89.73,0.129383,31.93,2096431.0
1588332612.625,-80.39,0.129383,31.93,2097505.0
1588332612.640625,-71.93,0.130664,31.93,2098293.0
1588332612.65625,-65.89,0.134507,31.93,2098280.0
1588332612.671875,-62.76,0.133226,31.93,2095739.0
1588332612.6875,-61.84,0.133226,31.93,2092474.0
1588332612.703125,-61.49,0.131945,31.93,2089786.0
1588332612.71875,-59.83,0.131945,31.93,2087385.0
1588332612.734375,-55.56,0.129383,31.93,2085696.0
1588332612.75,-48.5,0.129383,31.93,2084604.0
1588332612.765625,-39.74,0.130664,31.93,2084240.0
1588332612.78125,-31.2,0.130664,31.93,2083688.0
1588332612.796875,-24.98,0.131945,31.93,2083043.0
1588332612.8125,-22.6,0.131945,31.93,2082851.0
1588332612.828125,-24.64,0.129383,31.93,2082888.0
1588332612.84375,-30.63,0.131945,31.93,2083213.0
1588332612.859375,-39.4,0.129383,31.93,2083691.0
1588332612.875,-49.43,0.129383,31.93,2084419.0
1588332612.890625,-59.17,0.129383,31.93,2085241.0
1588332612.90625,-67.2,0.129383,31.93,2085777.0
1588332612.921875,-72.41,0.133226,31.93,2086756.0
1588332612.9375,-74.08,0.131945,31.93,2087552.0
1588332612.953125,-71.95,0.133226,31.93,2088765.0
1588332612.96875,-66.3,0.133226,31.93,2088328.0
1588332612.984375,-57.8,0.133226,31.91,2085157.0
1588332613.0,-47.3,0.129383,31.91,2089792.0
1588332613.015625,-35.58,0.130664,31.91,2090464.0
1588332613.03125,-23.16,0.129383,31.91,2082467.0
1588332613.046875,-10.31,0.128102,31.91,2078344.0
1588332613.0625,2.85,0.131945,31.91,2080579.0
1588332613.078125,16.2,0.131945,31.91,2078878.0
1588332613.09375,29.57,0.133226,31.91,2078268.0
1588332613.109375,42.76,0.133226,31.91,2078035.0
1588332613.125,55.64,0.130664,31.91,2077619.0
1588332613.140625,68.15,0.129383,31.91,2077549.0
1588332613.15625,80.3,0.131945,31.91,2077801.0
1588332613.171875,92.12,0.130664,31.91,2078416.0
1588332613.1875,103.69,0.131945,31.91,2079362.0
1588332613.203125,115.08,0.134507,31.91,2080270.0
1588332613.21875,126.32,0.133226,31.91,2081857.0
1588332613.234375,137.41,0.134507,31.93,2080904.0
1588332613.25,148.31,0.133226,31.93,2082701.0
1588332613.265625,158.9,0.131945,31.93,2083557.0
1588332613.28125,169.14,0.130664,31.93,2084457.0
1588332613.296875,179.11,0.129383,31.95,2085708.0
1588332613.3125,189.09,0.129383,31.95,2084957.0
1588332613.328125,199.58,0.131945,31.95,2081275.0
1588332613.34375,211.3,0.129383,31.95,2077647.0
1588332613.359375,225.24,0.133226,31.91,2074689.0
1588332613.375,242.33,0.133226,31.91,2072037.0
1588332613.390625,262.93,0.131945,31.91,2069881.0
1588332613.40625,286.15,0.130664,31.91,2068640.0
1588332613.421875,309.52,0.130664,31.93,2067986.0
1588332613.4375,329.29,0.129383,31.93,2067569.0
1588332613.453125,341.56,0.130664,31.93,2067115.0
1588332613.46875,343.63,0.131945,31.93,2066906.0
1588332613.484375,335.05,0.133226,31.95,2067267.0
1588332613.5,317.77,0.131945,31.95,2067712.0
1588332613.515625,295.22,0.134507,31.95,2068368.0
1588332613.53125,270.87,0.133226,31.95,2068902.0
1588332613.546875,247.16,0.131945,31.93,2070529.0
1588332613.5625,225.01,0.129383,31.93,2069660.0
1588332613.578125,204.33,0.129383,31.93,2071250.0
1588332613.59375,184.75,0.130664,31.93,2072103.0
1588332613.609375,166.24,0.133226,31.93,2073101.0
1588332613.625,149.1,0.133226,31.93,2074374.0
1588332613.640625,133.69,0.134507,31.93,2073746.0
1588332613.65625,119.97,0.133226,31.93,2070262.0
1588332613.671875,107.55,0.133226,31.93,2066483.0
1588332613.6875,95.85,0.130664,31.93,2063314.0
1588332613.703125,84.51,0.129383,31.93,2060422.0
1588332613.71875,73.47,0.130664,31.93,2057735.0
1588332613.734375,62.87,0.129383,31.93,2056382.0
1588332613.75,52.84,0.133226,31.93,2055576.0
1588332613.765625,43.25,0.134507,31.93,2054777.0
1588332613.78125,33.75,0.133226,31.93,2054139.0
1588332613.796875,24.04,0.133226,31.93,2053773.0
1588332613.8125,14.0,0.133226,31.93,2053774.0
1588332613.828125,3.88,0.129383,31.93,2054143.0
1588332613.84375,-5.99,0.130664,31.93,2054847.0
1588332613.859375,-15.36,0.129383,31.95,2055512.0
1588332613.875,-24.32,0.128102,31.95,2056263.0
1588332613.890625,-33.29,0.130664,31.95,2057151.0
1588332613.90625,-42.65,0.130664,31.95,2058009.0
1588332613.921875,-52.47,0.131945,31.95,2059216.0
1588332613.9375,-62.22,0.130664,31.95,2060341.0
1588332613.953125,-70.91,0.133226,31.95,2061285.0
1588332613.96875,-77.61,0.129383,31.95,2062672.0
1588332613.984375,-81.9,0.130664,31.95,2061141.0
1588332614.0,-84.31,0.129383,31.95,2057058.0
1588332614.015625,-86.21,0.128102,31.95,2053631.0
1588332614.03125,-89.48,0.131945,31.95,2050827.0
1588332614.046875,-95.91,0.133226,31.95,2048290.0
1588332614.0625,-106.51,0.133226,31.95,2046399.0
1588332614.078125,-121.11,0.131945,31.95,2045707.0
1588332614.09375,-138.15,0.133226,31.95,2045478.0
1588332614.109375,-154.69,0.129383,31.95,2044831.0
1588332614.125,-166.82,0.129383,31.95,2044731.0
1588332614.140625,-170.42,0.130664,31.95,2044465.0
1588332614.15625,-162.38,0.130664,31.95,2045254.0
1588332614.171875,-141.81,0.131945,31.93,2045970.0
1588332614.1875,-110.67,0.134507,31.93,2046777.0
1588332614.203125,-73.48,0.131945,31.93,2047556.0
1588332614.21875,-35.95,0.133226,31.93,2048464.0
1588332614.234375,-3.11,0.134507,31.95,2049770.0
1588332614.25,22.26,0.131945,31.95,2050783.0
1588332614.265625,40.13,0.130664,31.95,2052017.0
1588332614.28125,52.52,0.131945,31.95,2053025.0
1588332614.296875,62.06,0.130664,31.95,2054429.0
1588332614.3125,70.59,0.130664,31.95,2055774.0
1588332614.328125,78.53,0.133226,31.95,2055642.0
1588332614.34375,85.2,0.133226,31.95,2052013.0
1588332614.359375,89.7,0.134507,31.97,2048257.0
1588332614.375,91.73,0.131945,31.97,2045010.0
1588332614.390625,91.87,0.130664,31.97,2042340.0
1588332614.40625,91.22,0.130664,31.97,2040193.0
1588332614.421875,90.74,0.130664,31.95,2039259.0
1588332614.4375,90.84,0.130664,31.95,2038653.0
1588332614.453125,91.21,0.133226,31.95,2038146.0
1588332614.46875,91.31,0.135788,31.95,2037600.0
1588332614.484375,90.7,0.134507,31.97,2037950.0
1588332614.5,89.39,0.134507,31.97,2038241.0
1588332614.515625,87.77,0.133226,31.97,2038987.0
1588332614.53125,86.19,0.130664,31.97,2039715.0
1588332614.546875,84.58,0.129383,31.95,2040463.0
1588332614.5625,82.33,0.129383,31.95,2041230.0
1588332614.578125,78.59,0.129383,31.95,2042203.0
1588332614.59375,72.77,0.130664,31.95,2043273.0
1588332614.609375,65.04,0.134507,31.95,2044357.0
1588332614.625,56.46,0.135788,31.95,2045751.0
1588332614.640625,48.54,0.131945,31.95,2046940.0
1588332614.65625,42.59,0.133226,31.95,2045484.0
1588332614.671875,39.04,0.130664,31.97,2041354.0
1588332614.6875,37.23,0.130664,31.97,2037812.0
1588332614.703125,35.66,0.130664,31.97,2034906.0
1588332614.71875,32.69,0.129383,31.97,2032477.0
1588332614.734375,27.23,0.133226,31.95,2031089.0
1588332614.75,19.14,0.134507,31.95,2030420.0
1588332614.765625,9.17,0.133226,31.95,2030403.0
1588332614.78125,-1.42,0.134507,31.95,2029847.0
1588332614.796875,-11.56,0.134507,31.97,2029427.0
1588332614.8125,-20.68,0.130664,31.97,2029733.0
1588332614.828125,-28.97,0.131945,31.97,2030209.0
1588332614.84375,-37.21,0.130664,31.97,2031068.0
1588332614.859375,-46.47,0.129383,31.97,2032100.0
1588332614.875,-57.79,0.130664,31.97,2033103.0
1588332614.890625,-71.65,0.133226,31.97,2034243.0
1588332614.90625,-87.51,0.133226,31.97,2035556.0
1588332614.921875,-103.44,0.134507,31.97,2036694.0
1588332614.9375,-116.19,0.134507,31.97,2038018.0
1588332614.953125,-121.98,0.131945,31.97,2039450.0
1588332614.96875,-117.71,0.131945,31.97,2038864.0
1588332614.984375,-102.37,0.130664,31.97,2034519.0
1588332615.0,-77.79,0.130664,31.97,2030268.0
1588332615.015625,-48.16,0.133226,31.97,2026697.0
1588332615.03125,-18.71,0.134507,31.97,2023538.0
1588332615.046875,6.17,0.133226,31.99,2021090.0
1588332615.0625,24.23,0.134507,31.99,2019827.0
1588332615.078125,35.71,0.134507,31.99,2019180.0
1588332615.09375,42.43,0.130664,31.99,2018549.0
1588332615.109375,46.51,0.131945,31.97,2018048.0
1588332615.125,49.22,0.131945,31.97,2018016.0
1588332615.140625,50.78,0.130664,31.97,2018522.0
1588332615.15625,50.77,0.133226,31.97,2019217.0
1588332615.171875,48.92,0.133226,31.97,2019952.0
1588332615.1875,45.62,0.131945,31.97,2020954.0
1588332615.203125,41.96,0.133226,31.97,2022096.0
1588332615.21875,39.25,0.135788,31.97,2023332.0
1588332615.234375,38.43,0.130664,31.97,2024435.0
1588332615.25,39.68,0.130664,31.97,2025845.0
1588332615.265625,42.43,0.130664,31.97,2027245.0
1588332615.28125,45.66,0.130664,31.97,2028544.0
1588332615.296875,48.51,0.134507,31.99,2030115.0
1588332615.3125,50.6,0.133226,31.99,2026926.0
1588332615.328125,52.12,0.134507,31.99,2030653.0
1588332615.34375,53.61,0.134507,31.99,2018138.0
1588332615.359375,55.48,0.134507,31.99,2011525.0
1588332615.375,57.74,0.131945,31.99,2009566.0
1588332615.390625,59.87,0.131945,31.99,2014622.0
1588332615.40625,61.14,0.131945,31.99,2022170.0
1588332615.421875,60.92,0.130664,31.97,2008620.0
1588332615.4375,59.15,0.131945,31.97,2007967.0
1588332615.453125,56.32,0.135788,31.97,2007340.0
1588332615.46875,53.38,0.134507,31.97,2007006.0
1588332615.484375,51.35,0.134507,31.97,2007460.0
1588332615.5,50.98,0.134507,31.97,2008249.0
1588332615.515625,52.52,0.130664,31.97,2007663.0
1588332615.53125,55.76,0.130664,31.97,2009511.0
1588332615.546875,60.14,0.130664,31.97,2010579.0
1588332615.5625,65.05,0.130664,31.97,2011643.0
1588332615.578125,70.03,0.134507,31.97,2012951.0
1588332615.59375,74.81,0.135788,31.97,2014207.0
1588332615.609375,79.09,0.135788,31.97,2015671.0
1588332615.625,82.36,0.135788,31.97,2017286.0
1588332615.640625,83.75,0.134507,31.97,2018718.0
1588332615.65625,82.23,0.133226,31.97,2020405.0
1588332615.671875,77.04,0.130664,31.97,2020166.0
1588332615.6875,68.06,0.130664,31.97,2016219.0
1588332615.703125,56.04,0.130664,31.97,2011791.0
1588332615.71875,42.24,0.133226,31.97,2008355.0
1588332615.734375,27.99,0.133226,31.99,2005400.0
1588332615.75,14.15,0.135788,31.99,2003215.0
1588332615.765625,1.07,0.135788,31.99,2002311.0
1588332615.78125,-11.08,0.135788,31.99,2002014.0
1588332615.796875,-21.79,0.131945,31.99,2001600.0
1588332615.8125,-29.99,0.130664,31.99,2001403.0
1588332615.828125,-34.36,0.133226,31.99,2001520.0
1588332615.84375,-33.94,0.133226,31.99,2001982.0
1588332615.859375,-28.76,0.133226,31.97,2003051.0
1588332615.875,-20.05,0.134507,31.97,2003974.0
1588332615.890625,-9.81,0.133226,31.97,2005143.0
1588332615.90625,-0.19,0.133226,31.97,2006479.0
1588332615.921875,6.97,0.130664,31.99,2007886.0
1588332615.9375,10.29,0.130664,31.99,2009309.0
1588332615.953125,8.68,0.131945,31.99,2010743.0
1588332615.96875,1.24,0.130664,31.99,2012411.0
1588332615.984375,-12.53,0.134507,31.99,2014315.0
1588332616.0,-32.3,0.131945,31.99,2016157.0
1588332616.015625,-56.42,0.135788,31.99,2014989.0
1588332616.03125,-81.9,0.134507,31.99,2011082.0
1588332616.046875,-105.07,0.134507,31.97,2007461.0
1588332616.0625,-122.6,0.131945,31.97,2004940.0
1588332616.078125,-132.78,0.146037,31.97,2003034.0
1588332616.09375,-136.09,0.130664,31.97,2001892.0
1588332616.109375,-135.02,0.130664,31.99,2001672.0
1588332616.125,-133.03,0.134507,31.99,2001967.0
1588332616.140625,-133.07,0.135788,31.99,2001826.0
1588332616.15625,-136.38,0.137069,31.99,2002070.0
1588332616.171875,-142.07,0.135788,31.99,2002624.0
1588332616.1875,-147.77,0.134507,31.99,2003658.0
1588332616.203125,-150.88,0.134507,31.99,2004865.0
1588332616.21875,-149.86,0.131945,31.99,2006288.0
1588332616.234375,-144.89,0.131945,31.99,2007505.0
1588332616.25,-137.54,0.131945,31.99,2009191.0
1588332616.265625,-129.79,0.135788,31.99,2010662.0
1588332616.28125,-123.05,0.134507,31.99,2012274.0
1588332616.296875,-117.63,0.135788,31.99,2013775.0
1588332616.3125,-112.99,0.135788,31.99,2015691.0
1588332616.328125,-108.31,0.134507,31.99,2017472.0
1588332616.34375,-103.2,0.135788,31.99,2016087.0
1588332616.359375,-97.84,0.131945,31.97,2012337.0
1588332616.375,-92.83,0.133226,31.97,2009094.0
1588332616.390625,-88.81,0.133226,31.97,2006851.0
1588332616.40625,-86.15,0.133226,31.97,2004699.0
1588332616.421875,-84.88,0.134507,31.99,2003475.0
1588332616.4375,-84.81,0.131945,31.99,2003477.0
1588332616.453125,-85.59,0.135788,31.99,2003626.0
1588332616.46875,-86.84,0.134507,31.99,2003688.0
1588332616.484375,-88.19,0.134507,31.99,2003801.0
1588332616.5,-89.22,0.131945,31.99,2004536.0
1588332616.515625,-89.62,0.131945,31.99,2005428.0
1588332616.53125,-89.25,0.133226,31.99,2006818.0
1588332616.546875,-88.22,0.131945,31.99,2008237.0
1588332616.5625,-87.01,0.134507,31.99,2009652.0
1588332616.578125,-86.48,0.135788,31.99,2011004.0
1588332616.59375,-87.61,0.14988,31.99,2012794.0
1588332616.609375,-91.14,0.134507,31.99,2014395.0
1588332616.625,-96.97,0.134507,31.99,2016222.0
1588332616.640625,-103.7,0.135788,31.99,2017875.0
1588332616.65625,-108.5,0.131945,31.99,2019750.0
1588332616.671875,-107.66,0.131945,31.99,2021604.0
1588332616.6875,-97.76,0.131945,31.99,2022317.0
1588332616.703125,-77.02,0.133226,31.99,2019627.0
1588332616.71875,-46.32,0.135788,31.99,2016147.0
1588332616.734375,-9.18,0.135788,31.99,2013576.0
1588332616.75,29.23,0.135788,31.99,2011617.0
1588332616.765625,63.81,0.135788,31.99,2009939.0
1588332616.78125,91.13,0.135788,31.99,2009352.0
1588332616.796875,110.22,0.131945,31.99,2009356.0
1588332616.8125,122.18,0.131945,31.99,2009719.0
1588332616.828125,129.08,0.131945,31.99,2009843.0
1588332616.84375,132.52,0.130664,31.99,2010321.0
1588332616.859375,133.03,0.131945,31.99,2011200.0
1588332616.875,130.25,0.134507,31.99,2012227.0
1588332616.890625,123.74,0.135788,31.99,2013590.0
1588332616.90625,113.9,0.137069,31.99,2015064.0
1588332616.921875,102.19,0.135788,31.99,2016711.0
1588332616.9375,90.7,0.135788,31.99,2018122.0
1588332616.953125,81.11,0.133226,31.99,2019844.0
1588332616.96875,73.91,0.133226,31.99,2021563.0
1588332616.984375,68.21,0.133226,32.0,2023414.0
1588332617.0,62.48,0.131945,32.0,2025316.0
1588332617.015625,55.4,0.133226,32.0,2027202.0
1588332617.03125,46.67,0.135788,32.0,2027773.0
1588332617.046875,37.15,0.137069,31.99,2025679.0
1588332617.0625,28.26,0.135788,31.99,2021830.0
1588332617.078125,21.18,0.134507,31.99,2023471.0
1588332617.09375,16.15,0.137069,31.99,2020627.0
1588332617.109375,12.5,0.133226,31.99,2019915.0
1588332617.125,9.03,0.131945,31.99,2020033.0
1588332617.140625,4.71,0.131945,31.99,2020699.0
1588332617.15625,-0.75,0.131945,31.99,2021393.0
1588332617.171875,-6.82,0.134507,31.99,2022125.0
1588332617.1875,-12.5,0.137069,31.99,2023017.0
1588332617.203125,-16.87,0.135788,31.99,2024238.0
1588332617.21875,-19.64,0.134507,31.99,2025691.0
1588332617.234375,-21.26,0.134507,31.99,2027053.0
1588332617.25,-22.76,0.131945,31.99,2028620.0
1588332617.265625,-25.23,0.131945,31.99,2030103.0
1588332617.28125,-29.2,0.133226,31.99,2031724.0
1588332617.296875,-34.5,0.131945,31.99,2033266.0
1588332617.3125,-40.21,0.131945,31.99,2035070.0
1588332617.328125,-45.14,0.134507,31.99,2036921.0
1588332617.34375,-48.41,0.134507,31.99,2038740.0
1588332617.359375,-49.87,0.131945,31.99,2040437.0
1588332617.375,-50.22,0.135788,31.99,2042383.0
1588332617.390625,-50.86,0.135788,31.99,2043276.0
1588332617.40625,-53.36,0.134507,31.99,2041699.0
1588332617.421875,-59.04,0.135788,31.99,2039928.0
1588332617.4375,-68.5,0.133226,31.99,2038595.0
1588332617.453125,-81.27,0.133226,31.99,2037895.0
1588332617.46875,-95.53,0.130664,31.99,2037161.0
1588332617.484375,-108.1,0.131945,32.0,2037380.0
1588332617.5,-114.94,0.134507,32.0,2037921.0
1588332617.515625,-112.23,0.137069,32.0,2038142.0
1588332617.53125,-97.68,0.134507,32.0,2038996.0
1588332617.546875,-71.61,0.135788,32.0,2039545.0
1588332617.5625,-37.16,0.135788,32.0,2040647.0
1588332617.578125,0.59,0.133226,32.0,2041838.0
1588332617.59375,36.25,0.131945,32.0,2043067.0
1588332617.609375,65.78,0.133226,31.99,2044497.0
1588332617.625,87.49,0.131945,31.99,2045709.0
1588332617.640625,101.99,0.135788,31.99,2047330.0
1588332617.65625,111.24,0.135788,31.99,2048897.0
1588332617.671875,117.32,0.135788,32.0,2050408.0
1588332617.6875,121.56,0.135788,32.0,2052002.0
1588332617.703125,124.24,0.137069,32.0,2053711.0
1588332617.71875,124.85,0.134507,32.0,2055506.0
1588332617.734375,122.75,0.133226,31.99,2055490.0
1588332617.75,117.62,0.133226,31.99,2054015.0
1588332617.765625,109.75,0.133226,31.99,2052846.0
1588332617.78125,100.03,0.133226,31.99,2052077.0
1588332617.796875,89.61,0.151161,31.99,2051766.0
1588332617.8125,79.58,0.137069,31.99,2052108.0
1588332617.828125,70.68,0.137069,31.99,2052529.0
1588332617.84375,63.12,0.13835,31.99,2053387.0
1588332617.859375,56.76,0.135788,31.99,2053785.0
1588332617.875,51.45,0.134507,31.99,2054522.0
1588332617.890625,47.08,0.134507,31.99,2055412.0
1588332617.90625,43.64,0.134507,31.99,2056161.0
1588332617.921875,41.02,0.134507,32.03,2057555.0
1588332617.9375,38.84,0.134507,32.03,2058698.0
1588332617.953125,36.43,0.13835,32.03,2059948.0
1588332617.96875,33.05,0.13835,32.03,2061266.0
1588332617.984375,28.26,0.135788,32.0,2062503.0
1588332618.0,22.18,0.13835,32.0,2063975.0
1588332618.015625,15.48,0.13835,32.0,2065388.0
1588332618.03125,9.21,0.137069,32.0,2066681.0
1588332618.046875,4.35,0.134507,32.0,2065707.0
1588332618.0625,1.53,0.134507,32.0,2064485.0
1588332618.078125,0.75,0.134507,32.0,2063611.0
1588332618.09375,1.44,0.134507,32.0,2063198.0
1588332618.109375,2.69,0.135788,32.0,2063156.0
1588332618.125,3.55,0.135788,32.0,2063604.0
1588332618.140625,3.3,0.13835,32.0,2064484.0
1588332618.15625,1.73,0.13835,32.0,2064970.0
1588332618.171875,-0.91,0.13835,32.0,2065545.0
1588332618.1875,-4.0,0.135788,32.0,2066257.0
1588332618.203125,-6.81,0.137069,32.0,2067362.0
1588332618.21875,-8.8,0.134507,32.0,2068195.0
1588332618.234375,-9.86,0.133226,32.0,2069446.0
1588332618.25,-10.38,0.133226,32.0,2070615.0
1588332618.265625,-11.12,0.134507,32.0,2071776.0
1588332618.28125,-13.02,0.134507,32.0,2072668.0
1588332618.296875,-16.88,0.13835,32.0,2074087.0
1588332618.3125,-23.23,0.13835,32.0,2075337.0
1588332618.328125,-32.0,0.13835,32.0,2075797.0
1588332618.34375,-42.35,0.137069,32.0,2074643.0
1588332618.359375,-52.55,0.135788,32.0,2072964.0
1588332618.375,-60.03,0.134507,32.0,2071609.0
1588332618.390625,-61.79,0.134507,32.0,2070639.0
1588332618.40625,-55.04,0.135788,32.0,2070000.0
1588332618.421875,-38.12,0.13835,32.03,2070162.0
1588332618.4375,-11.34,0.139631,32.03,2070622.0
1588332618.453125,22.78,0.139631,32.03,2071027.0
1588332618.46875,59.84,0.13835,32.03,2071301.0
1588332618.484375,94.62,0.152442,32.03,2071625.0
1588332618.5,122.4,0.134507,32.03,2072488.0
1588332618.515625,140.18,0.134507,32.03,2073596.0
1588332618.53125,147.25,0.134507,32.03,2074335.0
1588332618.546875,145.03,0.133226,32.03,2075466.0
1588332618.5625,136.37,0.13835,32.03,2076404.0
1588332618.578125,124.62,0.13835,32.03,2077474.0
1588332618.59375,112.69,0.13835,32.03,2078599.0
1588332618.609375,102.58,0.137069,32.03,2079627.0
1588332618.625,95.25,0.13835,32.03,2080845.0
1588332618.640625,90.63,0.137069,32.03,2081511.0
1588332618.65625,87.8,0.135788,32.03,2079915.0
1588332618.671875,85.09,0.134507,32.0,2077918.0
1588332618.6875,80.34,0.134507,32.0,2076146.0
1588332618.703125,71.21,0.140912,32.0,2074949.0
1588332618.71875,55.79,0.139631,32.0,2073731.0
1588332618.734375,33.32,0.13835,32.0,2073378.0
1588332618.75,4.71,0.13835,32.0,2073397.0
1588332618.765625,-27.41,0.137069,32.0,2073618.0
1588332618.78125,-59.32,0.134507,32.0,2073561.0
1588332618.796875,-87.22,0.134507,32.03,2074033.0
1588332618.8125,-108.52,0.134507,32.03,2074583.0
1588332618.828125,-122.64,0.13835,32.03,2075337.0
1588332618.84375,-130.91,0.13835,32.03,2076087.0
1588332618.859375,-135.84,0.137069,32.03,2077186.0
1588332618.875,-139.83,0.139631,32.03,2078101.0
1588332618.890625,-144.17,0.137069,32.03,2079011.0
1588332618.90625,-148.77,0.137069,32.03,2080238.0
1588332618.921875,-152.57,0.135788,32.03,2081431.0
1588332618.9375,-154.47,0.135788,32.03,2082392.0
1588332618.953125,-154.2,0.134507,32.03,2083604.0
1588332618.96875,-152.56,0.134507,32.03,2083130.0
1588332618.984375,-150.96,0.13835,32.03,2084464.0
1588332619.0,-150.61,0.137069,32.03,2081012.0
1588332619.015625,-151.84,0.135788,32.03,2079330.0
1588332619.03125,-153.9,0.137069,32.03,2077771.0
1588332619.046875,-155.44,0.139631,32.0,2076725.0
1588332619.0625,-155.28,0.135788,32.0,2076297.0
1588332619.078125,-152.9,0.135788,32.0,2076577.0
1588332619.09375,-148.58,0.134507,32.0,2076567.0
1588332619.109375,-142.93,0.13835,32.03,2076530.0
1588332619.125,-136.43,0.139631,32.03,2076763.0
1588332619.140625,-129.09,0.139631,32.03,2077302.0
1588332619.15625,-120.62,0.13835,32.03,2078190.0
1588332619.171875,-110.74,0.137069,32.0,2078815.0
1588332619.1875,-99.54,0.139631,32.0,2079722.0
1588332619.203125,-87.64,0.135788,32.0,2080684.0
1588332619.21875,-76.1,0.135788,32.0,2081612.0
1588332619.234375,-66.41,0.135788,32.05,2082655.0
1588332619.25,-60.31,0.13835,32.05,2083619.0
1588332619.265625,-59.69,0.139631,32.05,2084710.0
1588332619.28125,-66.09,0.139631,32.05,2086025.0
1588332619.296875,-79.73,0.13835,32.03,2087566.0
1588332619.3125,-98.75,0.137069,32.03,2088405.0
1588332619.328125,-118.86,0.135788,32.03,2089393.0
1588332619.34375,-134.04,0.135788,32.03,2088051.0
1588332619.359375,-138.03,0.135788,32.03,2085875.0
1588332619.375,-126.47,0.134507,32.03,2084148.0
1588332619.390625,-98.36,0.13835,32.03,2082828.0
1588332619.40625,-56.65,0.139631,32.03,2081487.0
1588332619.421875,-7.35,0.13835,32.0,2081038.0
1588332619.4375,42.34,0.13835,32.0,2081051.0
1588332619.453125,86.01,0.139631,32.0,2081320.0
1588332619.46875,119.64,0.137069,32.0,2081407.0
1588332619.484375,142.02,0.13835,32.0,2081535.0
1588332619.5,154.18,0.135788,32.0,2082058.0
1588332619.515625,158.35,0.135788,32.0,2082790.0
1588332619.53125,156.77,0.139631,32.0,2083746.0
1588332619.546875,151.08,0.140912,32.03,2084622.0
1588332619.5625,142.34,0.140912,32.03,2085522.0
1588332619.578125,131.46,0.139631,32.03,2086368.0
1588332619.59375,119.53,0.13835,32.03,2087665.0
1588332619.609375,107.85,0.135788,32.07,2088708.0
1588332619.625,97.66,0.135788,32.07,2089997.0
1588332619.640625,89.6,0.135788,32.07,2091193.0
1588332619.65625,83.46,0.137069,32.07,2092384.0
1588332619.671875,78.33,0.140912,32.03,2093571.0
1588332619.6875,73.17,0.139631,32.03,2093961.0
1588332619.703125,67.39,0.139631,32.03,2092167.0
1588332619.71875,61.11,0.13835,32.03,2090445.0
1588332619.734375,55.0,0.139631,32.03,2088835.0
1588332619.75,49.83,0.135788,32.03,2087919.0
1588332619.765625,45.88,0.135788,32.03,2087054.0
1588332619.78125,42.7,0.135788,32.03,2087048.0
1588332619.796875,39.27,0.137069,32.05,2087330.0
1588332619.8125,34.43,0.139631,32.05,2087386.0
1588332619.828125,27.46,0.140912,32.05,2087437.0
1588332619.84375,18.54,0.140912,32.05,2087871.0
1588332619.859375,8.7,0.140912,32.05,2088614.0
1588332619.875,-0.47,0.139631,32.05,2089409.0
1588332619.890625,-7.59,0.13835,32.05,2090283.0
1588332619.90625,-12.02,0.137069,32.05,2091495.0
1588332619.921875,-14.19,0.137069,32.03,2093538.0
1588332619.9375,-15.4,0.135788,32.03,2095653.0
1588332619.953125,-17.19,0.13835,32.03,2094446.0
1588332619.96875,-20.71,0.139631,32.03,2092681.0
1588332619.984375,-26.24,0.139631,32.05,2096759.0
1588332620.0,-33.19,0.13835,32.05,2098030.0
1588332620.015625,-40.42,0.13835,32.05,2099009.0
1588332620.03125,-46.83,0.135788,32.05,2097877.0
1588332620.046875,-51.8,0.135788,32.03,2095927.0
1588332620.0625,-55.43,0.135788,32.03,2094540.0
1588332620.078125,-58.44,0.135788,32.03,2093645.0
1588332620.09375,-61.96,0.13835,32.03,2093093.0
1588332620.109375,-67.16,0.140912,32.03,2092984.0
1588332620.125,-74.93,0.142194,32.03,2093053.0
1588332620.140625,-85.48,0.140912,32.03,2093346.0
1588332620.15625,-97.88,0.13835,32.03,2093460.0
1588332620.171875,-109.9,0.13835,32.05,2093861.0
1588332620.1875,-118.25,0.137069,32.05,2094662.0
1588332620.203125,-119.39,0.135788,32.05,2095293.0
1588332620.21875,-110.76,0.13835,32.05,2096092.0
1588332620.234375,-91.91,0.139631,32.03,2097005.0
1588332620.25,-64.91,0.140912,32.03,2098144.0
1588332620.265625,-33.84,0.139631,32.03,2098930.0
1588332620.28125,-3.34,0.140912,32.03,2100102.0
1588332620.296875,22.88,0.13835,32.03,2101085.0
1588332620.3125,43.08,0.13835,32.03,2102272.0
1588332620.328125,57.52,0.135788,32.03,2103573.0
1588332620.34375,67.75,0.134507,32.03,2103763.0
1588332620.359375,75.47,0.134507,32.07,2102099.0
1588332620.375,81.77,0.13835,32.07,2099868.0
1588332620.390625,86.93,0.139631,32.07,2098146.0
1588332620.40625,90.75,0.139631,32.07,2096871.0
1588332620.421875,93.1,0.140912,32.07,2095555.0
1588332620.4375,94.17,0.139631,32.07,2095053.0
1588332620.453125,94.52,0.137069,32.07,2095135.0
1588332620.46875,94.81,0.135788,32.07,2094935.0
1588332620.484375,95.49,0.135788,32.05,2094885.0
1588332620.5,96.7,0.135788,32.05,2095119.0
1588332620.515625,98.34,0.13835,32.05,2095461.0
1588332620.53125,100.19,0.139631,32.05,2096182.0
1588332620.546875,102.16,0.13835,32.03,2096993.0
1588332620.5625,104.29,0.139631,32.03,2097843.0
1588332620.578125,106.7,0.13835,32.03,2098722.0
1588332620.59375,109.42,0.140912,32.03,2099530.0
1588332620.609375,112.27,0.137069,32.05,2100700.0
1588332620.625,114.88,0.135788,32.05,2101606.0
1588332620.640625,116.77,0.13835,32.05,2102631.0
1588332620.65625,117.58,0.13835,32.05,2103885.0
1588332620.671875,117.2,0.13835,32.05,2104062.0
1588332620.6875,115.84,0.13835,32.05,2101610.0
1588332620.703125,113.91,0.139631,32.05,2099456.0
1588332620.71875,111.94,0.139631,32.05,2097238.0
1588332620.734375,110.39,0.13835,32.05,2095349.0
1588332620.75,109.56,0.137069,32.05,2093690.0
1588332620.765625,109.54,0.137069,32.05,2092870.0
1588332620.78125,110.18,0.135788,32.05,2092767.0
1588332620.796875,111.23,0.135788,32.03,2092358.0
1588332620.8125,112.32,0.139631,32.03,2092233.0
1588332620.828125,113.06,0.139631,32.03,2092351.0
1588332620.84375,112.89,0.140912,32.03,2092673.0
1588332620.859375,111.15,0.139631,32.05,2093159.0
1588332620.875,107.01,0.140912,32.05,2093792.0
1588332620.890625,99.75,0.139631,32.05,2094661.0
1588332620.90625,88.9,0.137069,32.05,2095580.0
1588332620.921875,74.48,0.137069,32.05,2096368.0
1588332620.9375,57.13,0.137069,32.05,2097250.0
1588332620.953125,38.05,0.137069,32.05,2098224.0
1588332620.96875,19.0,0.140912,32.05,2099114.0
1588332620.984375,2.0,0.142194,32.05,2100258.0
1588332621.0,-10.97,0.139631,32.05,2101599.0
1588332621.015625,-18.38,0.140912,32.05,2102286.0
1588332621.03125,-19.72,0.140912,32.05,2100210.0
1588332621.046875,-15.75,0.139631,32.05,2097450.0
1588332621.0625,-8.39,0.137069,32.05,2095135.0
1588332621.078125,-0.22,0.13835,32.05,2092881.0
1588332621.09375,6.28,0.135788,32.05,2091031.0
1588332621.109375,9.59,0.140912,32.05,2089883.0
1588332621.125,9.44,0.140912,32.05,2089421.0
1588332621.140625,6.68,0.140912,32.05,2089106.0
1588332621.15625,2.65,0.13835,32.05,2088744.0
1588332621.171875,-1.5,0.139631,32.07,2088612.0
1588332621.1875,-5.25,0.139631,32.07,2088752.0
1588332621.203125,-8.84,0.137069,32.07,2088968.0
1588332621.21875,-12.86,,,2089421.0
1588332621.234375,-17.81,,,2090136.0
1588332621.25,-23.82,,,2090834.0
1588332621.265625,-30.72,,,2091527.0
1588332621.28125,-38.41,,,2092339.0
1588332621.296875,-47.33,,,2093211.0
1588332621.3125,-58.53,,,2094142.0
1588332621.328125,-73.21,,,2094961.0
1588332621.34375,-91.89,,,2096250.0
1588332621.359375,-113.63,,,2097209.0
1588332621.375,-135.99,,,2098061.0
1588332621.390625,-155.83,,,2096257.0
1588332621.40625,-170.55,,,2093432.0
1588332621.421875,-179.35,,,2090712.0
1588332621.4375,-183.27,,,2088099.0
1588332621.453125,-184.46,,,2086020.0
1588332621.46875,-184.78,,,2084573.0
1588332621.484375,-184.79,,,2084094.0
1588332621.5,-183.66,,,2083606.0
1588332621.515625,-179.99,,,2083142.0
1588332621.53125,-172.99,,,2082831.0
1588332621.546875,-163.14,,,2082958.0
1588332621.5625,-152.12,,,2083295.0
1588332621.578125,-142.03,,,2083851.0
1588332621.59375,-134.48,,,2084486.0
1588332621.609375,-130.13,,,2085066.0
1588332621.625,-128.73,,,2086058.0
1588332621.640625,-129.52,,,2086585.0
1588332621.65625,-131.76,,,2087314.0
1588332621.671875,-134.87,,,2088110.0
1588332621.6875,-138.46,,,2089129.0
1588332621.703125,-142.15,,,2089984.0
1588332621.71875,-145.65,,,2090803.0
1588332621.734375,-148.86,,,2089354.0
1588332621.75,-152.11,,,2085926.0
1588332621.765625,-156.32,,,2082732.0
1588332621.78125,-162.59,,,2080400.0
1588332621.796875,-171.65,,,2078041.0
1588332621.8125,-183.05,,,2076849.0
1588332621.828125,-194.68,,,2076366.0
1588332621.84375,-202.98,,,2075992.0
1588332621.859375,-203.9,,,2075467.0
1588332621.875,-194.21,,,2075202.0
1588332621.890625,-172.5,,,2075571.0
1588332621.90625,-139.56,,,2075808.0
1588332621.921875,-97.96,,,2076742.0
1588332621.9375,-51.25,,,2077695.0
1588332621.953125,-3.14,,,2078970.0
1588332621.96875,42.92,,,2079973.0
1588332621.984375,83.95,,,2080957.0
1588332622.0,117.63,,,2081811.0
1588332622.015625,142.53,,,2083168.0
1588332622.03125,158.35,,,2084433.0
1588332622.046875,166.09,,,2084601.0
1588332622.0625,167.66,,,2082106.0
1588332622.078125,165.33,,,2079006.0
1588332622.09375,161.1,,,2076741.0
1588332622.109375,156.29,,,2074489.0
1588332622.125,151.59,,,2073111.0
1588332622.140625,147.25,,,2072931.0
1588332622.15625,143.32,,,2072493.0
1588332622.171875,139.73,,,2072243.0
1588332622.1875,136.31,,,2071953.0
1588332622.203125,132.83,,,2072060.0
1588332622.21875,129.06,,,2072358.0
1588332622.234375,124.9,,,2073198.0
1588332622.25,120.42,,,2073767.0
1588332622.265625,115.71,,,2074509.0
1588332622.28125,110.69,,,2075394.0
1588332622.296875,105.08,,,2076334.0
1588332622.3125,98.4,,,2077352.0
1588332622.328125,90.25,,,2078407.0
1588332622.34375,80.57,,,2079656.0
1588332622.359375,69.75,,,2080485.0
1588332622.375,58.56,,,2078625.0
1588332622.390625,47.76,,,2074845.0
1588332622.40625,37.74,,,2071573.0
1588332622.421875,28.29,,,2069091.0
1588332622.4375,18.7,,,2066827.0
1588332622.453125,8.13,,,2065275.0
1588332622.46875,-3.91,,,2064824.0
1588332622.484375,-17.24,,,2064289.0
1588332622.5,-31.04,,,2063582.0
1588332622.515625,-44.11,,,2063306.0
1588332622.53125,-55.39,,,2063632.0
1588332622.546875,-64.3,,,2063851.0
1588332622.5625,-70.99,,,2064580.0
1588332622.578125,-76.26,,,2065326.0
1588332622.59375,-81.37,,,2066251.0
1588332622.609375,-87.75,,,2067128.0
1588332622.625,-96.71,,,2068292.0
1588332622.640625,-108.95,,,2069354.0
1588332622.65625,-124.01,,,2070492.0
1588332622.671875,-139.74,,,2071520.0
1588332622.6875,-152.39,,,2071360.0
1588332622.703125,-157.4,,,2068031.0
1588332622.71875,-150.84,,,2064551.0
1588332622.734375,-131.06,,,2061395.0
1588332622.75,-99.6,,,2058874.0
1588332622.765625,-60.93,,,2056580.0
1588332622.78125,-21.04,,,2055181.0
1588332622.796875,14.7,,,2054752.0
1588332622.8125,43.1,,,2054185.0
1588332622.828125,63.79,,,2053525.0
1588332622.84375,78.49,,,2053749.0
1588332622.859375,89.74,,,2054078.0
1588332622.875,99.52,,,2054615.0
1588332622.890625,108.67,,,2055371.0
1588332622.90625,117.02,,,2056088.0
1588332622.921875,124.06,,,2057212.0
1588332622.9375,129.41,,,2058201.0
1588332622.953125,133.18,,,2059379.0
1588332622.96875,135.78,,,2060406.0
1588332622.984375,137.64,,,2061680.0
1588332623.0,138.93,,,2063292.0
1588332623.015625,139.55,,,2063291.0
1588332623.03125,139.26,,,2060649.0
1588332623.046875,137.95,,,2057058.0
1588332623.0625,135.83,,,2054240.0
1588332623.078125,133.39,,,2051797.0
1588332623.09375,131.2,,,2049656.0
1588332623.109375,129.64,,,2048305.0
1588332623.125,128.69,,,2048123.0
1588332623.140625,127.91,,,2047654.0
1588332623.15625,126.61,,,2047361.0
1588332623.171875,124.18,,,2047158.0
1588332623.1875,120.38,,,2047430.0
1588332623.203125,115.38,,,2048233.0
1588332623.21875,109.79,,,2048847.0
1588332623.234375,104.4,,,2049985.0
1588332623.25,99.96,,,2050924.0
1588332623.265625,96.97,,,2051765.0
1588332623.28125,95.57,,,2053000.0
1588332623.296875,95.47,,,2054230.0
1588332623.3125,96.09,,,2055478.0
1588332623.328125,96.65,,,2056917.0
1588332623.34375,96.4,,,2058368.0
1588332623.359375,94.88,,,2059469.0
1588332623.375,92.06,,,2058074.0
1588332623.390625,88.37,,,2054656.0
1588332623.40625,84.51,,,2051367.0
1588332623.421875,81.0,,,2048899.0
1588332623.4375,77.93,,,2047022.0
1588332623.453125,74.84,,,2045500.0
1588332623.46875,70.91,,,2045162.0
1588332623.484375,65.25,,,2044762.0
1588332623.5,57.24,,,2044402.0
1588332623.515625,46.75,,,2044299.0
1588332623.53125,34.33,,,2044769.0
1588332623.546875,21.25,,,2045353.0
1588332623.5625,9.45,,,2046364.0
1588332623.578125,1.21,,,2047143.0
1588332623.59375,-1.43,,,2048089.0
1588332623.609375,2.58,,,2049359.0
1588332623.625,12.74,,,2050577.0
1588332623.640625,26.91,,,2051470.0
1588332623.65625,41.78,,,2052967.0
1588332623.671875,53.81,,,2054416.0
1588332623.6875,60.38,,,2055735.0
1588332623.703125,60.58,,,2055209.0
1588332623.71875,55.4,,,2052140.0
1588332623.734375,47.22,,,2049001.0
1588332623.75,38.79,,,2046783.0
1588332623.765625,32.2,,,2044950.0
1588332623.78125,28.23,,,2043764.0
1588332623.796875,26.26,,,2043508.0
1588332623.8125,24.81,,,2043757.0
1588332623.828125,22.36,,,2043516.0
1588332623.84375,17.91,,,2043579.0
1588332623.859375,11.19,,,2043694.0
1588332623.875,2.39,,,2044429.0
1588332623.890625,-8.39,,,2045240.0
1588332623.90625,-21.25,,,2046284.0
1588332623.921875,-36.53,,,2047528.0
1588332623.9375,-54.33,,,2048655.0
1588332623.953125,-74.3,,,2049998.0
1588332623.96875,-95.62,,,2050894.0
1588332623.984375,-117.27,,,2052217.0
1588332624.0,-138.4,,,2053776.0
1588332624.015625,-158.59,,,2053402.0
1588332624.03125,-177.75,,,2050441.0
1588332624.046875,-195.92,,,2047095.0
1588332624.0625,-213.04,,,2044666.0
1588332624.078125,-228.76,,,2042828.0
1588332624.09375,-242.4,,,2041522.0
1588332624.109375,-252.84,,,2041258.0
1588332624.125,-258.81,,,2040925.0
1588332624.140625,-259.13,,,2040783.0
1588332624.15625,-253.23,,,2040674.0
1588332624.171875,-241.7,,,2040753.0
1588332624.1875,-226.37,,,2041406.0
1588332624.203125,-210.01,,,2042210.0
1588332624.21875,-195.47,,,2043343.0
1588332624.234375,-184.74,,,2044282.0
1588332624.25,-178.31,,,2045356.0
1588332624.265625,-175.21,,,2046196.0
1588332624.28125,-173.59,,,2047381.0
1588332624.296875,-171.56,,,2048375.0
1588332624.3125,-168.05,,,2049797.0
1588332624.328125,-163.06,,,2050927.0
1588332624.34375,-157.66,,,2051320.0
1588332624.359375,-153.49,,,2048497.0
1588332624.375,-152.26,,,2044750.0
1588332624.390625,-155.12,,,2041336.0
1588332624.40625,-162.07,,,2038518.0
1588332624.421875,-171.62,,,2036223.0
1588332624.4375,-180.77,,,2034824.0
1588332624.453125,-185.55,,,2034286.0
1588332624.46875,-182.06,,,2033924.0
1588332624.484375,-167.47,,,2033601.0
1588332624.5,-140.96,,,2033317.0
1588332624.515625,-103.99,,,2033804.0
1588332624.53125,-60.05,,,2034283.0
1588332624.546875,-13.91,,,2035140.0
1588332624.5625,29.4,,,2036073.0
1588332624.578125,65.72,,,2037052.0
1588332624.59375,92.55,,,2038198.0
1588332624.609375,109.52,,,2039331.0
1588332624.625,118.1,,,2040447.0
1588332624.640625,120.83,,,2041920.0
1588332624.65625,120.18,,,2043209.0
1588332624.671875,117.81,,,2043390.0
1588332624.6875,114.29,,,2040098.0
1588332624.703125,109.53,,,2036433.0
1588332624.71875,103.45,,,2033701.0
1588332624.734375,96.43,,,2031448.0
1588332624.75,89.36,,,2029722.0
1588332624.765625,83.13,,,2028895.0
1588332624.78125,78.18,,,2028866.0
1588332624.796875,74.32,,,2028626.0
1588332624.8125,71.01,,,2028817.0
1588332624.828125,67.72,,,2028864.0
1588332624.84375,64.31,,,2029654.0
1588332624.859375,60.87,,,2030538.0
1588332624.875,57.5,,,2031936.0
1588332624.890625,53.97,,,2033780.0
1588332624.90625,49.72,,,2035442.0
1588332624.921875,44.11,,,2037225.0
1588332624.9375,36.82,,,2038796.0
1588332624.953125,28.15,,,2041001.0
1588332624.96875,19.0,,,2043385.0
1588332624.984375,10.53,,,2045938.0
1588332625.0,3.56,,,2049001.0
1588332625.015625,-1.76,,,2050635.0
1588332625.03125,-6.18,,,2049641.0
1588332625.046875,-10.93,,,2049426.0
1588332625.0625,-17.21,,,2050596.0
1588332625.078125,-25.57,,,2051615.0
1588332625.09375,-35.64,,,2055174.0
1588332625.109375,-46.25,,,2062552.0
1588332625.125,-55.96,,,2066646.0
1588332625.140625,-63.69,,,2069151.0
1588332625.15625,-69.28,,,2070547.0
1588332625.171875,-73.59,,,2071685.0
1588332625.1875,-78.29,,,2072025.0
1588332625.203125,-85.4,,,2072122.0
1588332625.21875,-96.6,,,2072042.0
1588332625.234375,-112.43,,,2072099.0
1588332625.25,-131.77,,,2072329.0
1588332625.265625,-151.53,,,2072714.0
1588332625.28125,-167.1,,,2073271.0
1588332625.296875,-173.39,,,2073802.0
1588332625.3125,-166.45,,,2073866.0
1588332625.328125,-144.89,,,2074031.0
1588332625.34375,-110.59,,,2073915.0
1588332625.359375,-68.25,,,2070750.0
1588332625.375,-23.89,,,2065866.0
1588332625.390625,17.03,,,2061830.0
1588332625.40625,51.15,,,2058702.0
1588332625.421875,77.65,,,2056359.0
1588332625.4375,97.69,,,2054967.0
1588332625.453125,113.22,,,2053964.0
1588332625.46875,125.85,,,2053082.0
1588332625.484375,136.25,,,2051929.0
1588332625.5,144.37,,,2051390.0
1588332625.515625,149.92,,,2050988.0
1588332625.53125,152.95,,,2051358.0
1588332625.546875,153.98,,,2051917.0
1588332625.5625,153.81,,,2052759.0
1588332625.578125,153.15,,,2052995.0
1588332625.59375,152.26,,,2053584.0
1588332625.609375,150.99,,,2054379.0
1588332625.625,149.01,,,2055527.0
1588332625.640625,146.22,,,2055859.0
1588332625.65625,142.92,,,2053238.0
1588332625.671875,139.74,,,2049049.0
1588332625.6875,137.27,,,2045351.0
1588332625.703125,135.73,,,2042256.0
1588332625.71875,134.69,,,2039777.0
1588332625.734375,133.2,,,2038236.0
1588332625.75,130.11,,,2037699.0
1588332625.765625,124.62,,,2037005.0
1588332625.78125,116.62,,,2036392.0
1588332625.796875,106.8,,,2036190.0
1588332625.8125,96.41,,,2036543.0
1588332625.828125,86.77,,,2036861.0
1588332625.84375,78.69,,,2037683.0
1588332625.859375,72.11,,,2038414.0
1588332625.875,66.15,,,2039457.0
1588332625.890625,59.48,,,2040503.0
1588332625.90625,50.96,,,2041692.0
1588332625.921875,40.21,,,2043083.0
1588332625.9375,27.82,,,2043912.0
1588332625.953125,15.12,,,2041379.0
1588332625.96875,3.58,,,2037220.0
1588332625.984375,-5.87,,,2030568.0
1588332626.0,-13.24,,,2033689.0
1588332626.015625,-19.52,,,2028149.0
1588332626.03125,-26.32,,,2026389.0
1588332626.046875,-35.35,,,2025705.0
1588332626.0625,-47.84,,,2025247.0
1588332626.078125,-64.05,,,2024489.0
1588332626.09375,-82.94,,,2024814.0
1588332626.109375,-102.03,,,2024871.0
1588332626.125,-117.7,,,2025369.0
1588332626.140625,-125.98,,,2026044.0
1588332626.15625,-123.61,,,2027069.0
1588332626.171875,-109.26,,,2028030.0
1588332626.1875,-84.09,,,2029154.0
1588332626.203125,-51.67,,,2030170.0
1588332626.21875,-16.78,,,2031344.0
1588332626.234375,16.09,,,2032857.0
1588332626.25,44.04,,,2034167.0
1588332626.265625,66.35,,,2031392.0
1588332626.28125,83.99,,,2034561.0
1588332626.296875,98.67,,,2024117.0
1588332626.3125,111.79,,,2027408.0
1588332626.328125,123.85,,,2021310.0
1588332626.34375,134.63,,,2017540.0
1588332626.359375,143.55,,,2018568.0
1588332626.375,150.28,,,2017259.0
1588332626.390625,154.94,,,2017011.0
1588332626.40625,157.97,,,2016546.0
1588332626.421875,159.87,,,2017231.0
1588332626.4375,160.89,,,2018094.0
1588332626.453125,161.05,,,2016770.0
1588332626.46875,160.24,,,2019179.0
1588332626.484375,158.51,,,2020208.0
1588332626.5,156.09,,,2021334.0
1588332626.515625,153.35,,,2023968.0
1588332626.53125,150.44,,,2022501.0
1588332626.546875,147.07,,,2025398.0
1588332626.5625,142.46,,,2026685.0
1588332626.578125,135.59,,,2028329.0
1588332626.59375,125.66,,,2027181.0
1588332626.609375,112.46,,,2023307.0
1588332626.625,96.64,,,2019779.0
1588332626.640625,79.5,,,2017204.0
1588332626.65625,62.58,,,2015010.0
1588332626.671875,47.28,,,2013831.0
1588332626.6875,34.46,,,2013821.0
1588332626.703125,24.22,,,2013749.0
1588332626.71875,15.96,,,2013820.0
1588332626.734375,8.6,,,2013986.0
1588332626.75,0.92,,,2014608.0
1588332626.765625,-7.91,,,2015381.0
1588332626.78125,-17.99,,,2016848.0
1588332626.796875,-28.55,,,2018168.0
1588332626.8125,-38.06,,,2020024.0
1588332626.828125,-44.76,,,2022313.0
1588332626.84375,-47.18,,,2024060.0
1588332626.859375,-44.82,,,2025752.0
1588332626.875,-38.57,,,2027723.0
1588332626.890625,-30.77,,,2028660.0
1588332626.90625,-24.9,,,2025911.0
1588332626.921875,-24.74,,,2022510.0
1588332626.9375,-33.49,,,2019983.0
1588332626.953125,-53.06,,,2018243.0
1588332626.96875,-83.82,,,2017080.0
1588332626.984375,-124.79,,,2016919.0
1588332627.0,-173.9,,,2017266.0
1588332627.015625,-228.11,,,2017476.0
1588332627.03125,-283.42,,,2017699.0
1588332627.046875,-335.05,,,2018140.0
1588332627.0625,-378.16,,,2019095.0
1588332627.078125,-408.96,,,2020524.0
1588332627.09375,-425.88,,,2021947.0
1588332627.109375,-429.97,,,2023146.0
1588332627.125,-424.13,,,2024742.0
1588332627.140625,-411.59,,,2026217.0
1588332627.15625,-394.42,,,2027579.0
1588332627.171875,-372.87,,,2029477.0
1588332627.1875,-345.96,,,2031102.0
1588332627.203125,-312.54,,,2032415.0
1588332627.21875,-272.36,,,2030354.0
1588332627.234375,-226.33,,,2026742.0
1588332627.25,-176.39,,,2024191.0
1588332627.265625,-125.11,,,2022248.0
1588332627.28125,-75.48,,,2020637.0
1588332627.296875,-30.83,,,2019789.0
1588332627.3125,5.5,,,2020198.0
1588332627.328125,31.01,,,2020489.0
1588332627.34375,44.89,,,2020787.0
1588332627.359375,48.43,,,2021312.0
1588332627.375,44.78,,,2022180.0
1588332627.390625,37.94,,,2023292.0
1588332627.40625,31.5,,,2024777.0
1588332627.421875,27.92,,,2026445.0
1588332627.4375,28.36,,,2027994.0
1588332627.453125,33.0,,,2029556.0
1588332627.46875,41.41,,,2031248.0
1588332627.484375,52.72,,,2032800.0
1588332627.5,65.65,,,2034636.0
1588332627.515625,78.6,,,2035148.0
1588332627.53125,89.88,,,2032619.0
1588332627.546875,98.19,,,2030200.0
1588332627.5625,102.89,,,2027850.0
1588332627.578125,104.04,,,2026528.0
1588332627.59375,102.18,,,2025614.0
1588332627.609375,98.05,,,2025464.0
1588332627.625,92.3,,,2025918.0
1588332627.640625,85.53,,,2026218.0
1588332627.65625,78.22,,,2026739.0
1588332627.671875,70.92,,,2027732.0
1588332627.6875,64.02,,,2028677.0
1588332627.703125,57.68,,,2029904.0
1588332627.71875,51.74,,,2031499.0
1588332627.734375,45.69,,,2032984.0
1588332627.75,38.98,,,2034450.0
1588332627.765625,31.18,,,2036158.0
1588332627.78125,22.26,,,2037961.0
1588332627.796875,12.56,,,2039605.0
1588332627.8125,2.75,,,2041393.0
1588332627.828125,-6.54,,,2043251.0
1588332627.84375,-14.94,,,2043925.0
1588332627.859375,-22.52,,,2042170.0
1588332627.875,-29.84,,,2039931.0
1588332627.890625,-37.8,,,2038122.0
1588332627.90625,-47.49,,,2036884.0
1588332627.921875,-59.77,,,2036289.0
1588332627.9375,-74.77,,,2036264.0
1588332627.953125,-91.32,,,2036683.0
1588332627.96875,-106.77,,,2037039.0
1588332627.984375,-117.38,,,2037795.0
1588332628.0,-119.35,,,2038483.0
1588332628.015625,-110.28,,,2039588.0
1588332628.03125,-90.14,,,2040948.0
1588332628.046875,-61.58,,,2042280.0
1588332628.0625,-29.02,,,2043692.0
1588332628.078125,2.89,,,2045274.0
1588332628.09375,30.69,,,2046801.0
1588332628.109375,52.9,,,2048570.0
1588332628.125,69.78,,,2049977.0
1588332628.140625,82.53,,,2051713.0
1588332628.15625,92.33,,,2053541.0
1588332628.171875,99.89,,,2055249.0
1588332628.1875,105.37,,,2054682.0
1588332628.203125,108.76,,,2052781.0
1588332628.21875,110.23,,,2051315.0
1588332628.234375,110.2,,,2050509.0
1588332628.25,109.24,,,2049836.0
1588332628.265625,107.8,,,2049772.0
1588332628.28125,106.11,,,2050567.0
1588332628.296875,104.08,,,2051117.0
1588332628.3125,101.53,,,2051812.0
1588332628.328125,98.34,,,2052477.0
1588332628.34375,94.77,,,2053573.0
1588332628.359375,91.32,,,2054800.0
1588332628.375,88.69,,,2056348.0
1588332628.390625,87.33,,,2057637.0
1588332628.40625,87.18,,,2059133.0
1588332628.421875,87.56,,,2060595.0
1588332628.4375,87.34,,,2062253.0
1588332628.453125,85.4,,,2063724.0
1588332628.46875,81.14,,,2065652.0
1588332628.484375,74.76,,,2066587.0
1588332628.5,67.21,,,2065671.0
1588332628.515625,59.89,,,2064037.0
1588332628.53125,53.95,,,2063135.0
1588332628.546875,49.92,,,2062582.0
1588332628.5625,47.45,,,2062664.0
1588332628.578125,45.51,,,2063452.0
1588332628.59375,42.87,,,2064067.0
1588332628.609375,38.68,,,2064948.0
1588332628.625,32.88,,,2065581.0
1588332628.640625,26.2,,,2066418.0
1588332628.65625,19.87,,,2067520.0
1588332628.671875,15.12,,,2068847.0
1588332628.6875,12.61,,,2070329.0
1588332628.703125,12.2,,,2071807.0
1588332628.71875,12.95,,,2073133.0
1588332628.734375,13.4,,,2074684.0
1588332628.75,12.05,,,2076185.0
1588332628.765625,7.74,,,2077229.0
1588332628.78125,0.21,,,2076432.0
1588332628.796875,-9.51,,,2075422.0
1588332628.8125,-18.92,,,2075074.0
1588332628.828125,-24.4,,,2074944.0
1588332628.84375,-22.06,,,2075212.0
1588332628.859375,-9.09,,,2076142.0
1588332628.875,15.13,,,2076951.0
1588332628.890625,48.61,,,2077381.0
1588332628.90625,87.27,,,2077990.0
1588332628.921875,126.27,,,2078685.0
1588332628.9375,161.58,,,2079710.0
1588332628.953125,191.03,,,2081046.0
1588332628.96875,214.42,,,2082238.0
1588332628.984375,232.84,,,2083511.0
1588332629.0,247.5,,,2084802.0
1588332629.015625,258.74,,,2085939.0
1588332629.03125,265.67,,,2087428.0
1588332629.046875,266.42,,,2087516.0
1588332629.0625,258.86,,,2086342.0
1588332629.078125,241.61,,,2085393.0
1588332629.09375,214.75,,,2085021.0
1588332629.109375,180.23,,,2085189.0
1588332629.125,141.65,,,2085893.0
1588332629.140625,103.4,,,2086497.0
1588332629.15625,69.46,,,2087203.0
1588332629.171875,42.41,,,2087651.0
1588332629.1875,22.77,,,2088446.0
1588332629.203125,9.3,,,2089357.0
1588332629.21875,-0.29,,,2090392.0
1588332629.234375,-8.18,,,2091588.0
1588332629.25,-15.75,,,2092706.0
1588332629.265625,-23.28,,,2093935.0
1588332629.28125,-30.38,,,2095276.0
1588332629.296875,-36.61,,,2096753.0
1588332629.3125,-42.0,,,2097457.0
1588332629.328125,-47.13,,,2096794.0
1588332629.34375,-52.71,,,2095598.0
1588332629.359375,-59.04,,,2094515.0
1588332629.375,-65.74,,,2094001.0
1588332629.390625,-72.14,,,2093747.0
1588332629.40625,-77.9,,,2093878.0
1588332629.421875,-83.43,,,2094322.0
1588332629.4375,-89.6,,,2094991.0
1588332629.453125,-96.58,,,2095172.0
1588332629.46875,-102.85,,,2096109.0
1588332629.484375,-105.23,,,2096724.0
1588332629.5,-100.28,,,2097700.0
1588332629.515625,-86.65,,,2098884.0
1588332629.53125,-66.77,,,2099948.0
1588332629.546875,-46.8,,,2100901.0
1588332629.5625,-34.51,,,2101894.0
1588332629.578125,-36.34,,,2103215.0
1588332629.59375,-55.11,,,2104331.0
1588332629.609375,-89.8,,,2105518.0
1588332629.625,-137.02,,,2106668.0
1588332629.640625,-193.05,,,2107680.0
1588332629.65625,-254.81,,,2106884.0
1588332629.671875,-319.28,,,2105161.0
1588332629.6875,-382.06,,,2103590.0
1588332629.703125,-436.78,,,2102453.0
1588332629.71875,-476.1,,,2101387.0
1588332629.734375,-494.08,,,2101122.0
1588332629.75,-488.66,,,2101379.0
1588332629.765625,-462.53,,,2101478.0
1588332629.78125,-421.95,,,2101789.0
1588332629.796875,-374.2,,,2102075.0
1588332629.8125,-324.83,,,2102691.0
1588332629.828125,-276.26,,,2103426.0
1588332629.84375,-228.02,,,2104135.0
1588332629.859375,-178.45,,,2105019.0
1588332629.875,-126.75,,,2105860.0
1588332629.890625,-74.26,,,2106863.0
1588332629.90625,-24.45,,,2108040.0
1588332629.921875,18.39,,,2108914.0
1588332629.9375,50.89,,,2110145.0
1588332629.953125,72.09,,,2111324.0
1588332629.96875,83.78,,,2111996.0
1588332629.984375,89.64,,,2110819.0
1588332630.0,93.53,,,2109333.0
1588332630.015625,97.96,,,2106926.0
1588332630.03125,103.4,,,2107868.0
1588332630.046875,108.69,,,2106221.0
1588332630.0625,112.27,,,2105910.0
1588332630.078125,113.28,,,2106292.0
1588332630.09375,112.07,,,2106559.0
1588332630.109375,109.72,,,2106441.0
1588332630.125,107.2,,,2107037.0
1588332630.140625,104.72,,,2107529.0
1588332630.15625,101.62,,,2108344.0
1588332630.171875,97.0,,,2109912.0
1588332630.1875,90.39,,,2111921.0
1588332630.203125,82.12,,,2111059.0
1588332630.21875,73.15,,,2108979.0
1588332630.234375,64.59,,,2112976.0
1588332630.25,57.04,,,2115474.0
1588332630.265625,50.41,,,2118681.0
1588332630.28125,43.97,,,2113966.0
1588332630.296875,36.9,,,2117059.0
1588332630.3125,28.74,,,2118539.0
1588332630.328125,19.6,,,2118645.0
1588332630.34375,10.09,,,2117755.0
1588332630.359375,0.96,,,2116922.0
1588332630.375,-7.32,,,2116886.0
1588332630.390625,-14.86,,,2117503.0
1588332630.40625,-22.38,,,2118663.0
1588332630.421875,-31.08,,,2121383.0
1588332630.4375,-42.15,,,2124402.0
1588332630.453125,-56.14,,,2128938.0
1588332630.46875,-72.29,,,2135384.0
1588332630.484375,-88.2,,,2139556.0
1588332630.5,-100.23,,,2141199.0
1588332630.515625,-104.44,,,2142591.0
1588332630.53125,-98.11,,,2143939.0
1588332630.546875,-80.87,,,2144929.0
1588332630.5625,-55.12,,,2145688.0
1588332630.578125,-25.23,,,2146662.0
1588332630.59375,3.97,,,2147714.0
1588332630.609375,28.76,,,2148839.0
1588332630.625,47.54,,,2149818.0
1588332630.640625,60.79,,,2150972.0
1588332630.65625,70.24,,,2151203.0
1588332630.671875,77.74,,,2149825.0
1588332630.6875,84.42,,,2147889.0
1588332630.703125,90.51,,,2146634.0
1588332630.71875,95.58,,,2145781.0
1588332630.734375,99.1,,,2145587.0
1588332630.75,100.81,,,2145381.0
1588332630.765625,100.93,,,2145612.0
1588332630.78125,99.97,,,2146204.0
1588332630.796875,98.52,,,2146445.0
1588332630.8125,96.93,,,2147053.0
1588332630.828125,95.25,,,2147749.0
1588332630.84375,93.3,,,2148233.0
1588332630.859375,90.94,,,2148643.0
1588332630.875,88.22,,,2148666.0
1588332630.890625,85.51,,,2148991.0
1588332630.90625,83.33,,,2149447.0
1588332630.921875,82.01,,,2149812.0
1588332630.9375,81.4,,,2150517.0
1588332630.953125,80.86,,,2151262.0
1588332630.96875,79.4,,,2152259.0
1588332630.984375,76.19,,,2152929.0
1588332631.0,70.93,,,2152394.0
1588332631.015625,64.02,,,2151233.0
1588332631.03125,56.52,,,2150209.0
1588332631.046875,49.71,,,2149417.0
1588332631.0625,44.59,,,2148895.0
1588332631.078125,41.53,,,2148608.0
1588332631.09375,40.08,,,2149025.0
1588332631.109375,39.14,,,2148964.0
1588332631.125,37.46,,,2149037.0
1588332631.140625,34.2,,,2149199.0
1588332631.15625,29.23,,,2149798.0
1588332631.171875,23.27,,,2150361.0
1588332631.1875,17.46,,,2151071.0
1588332631.203125,12.88,,,2152039.0
1588332631.21875,9.98,,,2152723.0
1588332631.234375,8.43,,,2153787.0
1588332631.25,7.26,,,2154654.0
1588332631.265625,5.18,,,2155414.0
1588332631.28125,0.97,,,2156382.0
1588332631.296875,-6.24,,,2157289.0
1588332631.3125,-16.78,,,2158046.0
1588332631.328125,-30.11,,,2159129.0
1588332631.34375,-44.57,,,2159942.0
1588332631.359375,-57.32,,,2159243.0
1588332631.375,-64.93,,,2158050.0
1588332631.390625,-64.28,,,2157427.0
1588332631.40625,-53.84,,,2156855.0
1588332631.421875,-34.44,,,2156726.0
1588332631.4375,-9.13,,,2156744.0
1588332631.453125,17.91,,,2156851.0
1588332631.46875,42.87,,,2156939.0
1588332631.484375,63.5,,,2157005.0
1588332631.5,79.5,,,2157463.0
1588332631.515625,91.98,,,2158030.0
1588332631.53125,102.38,,,2158895.0
1588332631.546875,111.54,,,2159951.0
1588332631.5625,119.4,,,2161395.0
1588332631.578125,125.28,,,2161926.0
1588332631.59375,128.51,,,2162980.0
1588332631.609375,128.95,,,2159655.0
1588332631.625,127.15,,,2158726.0
1588332631.640625,124.07,,,2160907.0
1588332631.65625,120.62,,,2163693.0
1588332631.671875,117.17,,,2164381.0
1588332631.6875,113.38,,,2165336.0
1588332631.703125,108.49,,,2165280.0
1588332631.71875,101.7,,,2162987.0
1588332631.734375,92.71,,,2164114.0
1588332631.75,81.98,,,2162016.0
1588332631.765625,70.55,,,2161434.0
1588332631.78125,59.53,,,2160450.0
1588332631.796875,49.53,,,2160705.0
1588332631.8125,40.33,,,2160437.0
1588332631.828125,31.06,,,2160254.0
1588332631.84375,20.84,,,2160377.0
1588332631.859375,9.24,,,2160561.0
1588332631.875,-3.41,,,2160658.0
1588332631.890625,-16.34,,,2161449.0
1588332631.90625,-28.71,,,2161992.0
1588332631.921875,-39.7,,,2162364.0
1588332631.9375,-48.28,,,2163131.0
1588332631.953125,-52.87,,,2163746.0
1588332631.96875,-51.76,,,2164272.0
1588332631.984375,-43.97,,,2165874.0
1588332632.0,-30.65,,,2166160.0
1588332632.015625,-15.66,,,2165084.0
1588332632.03125,-4.94,,,2161081.0
1588332632.046875,-4.61,,,2165016.0
1588332632.0625,-18.85,,,2163514.0
1588332632.078125,-48.74,,,2161477.0
1588332632.09375,-92.44,,,2160192.0
1588332632.109375,-146.52,,,2162242.0
1588332632.125,-207.19,,,2160507.0
1588332632.140625,-270.59,,,2160120.0
1588332632.15625,-332.39,,,2159920.0
1588332632.171875,-387.38,,,2159457.0
1588332632.1875,-429.88,,,2159714.0
1588332632.203125,-455.27,,,2160345.0
1588332632.21875,-461.61,,,2160817.0
1588332632.234375,-450.4,,,2162021.0
1588332632.25,-425.86,,,2164366.0
1588332632.265625,-393.15,,,2166790.0
1588332632.28125,-356.46,,,2168578.0
1588332632.296875,-318.04,,,2170452.0
1588332632.3125,-278.38,,,2172307.0
1588332632.328125,-236.94,,,2174064.0
1588332632.34375,-193.1,,,2175851.0
1588332632.359375,-146.71,,,2176319.0
1588332632.375,-98.27,,,2178134.0
1588332632.390625,-49.07,,,2181862.0
1588332632.40625,-1.14,,,2183804.0
1588332632.421875,42.98,,,2184629.0
1588332632.4375,80.77,,,2184590.0
1588332632.453125,110.47,,,2184799.0
1588332632.46875,131.54,,,2184561.0
1588332632.484375,144.78,,,2184059.0
1588332632.5,151.82,,,2183213.0
1588332632.515625,154.46,,,2182420.0
1588332632.53125,154.14,,,2182467.0
1588332632.546875,151.78,,,2182446.0
1588332632.5625,148.1,,,2182809.0
1588332632.578125,143.68,,,2182930.0
1588332632.59375,139.18,,,2183142.0
1588332632.609375,135.08,,,2183458.0
1588332632.625,131.52,,,2183596.0
1588332632.640625,128.24,,,2183938.0
1588332632.65625,124.7,,,2184598.0
1588332632.671875,120.43,,,2185100.0
1588332632.6875,115.14,,,2184290.0
1588332632.703125,108.83,,,2182188.0
1588332632.71875,101.71,,,2179915.0
1588332632.734375,94.07,,,2178145.0
1588332632.75,86.21,,,2176420.0
1588332632.765625,78.43,,,2175178.0
1588332632.78125,70.9,,,2174514.0
1588332632.796875,63.66,,,2173642.0
1588332632.8125,56.56,,,2172831.0
1588332632.828125,49.31,,,2172173.0
1588332632.84375,41.61,,,2172015.0
1588332632.859375,33.34,,,2171944.0
1588332632.875,24.62,,,2172270.0
1588332632.890625,15.81,,,2172556.0
1588332632.90625,7.34,,,2172903.0
1588332632.921875,-0.42,,,2173167.0
1588332632.9375,-7.38,,,2173444.0
1588332632.953125,-13.73,,,2174013.0
1588332632.96875,-19.88,,,2174378.0
1588332632.984375,-26.35,,,2174333.0
1588332633.0,-33.68,,,2172046.0
1588332633.015625,-42.36,,,2168930.0
1588332633.03125,-52.67,,,2166432.0
1588332633.046875,-64.51,,,2164241.0
1588332633.0625,-76.97,,,2162234.0
1588332633.078125,-88.25,,,2160809.0
1588332633.09375,-95.79,,,2159923.0
1588332633.109375,-96.98,,,2159156.0
1588332633.125,-90.09,,,2158273.0
1588332633.140625,-75.05,,,2157485.0
1588332633.15625,-53.71,,,2157223.0
1588332633.171875,-29.29,,,2157254.0
1588332633.1875,-5.32,,,2157281.0
1588332633.203125,15.47,,,2157702.0
1588332633.21875,31.85,,,2157890.0
1588332633.234375,44.05,,,2158371.0
1588332633.25,53.12,,,2158670.0
1588332633.265625,60.24,,,2158987.0
1588332633.28125,66.15,,,2159565.0
1588332633.296875,70.99,,,2160264.0
1588332633.3125,74.59,,,2160597.0
1588332633.328125,76.81,,,2157946.0
1588332633.34375,77.75,,,2154296.0
1588332633.359375,77.8,,,2151020.0
1588332633.375,77.49,,,2148067.0
1588332633.390625,77.32,,,2145306.0
1588332633.40625,77.57,,,2143385.0
1588332633.421875,78.33,,,2142099.0
1588332633.4375,79.53,,,2140992.0
1588332633.453125,81.04,,,2139843.0
1588332633.46875,82.76,,,2139283.0
1588332633.484375,84.52,,,2138700.0
1588332633.5,86.07,,,2138424.0
1588332633.515625,86.98,,,2138409.0
1588332633.53125,86.74,,,2138538.0
1588332633.546875,84.95,,,2138710.0
1588332633.5625,81.54,,,2139018.0
1588332633.578125,76.95,,,2139282.0
1588332633.59375,72.08,,,2139671.0
1588332633.609375,67.86,,,2140159.0
1588332633.625,64.92,,,2140651.0
1588332633.640625,63.17,,,2141280.0
1588332633.65625,61.78,,,2141969.0
1588332633.671875,59.47,,,2139558.0
1588332633.6875,55.01,,,2135187.0
1588332633.703125,47.81,,,2131445.0
1588332633.71875,38.11,,,2128205.0
1588332633.734375,26.88,,,2125238.0
1588332633.75,15.36,,,2123162.0
1588332633.765625,4.59,,,2121930.0
1588332633.78125,-5.01,,,2120808.0
1588332633.796875,-13.89,,,2119474.0
1588332633.8125,-23.16,,,2118843.0
1588332633.828125,-34.27,,,2118257.0
1588332633.84375,-48.35,,,2118217.0
1588332633.859375,-65.5,,,2118227.0
1588332633.875,-84.26,,,2118682.0
1588332633.890625,-101.55,,,2118848.0
1588332633.90625,-113.36,,,2119402.0
1588332633.921875,-116.03,,,2119744.0
1588332633.9375,-107.66,,,2120550.0
1588332633.953125,-89.01,,,2121105.0
1588332633.96875,-63.3,,,2121680.0
1588332633.984375,-35.08,,,2121113.0
1588332634.0,-8.57,,,2117400.0
1588332634.015625,13.69,,,2113255.0
1588332634.03125,31.26,,,2110204.0
1588332634.046875,45.21,,,2107345.0
1588332634.0625,57.13,,,2105138.0
1588332634.078125,68.09,,,2103780.0
1588332634.09375,78.31,,,2103179.0
1588332634.109375,87.4,,,2102371.0
1588332634.125,94.85,,,2101747.0
1588332634.140625,100.42,,,2101345.0
1588332634.15625,104.23,,,2101519.0
1588332634.171875,106.55,,,2102054.0
1588332634.1875,107.52,,,2102255.0
1588332634.203125,107.14,,,2103215.0
1588332634.21875,105.42,,,2103898.0
1588332634.234375,102.56,,,2104494.0
1588332634.25,99.14,,,2105364.0
1588332634.265625,96.06,,,2106127.0
1588332634.28125,94.29,,,2106979.0
1588332634.296875,94.38,,,2108065.0
1588332634.3125,96.1,,,2107906.0
1588332634.328125,98.27,,,2104054.0
1588332634.34375,99.08,,,2100114.0
1588332634.359375,96.63,,,2097240.0
1588332634.375,89.65,,,2094435.0
1588332634.390625,78.12,,,2092279.0
1588332634.40625,63.21,,,2091473.0
1588332634.421875,46.87,,,2090466.0
1588332634.4375,31.1,,,2089633.0
1588332634.453125,17.15,,,2089202.0
1588332634.46875,5.32,,,2088817.0
1588332634.484375,-4.89,,,2089008.0
1588332634.5,-14.38,,,2089437.0
1588332634.515625,-24.21,,,2090197.0
1588332634.53125,-35.47,,,2090711.0
1588332634.546875,-49.14,,,2091423.0
1588332634.5625,-65.61,,,2092068.0
1588332634.578125,-83.97,,,2092843.0
1588332634.59375,-101.66,,,2093745.0
1588332634.609375,-115.02,,,2094856.0
1588332634.625,-121.08,,,2095696.0
1588332634.640625,-119.49,,,2093228.0
1588332634.65625,-113.72,,,2089050.0
1588332634.671875,-110.32,,,2085451.0
1588332634.6875,-116.49,,,2082800.0
1588332634.703125,-136.97,,,2080578.0
1588332634.71875,-172.02,,,2078735.0
1588332634.734375,-217.51,,,2077982.0
1588332634.75,-266.7,,,2077409.0
1588332634.765625,-312.74,,,2076580.0
1588332634.78125,-350.34,,,2076110.0
1588332634.796875,-376.11,,,2076047.0
1588332634.8125,-387.99,,,2076559.0
1588332634.828125,-384.65,,,2077137.0
1588332634.84375,-365.44,,,2077745.0
1588332634.859375,-331.04,,,2078189.0
1588332634.875,-283.93,,,2079231.0
1588332634.890625,-228.33,,,2079749.0
1588332634.90625,-169.58,,,2080723.0
1588332634.921875,-112.89,,,2081743.0
1588332634.9375,-62.38,,,2082718.0
1588332634.953125,-20.41,,,2081991.0
1588332634.96875,12.55,,,2077689.0
1588332634.984375,37.52,,,2073367.0
1588332635.0,56.32,,,2069826.0
1588332635.015625,70.82,,,2066763.0
1588332635.03125,82.24,,,2064460.0
1588332635.046875,91.0,,,2063037.0
1588332635.0625,96.92,,,2062297.0
1588332635.078125,99.85,,,2061505.0
1588332635.09375,100.2,,,2060924.0
1588332635.109375,99.1,,,2060685.0
1588332635.125,98.02,,,2060896.0
1588332635.140625,98.15,,,2061699.0
1588332635.15625,99.83,,,2062271.0
1588332635.171875,102.44,,,2063022.0
1588332635.1875,104.82,,,2063684.0
1588332635.203125,105.78,,,2064692.0
1588332635.21875,104.66,,,2065824.0
1588332635.234375,101.44,,,2066820.0
1588332635.25,96.66,,,2067916.0
1588332635.265625,91.06,,,2069202.0
1588332635.28125,85.23,,,2068065.0
1588332635.296875,79.44,,,2063652.0
1588332635.3125,73.66,,,2059812.0
1588332635.328125,67.71,,,2056552.0
1588332635.34375,61.46,,,2053658.0
1588332635.359375,55.01,,,2051649.0
1588332635.375,48.67,,,2050718.0
1588332635.390625,42.92,,,2049840.0
1588332635.40625,38.12,,,2049294.0
1588332635.421875,34.33,,,2049113.0
1588332635.4375,31.18,,,2049029.0
1588332635.453125,27.92,,,2049631.0
1588332635.46875,23.73,,,2050167.0
1588332635.484375,18.05,,,2051138.0
1588332635.5,10.85,,,2056659.0
1588332635.515625,2.7,,,2052248.0
1588332635.53125,-5.5,,,2055699.0
1588332635.546875,-12.87,,,2054415.0
1588332635.5625,-18.97,,,2053289.0
1588332635.578125,-23.95,,,2058134.0
1588332635.59375,-28.55,,,2058863.0
1588332635.609375,-33.88,,,2055527.0
1588332635.625,-41.08,,,2051238.0
1588332635.640625,-50.98,,,2047874.0
1588332635.65625,-63.55,,,2045184.0
1588332635.671875,-77.65,,,2042913.0
1588332635.6875,-90.95,,,2041664.0
1588332635.703125,-100.27,,,2041365.0
1588332635.71875,-102.41,,,2040926.0
1588332635.734375,-95.26,,,2040525.0
1588332635.75,-78.71,,,2040702.0
1588332635.765625,-54.88,,,2041067.0
1588332635.78125,-27.49,,,2041893.0
1588332635.796875,-0.75,,,2042602.0
1588332635.8125,22.07,,,2043702.0
1588332635.828125,39.44,,,2044731.0
1588332635.84375,51.62,,,2045890.0
1588332635.859375,60.08,,,2046945.0
1588332635.875,66.54,,,2048220.0
1588332635.890625,72.21,,,2049484.0
1588332635.90625,77.47,,,2050882.0
1588332635.921875,82.01,,,2052306.0
1588332635.9375,85.32,,,2052436.0
1588332635.953125,87.12,,,2048674.0
1588332635.96875,87.52,,,2044111.0
1588332635.984375,87.07,,,2041045.0
1588332636.0,86.38,,,2038643.0
1588332636.015625,85.92,,,2036598.0
1588332636.03125,85.73,,,2035828.0
1588332636.046875,85.51,,,2035606.0
1588332636.0625,84.84,,,2035195.0
1588332636.078125,83.42,,,2034931.0
1588332636.09375,81.33,,,2035116.0
1588332636.109375,78.93,,,2035643.0
1588332636.125,76.69,,,2036662.0
1588332636.140625,74.84,,,2037457.0
1588332636.15625,73.18,,,2038670.0
1588332636.171875,71.15,,,2040085.0
1588332636.1875,68.06,,,2041062.0
1588332636.203125,63.5,,,2042330.0
1588332636.21875,57.54,,,2043702.0
1588332636.234375,50.83,,,2044949.0
1588332636.25,44.24,,,2043204.0
1588332636.265625,38.59,,,2039122.0
1588332636.28125,34.17,,,2036065.0
1588332636.296875,30.65,,,2034023.0
1588332636.3125,27.25,,,2032390.0
1588332636.328125,22.91,,,2032135.0
1588332636.34375,16.89,,,2032503.0
1588332636.359375,8.94,,,2032536.0
1588332636.375,-0.51,,,2032728.0
1588332636.390625,-10.59,,,2033035.0
1588332636.40625,-20.2,,,2034250.0
1588332636.421875,-28.53,,,2035747.0
1588332636.4375,-35.24,,,2037597.0
1588332636.453125,-40.68,,,2039301.0
1588332636.46875,-45.74,,,2042552.0
1588332636.484375,-51.57,,,2046768.0
1588332636.5,-59.26,,,2050997.0
1588332636.515625,-69.46,,,2057265.0
1588332636.53125,-81.96,,,2064509.0
1588332636.546875,-95.38,,,2065376.0
1588332636.5625,-107.27,,,2062704.0
1588332636.578125,-114.46,,,2060446.0
1588332636.59375,-114.04,,,2058536.0
1588332636.609375,-104.36,,,2056457.0
1588332636.625,-85.75,,,2055322.0
1588332636.640625,-60.61,,,2054622.0
1588332636.65625,-32.73,,,2054171.0
1588332636.671875,-5.99,,,2053746.0
1588332636.6875,16.69,,,2053775.0
1588332636.703125,34.07,,,2054486.0
1588332636.71875,46.48,,,2055094.0
1588332636.734375,55.18,,,2055904.0
1588332636.75,61.57,,,2056935.0
1588332636.765625,66.6,,,2057913.0
1588332636.78125,70.61,,,2058860.0
1588332636.796875,73.49,,,2060255.0
1588332636.8125,75.08,,,2061289.0
1588332636.828125,75.4,,,2062811.0
1588332636.84375,74.75,,,2062243.0
1588332636.859375,73.76,,,2058518.0
1588332636.875,73.06,,,2054276.0
1588332636.890625,73.13,,,2051242.0
1588332636.90625,74.06,,,2049044.0
1588332636.921875,75.52,,,2047002.0
1588332636.9375,76.93,,,2046062.0
1588332636.953125,77.7,,,2045711.0
1588332636.96875,77.59,,,2045495.0
1588332636.984375,76.67,,,2045010.0
1588332637.0,75.41,,,2045368.0
1588332637.015625,74.26,,,2045775.0
1588332637.03125,73.41,,,2046704.0
1588332637.046875,72.64,,,2047655.0
1588332637.0625,71.31,,,2048806.0
1588332637.078125,68.75,,,2049937.0
1588332637.09375,64.59,,,2051249.0
1588332637.109375,59.1,,,2052431.0
1588332637.125,53.22,,,2053814.0
1588332637.140625,48.21,,,2053947.0
1588332637.15625,45.17,,,2050176.0
1588332637.171875,44.53,,,2046190.0
1588332637.1875,45.9,,,2043226.0
1588332637.203125,48.23,,,2040842.0
1588332637.21875,50.42,,,2038858.0
1588332637.234375,51.81,,,2038225.0
1588332637.25,52.51,,,2038104.0
1588332637.265625,53.19,,,2037751.0
1588332637.28125,54.68,,,2037655.0
1588332637.296875,57.5,,,2038031.0
1588332637.3125,62.02,,,2038743.0
1588332637.328125,68.64,,,2039932.0
1588332637.34375,77.91,,,2041205.0
1588332637.359375,90.13,,,2042350.0
1588332637.375,104.64,,,2046320.0
1588332637.390625,119.28,,,2044088.0
1588332637.40625,130.41,,,2049002.0
1588332637.421875,134.09,,,2051872.0
1588332637.4375,127.48,,,2055168.0
1588332637.453125,110.01,,,2059380.0
1588332637.46875,83.44,,,2062883.0
1588332637.484375,50.75,,,2062830.0
1588332637.5,14.47,,,2061029.0
1588332637.515625,-24.57,,,2059282.0
1588332637.53125,-67.18,,,2057739.0
1588332637.546875,-114.56,,,2055889.0
1588332637.5625,-166.39,,,2055184.0
1588332637.578125,-219.65,,,2054989.0
1588332637.59375,-268.88,,,2054498.0
1588332637.609375,-307.8,,,2054308.0
1588332637.625,-331.61,,,2054218.0
1588332637.640625,-338.72,,,2054620.0
1588332637.65625,-331.08,,,2055292.0
1588332637.671875,-312.98,,,2056066.0
1588332637.6875,-289.07,,,2057045.0
1588332637.703125,-262.72,,,2057894.0
1588332637.71875,-235.37,,,2059072.0
1588332637.734375,-207.21,,,2060018.0
1588332637.75,-178.4,,,2061318.0
1588332637.765625,-149.99,,,2062553.0
1588332637.78125,-123.91,,,2063517.0
1588332637.796875,-102.2,,,2061775.0
1588332637.8125,-85.85,,,2057988.0
1588332637.828125,-74.3,,,2055081.0
1588332637.84375,-65.71,,,2052892.0
1588332637.859375,-57.9,,,2051115.0
1588332637.875,-49.4,,,2050440.0
1588332637.890625,-40.0,,,2050201.0
1588332637.90625,-30.76,,,2050278.0
1588332637.921875,-23.27,,,2050224.0
1588332637.9375,-18.83,,,2050413.0
1588332637.953125,-17.78,,,2050966.0
1588332637.96875,-19.25,,,2051925.0
1588332637.984375,-21.61,,,2052882.0
1588332638.0,-23.1,,,2054213.0
1588332638.015625,-22.68,,,2055582.0
1588332638.03125,-20.42,,,2056648.0
1588332638.046875,-17.41,,,2058036.0
1588332638.0625,-15.32,,,2059513.0
1588332638.078125,-15.54,,,2061233.0
1588332638.09375,-18.63,,,2061343.0
1588332638.109375,-24.03,,,2058585.0
1588332638.125,-30.4,,,2055756.0
1588332638.140625,-36.24,,,2054023.0
1588332638.15625,-40.53,,,2053642.0
1588332638.171875,-43.18,,,2053996.0
1588332638.1875,-44.93,,,2055628.0
1588332638.203125,-47.04,,,2057634.0
1588332638.21875,-50.81,,,2060048.0
1588332638.234375,-57.25,,,2062965.0
1588332638.25,-66.87,,,2065918.0
1588332638.265625,-79.42,,,2068386.0
1588332638.28125,-93.63,,,2070074.0
1588332638.296875,-106.98,,,2071745.0
1588332638.3125,-115.97,,,2073149.0
1588332638.328125,-116.86,,,2074508.0
1588332638.34375,-107.07,,,2075870.0
1588332638.359375,-86.29,,,2077164.0
1588332638.375,-57.01,,,2078587.0
1588332638.390625,-23.8,,,2078987.0
1588332638.40625,8.32,,,2076276.0
1588332638.421875,35.49,,,2073367.0
1588332638.4375,56.11,,,2071057.0
1588332638.453125,70.78,,,2069375.0
1588332638.46875,81.29,,,2068145.0
1588332638.484375,89.45,,,2067799.0
1588332638.5,96.25,,,2067650.0
1588332638.515625,101.74,,,2067569.0
1588332638.53125,105.54,,,2068126.0
1588332638.546875,107.36,,,2068810.0
1588332638.5625,107.36,,,2070023.0
1588332638.578125,106.05,,,2070985.0
1588332638.59375,104.02,,,2071900.0
1588332638.609375,101.67,,,2073222.0
1588332638.625,99.1,,,2074267.0
1588332638.640625,96.21,,,2075291.0
1588332638.65625,92.97,,,2076549.0
1588332638.671875,89.51,,,2078008.0
1588332638.6875,86.2,,,2075534.0
1588332638.703125,83.46,,,2078381.0
1588332638.71875,81.59,,,2072024.0
1588332638.734375,80.55,,,2069367.0
1588332638.75,79.9,,,2065099.0
1588332638.765625,78.92,,,2067049.0
1588332638.78125,76.85,,,2064291.0
1588332638.796875,73.11,,,2064143.0
1588332638.8125,67.53,,,2063676.0
1588332638.828125,60.46,,,2063438.0
1588332638.84375,52.66,,,2063550.0
1588332638.859375,45.16,,,2064304.0
1588332638.875,38.91,,,2065033.0
1588332638.890625,34.41,,,2065817.0
1588332638.90625,31.54,,,2066965.0
1588332638.921875,29.51,,,2068056.0
1588332638.9375,27.19,,,2069494.0
1588332638.953125,23.55,,,2070676.0
1588332638.96875,18.09,,,2072242.0
1588332638.984375,11.09,,,2074145.0
1588332639.0,3.44,,,2073724.0
1588332639.015625,-3.78,,,2071303.0
1588332639.03125,-9.77,,,2067941.0
1588332639.046875,-14.3,,,2065608.0
1588332639.0625,-17.75,,,2063586.0
1588332639.078125,-20.94,,,2062078.0
1588332639.09375,-24.84,,,2061671.0
1588332639.109375,-30.37,,,2061760.0
1588332639.125,-38.24,,,2061865.0
1588332639.140625,-48.63,,,2062091.0
1588332639.15625,-60.84,,,2062298.0
1588332639.171875,-72.92,,,2063067.0
1588332639.1875,-81.76,,,2063964.0
1588332639.203125,-83.83,,,2065302.0
1588332639.21875,-76.41,,,2066210.0
1588332639.234375,-58.78,,,2067352.0
1588332639.25,-32.82,,,2068445.0
1588332639.265625,-2.56,,,2069733.0
1588332639.28125,27.25,,,2070923.0
1588332639.296875,52.75,,,2072259.0
1588332639.3125,72.08,,,2071976.0
1588332639.328125,85.54,,,2068780.0
1588332639.34375,94.75,,,2065629.0
1588332639.359375,101.58,,,2062964.0
1588332639.375,107.22,,,2060992.0
1588332639.390625,112.0,,,2059649.0
1588332639.40625,115.73,,,2059291.0
1588332639.421875,118.28,,,2058951.0
1588332639.4375,119.91,,,2058894.0
1588332639.453125,121.13,,,2059010.0
1588332639.46875,122.49,,,2059490.0
1588332639.484375,124.17,,,2060310.0
1588332639.5,125.92,,,2061189.0
1588332639.515625,127.21,,,2062529.0
1588332639.53125,127.57,,,2063675.0
1588332639.546875,126.82,,,2064807.0
1588332639.5625,125.13,,,2066078.0
1588332639.578125,122.87,,,2067535.0
1588332639.59375,120.24,,,2068964.0
1588332639.609375,117.08,,,2070086.0
1588332639.625,112.86,,,2068394.0
1588332639.640625,106.96,,,2065193.0
1588332639.65625,99.06,,,2062772.0
1588332639.671875,89.5,,,2061057.0
1588332639.6875,79.31,,,2059450.0
1588332639.703125,69.86,,,2059043.0
1588332639.71875,62.15,,,2059041.0
1588332639.734375,56.29,,,2058758.0
1588332639.75,51.52,,,2058761.0
1588332639.765625,46.77,,,2059077.0
1588332639.78125,41.57,,,2059751.0
1588332639.796875,36.42,,,2060541.0
1588332639.8125,32.44,,,2061772.0
1588332639.828125,30.2,,,2062994.0
1588332639.84375,28.76,,,2064366.0
1588332639.859375,25.33,,,2067040.0
1588332639.875,16.2,,,2065529.0
1588332639.890625,-1.76,,,2069684.0
1588332639.90625,-29.79,,,2067591.0
1588332639.921875,-67.11,,,2068602.0
1588332639.9375,-111.9,,,2064551.0
1588332639.953125,-162.43,,,2062275.0
1588332639.96875,-217.51,,,2060596.0
1588332639.984375,-275.7,,,2059546.0
1588332640.0,-334.04,,,2059488.0
1588332640.015625,-387.51,,,2059869.0
1588332640.03125,-429.99,,,2060022.0
1588332640.046875,-456.51,,,2060423.0
1588332640.0625,-465.24,,,2061160.0
1588332640.078125,-458.15,,,2062275.0
1588332640.09375,-439.72,,,2063269.0
1588332640.109375,-414.56,,,2064503.0
1588332640.125,-385.31,,,2065689.0
1588332640.140625,-352.08,,,2066920.0
1588332640.15625,-313.39,,,2068329.0
1588332640.171875,-267.9,,,2069778.0
1588332640.1875,-215.88,,,2071633.0
1588332640.203125,-159.47,,,2073484.0
1588332640.21875,-102.1,,,2074019.0
1588332640.234375,-47.38,,,2071452.0
1588332640.25,1.83,,,2068774.0
1588332640.265625,43.82,,,2066559.0
1588332640.28125,78.02,,,2064903.0
1588332640.296875,104.6,,,2063486.0
1588332640.3125,124.21,,,2063173.0
1588332640.328125,137.49,,,2063086.0
1588332640.34375,144.97,,,2062670.0
1588332640.359375,147.13,,,2062984.0
1588332640.375,144.67,,,2063213.0
1588332640.390625,138.8,,,2064510.0
1588332640.40625,131.32,,,2065708.0
1588332640.421875,124.17,,,2066819.0
1588332640.4375,118.86,,,2068021.0
1588332640.453125,115.87,,,2068990.0
1588332640.46875,114.54,,,2070570.0
1588332640.484375,113.58,,,2071805.0
1588332640.5,111.74,,,2071883.0
1588332640.515625,108.43,,,2068959.0
1588332640.53125,103.86,,,2065845.0
1588332640.546875,98.75,,,2063575.0
1588332640.5625,93.78,,,2061345.0
1588332640.578125,89.11,,,2059956.0
1588332640.59375,84.28,,,2059606.0
1588332640.609375,78.41,,,2059554.0
1588332640.625,70.78,,,2059543.0
1588332640.640625,61.21,,,2059443.0
1588332640.65625,50.39,,,2059941.0
1588332640.671875,39.54,,,2060545.0
1588332640.6875,29.97,,,2061508.0
1588332640.703125,22.48,,,2062684.0
1588332640.71875,17.02,,,2063848.0
1588332640.734375,12.71,,,2064997.0
1588332640.75,8.35,,,2066185.0
1588332640.765625,2.97,,,2067380.0
1588332640.78125,-3.66,,,2068825.0
1588332640.796875,-11.03,,,2069928.0
1588332640.8125,-18.16,,,2067766.0
1588332640.828125,-24.18,,,2064689.0
1588332640.84375,-28.78,,,2062039.0
1588332640.859375,-32.35,,,2060163.0
1588332640.875,-35.82,,,2058385.0
1588332640.890625,-40.3,,,2058003.0
1588332640.90625,-46.81,,,2057970.0
1588332640.921875,-55.94,,,2057377.0
1588332640.9375,-67.55,,,2057286.0
1588332640.953125,-80.5,,,2057662.0
1588332640.96875,-92.47,,,2057964.0
1588332640.984375,-100.34,,,2058707.0
1588332641.0,-100.91,,,2059749.0
1588332641.015625,-92.06,,,2060798.0
1588332641.03125,-73.73,,,2062030.0
1588332641.046875,-48.2,,,2063250.0
1588332641.0625,-19.4,,,2064434.0
1588332641.078125,8.3,,,2066099.0
1588332641.09375,31.64,,,2066513.0
1588332641.109375,49.17,,,2064178.0
1588332641.125,61.3,,,2060921.0
1588332641.140625,69.5,,,2058586.0
1588332641.15625,75.3,,,2056678.0
1588332641.171875,79.67,,,2055147.0
1588332641.1875,82.9,,,2054962.0
1588332641.203125,84.83,,,2055111.0
1588332641.21875,85.34,,,2054666.0
1588332641.234375,84.55,,,2054605.0
1588332641.25,82.88,,,2055156.0
1588332641.265625,80.84,,,2055940.0
1588332641.28125,78.9,,,2056672.0
1588332641.296875,77.33,,,2057699.0
1588332641.3125,76.26,,,2058977.0
1588332641.328125,75.71,,,2060187.0
1588332641.34375,75.63,,,2061628.0
1588332641.359375,75.94,,,2063211.0
1588332641.375,76.43,,,2064809.0
1588332641.390625,76.74,,,2064307.0
1588332641.40625,76.39,,,2061152.0
1588332641.421875,74.98,,,2058500.0
1588332641.4375,72.28,,,2056555.0
1588332641.453125,68.44,,,2055189.0
1588332641.46875,63.89,,,2054635.0
1588332641.484375,59.25,,,2054361.0
1588332641.5,54.98,,,2054489.0
1588332641.515625,51.2,,,2054435.0
1588332641.53125,47.61,,,2054770.0
1588332641.546875,43.68,,,2055031.0
1588332641.5625,38.99,,,2055673.0
1588332641.578125,33.51,,,2056694.0
1588332641.59375,27.69,,,2057903.0
1588332641.609375,22.28,,,2058813.0
1588332641.625,18.06,,,2060098.0
1588332641.640625,15.38,,,2061353.0
1588332641.65625,13.99,,,2062568.0
1588332641.671875,13.1,,,2061838.0
1588332641.6875,11.6,,,2058874.0
1588332641.703125,8.56,,,2055957.0
1588332641.71875,3.52,,,2054059.0
1588332641.734375,-3.02,,,2052090.0
1588332641.75,-9.57,,,2051299.0
1588332641.765625,-13.83,,,2050997.0
1588332641.78125,-13.35,,,2050832.0
1588332641.796875,-6.36,,,2050626.0
1588332641.8125,7.52,,,2050697.0
1588332641.828125,26.94,,,2051151.0
1588332641.84375,49.23,,,2051930.0
1588332641.859375,71.19,,,2052976.0
1588332641.875,90.05,,,2054090.0
1588332641.890625,104.11,,,2055191.0
1588332641.90625,112.91,,,2056395.0
1588332641.921875,116.97,,,2057621.0
1588332641.9375,117.44,,,2058939.0
1588332641.953125,115.72,,,2059514.0
1588332641.96875,112.97,,,2056937.0
1588332641.984375,109.75,,,2053240.0
1588332642.0,105.68,,,2050430.0
1588332642.015625,99.9,,,2048038.0
1588332642.03125,91.92,,,2046085.0
1588332642.046875,82.56,,,2045313.0
1588332642.0625,74.14,,,2045108.0
1588332642.078125,69.52,,,2045209.0
1588332642.09375,70.21,,,2045021.0
1588332642.109375,74.89,,,2045133.0
1588332642.125,79.12,,,2045615.0
1588332642.140625,77.05,,,2046693.0
1588332642.15625,63.83,,,2047696.0
1588332642.171875,37.71,,,2048952.0
1588332642.1875,0.21,,,2050192.0
1588332642.203125,-45.33,,,2051541.0
1588332642.21875,-95.71,,,2052896.0
1588332642.234375,-148.97,,,2051948.0
1588332642.25,-203.77,,,2049586.0
1588332642.265625,-257.9,,,2047448.0
1588332642.28125,-307.25,,,2045723.0
1588332642.296875,-346.29,,,2044644.0
1588332642.3125,-370.0,,,2044672.0
1588332642.328125,-376.13,,,2045299.0
1588332642.34375,-366.2,,,2045648.0
1588332642.359375,-344.82,,,2046409.0
1588332642.375,-317.78,,,2048947.0
1588332642.390625,-290.02,,,2053120.0
1588332642.40625,-264.44,,,2057137.0
1588332642.421875,-242.11,,,2061141.0
1588332642.4375,-223.19,,,2064399.0
1588332642.453125,-207.92,,,2066672.0
1588332642.46875,-196.84,,,2068422.0
1588332642.484375,-190.29,,,2069762.0
1588332642.5,-187.39,,,2070871.0
1588332642.515625,-185.43,,,2071106.0
1588332642.53125,-180.02,,,2072053.0
1588332642.546875,-166.3,,,2072329.0
1588332642.5625,-140.69,,,2069378.0
1588332642.578125,-102.58,,,2065250.0
1588332642.59375,-55.04,,,2061749.0
1588332642.609375,-4.0,,,2058929.0
1588332642.625,43.71,,,2056615.0
1588332642.640625,82.66,,,2055311.0
1588332642.65625,110.41,,,2054742.0
1588332642.671875,127.71,,,2054490.0
1588332642.6875,137.4,,,2054249.0
1588332642.703125,142.59,,,2054150.0
1588332642.71875,145.32,,,2054313.0
1588332642.734375,146.12,,,2055144.0
1588332642.75,144.56,,,2055821.0
1588332642.765625,140.29,,,2056858.0
1588332642.78125,133.62,,,2057765.0
1588332642.796875,125.68,,,2058812.0
1588332642.8125,117.9,,,2059901.0
1588332642.828125,111.32,,,2061101.0
1588332642.84375,106.21,,,2061906.0
1588332642.859375,102.09,,,2060023.0
1588332642.875,98.08,,,2056599.0
1588332642.890625,93.42,,,2054169.0
1588332642.90625,87.77,,,2052188.0
1588332642.921875,81.21,,,2050628.0
1588332642.9375,74.01,,,2050208.0
1588332642.953125,66.4,,,2050192.0
1588332642.96875,58.36,,,2049957.0
1588332642.984375,49.73,,,2049878.0
1588332643.0,40.34,,,2050227.0
1588332643.015625,30.31,,,2051161.0
1588332643.03125,20.05,,,2052020.0
1588332643.046875,10.18,,,2053335.0
1588332643.0625,1.21,,,2054659.0
1588332643.078125,-6.63,,,2055992.0
1588332643.09375,-13.57,,,2057427.0
1588332643.109375,-20.11,,,2058773.0
1588332643.125,-26.73,,,2057906.0
1588332643.140625,-33.68,,,2055137.0
1588332643.15625,-40.78,,,2052894.0
1588332643.171875,-47.59,,,2051369.0
1588332643.1875,-53.59,,,2050113.0
1588332643.203125,-58.59,,,2049750.0
1588332643.21875,-62.89,,,2050156.0
1588332643.234375,-67.32,,,2050393.0
1588332643.25,-72.97,,,2050708.0
1588332643.265625,-80.81,,,2051084.0
1588332643.28125,-91.04,,,2052040.0
1588332643.296875,-102.51,,,2053120.0
1588332643.3125,-112.61,,,2054170.0
1588332643.328125,-117.74,,,2055147.0
1588332643.34375,-114.44,,,2056597.0
1588332643.359375,-100.8,,,2058131.0
1588332643.375,-77.45,,,2059159.0
1588332643.390625,-47.6,,,2060564.0
1588332643.40625,-15.98,,,2061725.0
1588332643.421875,12.87,,,2060045.0
1588332643.4375,36.06,,,2056850.0
1588332643.453125,53.0,,,2054393.0
1588332643.46875,64.91,,,2052479.0
1588332643.484375,73.62,,,2050812.0
1588332643.5,80.54,,,2050335.0
1588332643.515625,86.08,,,2050325.0
1588332643.53125,89.96,,,2050620.0
1588332643.546875,91.8,,,2050681.0
1588332643.5625,91.71,,,2051125.0
1588332643.578125,90.38,,,2051880.0
1588332643.59375,88.69,,,2052788.0
1588332643.609375,87.28,,,2053782.0
1588332643.625,86.22,,,2054906.0
1588332643.640625,85.14,,,2056168.0
1588332643.65625,83.47,,,2057657.0
1588332643.671875,80.88,,,2058637.0
1588332643.6875,77.48,,,2057385.0
1588332643.703125,73.81,,,2054523.0
1588332643.71875,70.47,,,2052137.0
1588332643.734375,67.79,,,2050385.0
1588332643.75,65.6,,,2048819.0
1588332643.765625,63.18,,,2048571.0
1588332643.78125,59.58,,,2048678.0
1588332643.796875,54.05,,,2049009.0
1588332643.8125,46.43,,,2049204.0
1588332643.828125,37.29,,,2049707.0
1588332643.84375,27.79,,,2050472.0
1588332643.859375,19.21,,,2051604.0
1588332643.875,12.43,,,2052818.0
1588332643.890625,7.57,,,2054074.0
1588332643.90625,3.93,,,2055452.0
1588332643.921875,0.31,,,2057003.0
1588332643.9375,-4.42,,,2057992.0
1588332643.953125,-10.79,,,2059625.0
1588332643.96875,-18.44,,,2061097.0
1588332643.984375,-26.31,,,2061139.0
1588332644.0,-33.05,,,2058223.0
1588332644.015625,-37.69,,,2055556.0
1588332644.03125,-40.04,,,2053657.0
1588332644.046875,-40.8,,,2052332.0
1588332644.0625,-41.35,,,2051514.0
1588332644.078125,-43.21,,,2051518.0
1588332644.09375,-47.66,,,2051475.0
1588332644.109375,-55.25,,,2051551.0
1588332644.125,-65.62,,,2051970.0
1588332644.140625,-77.18,,,2052653.0
1588332644.15625,-87.17,,,2053466.0
1588332644.171875,-92.0,,,2054625.0
1588332644.1875,-88.21,,,2055903.0
1588332644.203125,-73.72,,,2057045.0
1588332644.21875,-48.87,,,2058699.0
1588332644.234375,-16.66,,,2059932.0
1588332644.25,18.06,,,2061102.0
1588332644.265625,50.19,,,2062805.0
1588332644.28125,76.12,,,2064154.0
1588332644.296875,94.78,,,2063264.0
1588332644.3125,107.43,,,2060499.0
1588332644.328125,116.65,,,2058287.0
1588332644.34375,124.88,,,2056601.0
1588332644.359375,133.47,,,2055277.0
1588332644.375,142.42,,,2054696.0
1588332644.390625,150.8,,,2054948.0
1588332644.40625,157.33,,,2054881.0
1588332644.421875,161.06,,,2055079.0
1588332644.4375,161.51,,,2055443.0
1588332644.453125,158.86,,,2056169.0
1588332644.46875,153.65,,,2057005.0
1588332644.484375,146.54,,,2058201.0
1588332644.5,138.06,,,2059282.0
1588332644.515625,128.46,,,2060253.0
1588332644.53125,117.93,,,2061531.0
1588332644.546875,106.94,,,2062797.0
1588332644.5625,96.52,,,2063722.0
1588332644.578125,88.06,,,2062119.0
1588332644.59375,82.65,,,2059109.0
1588332644.609375,80.37,,,2057307.0
1588332644.625,80.01,,,2055852.0
1588332644.640625,79.78,,,2055165.0
1588332644.65625,78.33,,,2055024.0
1588332644.671875,75.66,,,2055127.0
1588332644.6875,72.95,,,2055067.0
1588332644.703125,71.31,,,2055112.0
1588332644.71875,70.35,,,2055812.0
1588332644.734375,67.63,,,2056515.0
1588332644.75,59.27,,,2057300.0
1588332644.765625,41.85,,,2058340.0
1588332644.78125,14.02,,,2059445.0
1588332644.796875,-23.09,,,2060411.0
1588332644.8125,-66.96,,,2061430.0
1588332644.828125,-115.48,,,2062618.0
1588332644.84375,-167.87,,,2063546.0
1588332644.859375,-224.15,,,2061945.0
1588332644.875,-283.3,,,2058689.0
1588332644.890625,-341.59,,,2056022.0
1588332644.90625,-392.52,,,2054375.0
1588332644.921875,-428.72,,,2052856.0
1588332644.9375,-444.82,,,2052368.0
1588332644.953125,-439.82,,,2052182.0
1588332644.96875,-417.51,,,2052041.0
1588332644.984375,-384.95,,,2052003.0
1588332645.0,-349.77,,,2052326.0
1588332645.015625,-317.85,,,2053024.0
1588332645.03125,-292.22,,,2053637.0
1588332645.046875,-273.24,,,2054703.0
1588332645.0625,-259.63,,,2055583.0
1588332645.078125,-249.11,,,2056782.0
1588332645.09375,-238.78,,,2057705.0
1588332645.109375,-225.24,,,2058854.0
1588332645.125,-204.97,,,2060177.0
1588332645.140625,-175.41,,,2060706.0
1588332645.15625,-136.08,,,2058022.0
1588332645.171875,-89.26,,,2054520.0
1588332645.1875,-39.54,,,2052142.0
1588332645.203125,7.59,,,2049956.0
1588332645.21875,47.55,,,2048182.0
1588332645.234375,78.1,,,2047726.0
1588332645.25,99.58,,,2047182.0
1588332645.265625,114.19,,,2047118.0
1588332645.28125,124.55,,,2046894.0
1588332645.296875,132.58,,,2047350.0
1588332645.3125,139.02,,,2048546.0
1588332645.328125,143.7,,,2047742.0
1588332645.34375,146.19,,,2049414.0
1588332645.359375,146.44,,,2052651.0
1588332645.375,144.93,,,2050550.0
1588332645.390625,142.38,,,2051512.0
1588332645.40625,139.44,,,2053740.0
1588332645.421875,136.39,,,2053626.0
1588332645.4375,133.17,,,2050808.0
1588332645.453125,129.65,,,2047423.0
1588332645.46875,125.71,,,2044764.0
1588332645.484375,121.42,,,2042444.0
1588332645.5,116.93,,,2040800.0
1588332645.515625,112.27,,,2040394.0
1588332645.53125,107.33,,,2040180.0
1588332645.546875,101.86,,,2040136.0
1588332645.5625,95.55,,,2039713.0
1588332645.578125,88.15,,,2040010.0
1588332645.59375,79.54,,,2040959.0
1588332645.609375,69.74,,,2041632.0
1588332645.625,59.0,,,2042501.0
1588332645.640625,47.79,,,2043482.0
1588332645.65625,36.8,,,2044607.0
1588332645.671875,26.79,,,2045743.0
1588332645.6875,18.37,,,2046910.0
1588332645.703125,11.7,,,2048343.0
1588332645.71875,6.4,,,2049442.0
1588332645.734375,1.62,,,2050014.0
1588332645.75,-3.62,,,2047175.0
1588332645.765625,-9.95,,,2043765.0
1588332645.78125,-17.42,,,2041356.0
1588332645.796875,-25.45,,,2038905.0
1588332645.8125,-33.12,,,2037196.0
1588332645.828125,-39.64,,,2036504.0
1588332645.84375,-44.64,,,2036332.0
1588332645.859375,-48.36,,,2036111.0
1588332645.875,-51.42,,,2035812.0
1588332645.890625,-54.69,,,2036099.0
1588332645.90625,-58.9,,,2036551.0
1588332645.921875,-64.67,,,2037539.0
1588332645.9375,-72.39,,,2038434.0
1588332645.953125,-81.93,,,2039595.0
1588332645.96875,-92.38,,,2040912.0
1588332645.984375,-101.72,,,2042030.0
1588332646.0,-106.97,,,2043497.0
1588332646.015625,-104.96,,,2044010.0
1588332646.03125,-93.58,,,2041882.0
1588332646.046875,-72.82,,,2038527.0
1588332646.0625,-45.12,,,2036388.0
1588332646.078125,-14.69,,,2034695.0
1588332646.09375,13.92,,,2034008.0
1588332646.109375,37.38,,,2034443.0
1588332646.125,54.38,,,2035202.0
1588332646.140625,65.64,,,2036335.0
1588332646.15625,72.92,,,2037616.0
1588332646.171875,77.99,,,2039246.0
1588332646.1875,81.86,,,2041092.0
1588332646.203125,84.71,,,2043729.0
1588332646.21875,86.33,,,2047123.0
1588332646.234375,86.58,,,2050621.0
1588332646.25,85.68,,,2053037.0
1588332646.265625,84.16,,,2054836.0
1588332646.28125,82.56,,,2056056.0
1588332646.296875,81.15,,,2057214.0
1588332646.3125,79.87,,,2057663.0
1588332646.328125,78.44,,,2055578.0
1588332646.34375,76.57,,,2052083.0
1588332646.359375,74.18,,,2049015.0
1588332646.375,71.48,,,2046498.0
1588332646.390625,68.83,,,2044500.0
1588332646.40625,66.5,,,2043647.0
1588332646.421875,64.44,,,2043163.0
1588332646.4375,62.21,,,2042947.0
1588332646.453125,59.07,,,2042759.0
1588332646.46875,54.27,,,2042979.0
1588332646.484375,47.47,,,2043195.0
1588332646.5,38.87,,,2044072.0
1588332646.515625,29.36,,,2044924.0
1588332646.53125,20.18,,,2045653.0
1588332646.546875,12.53,,,2046703.0
1588332646.5625,7.07,,,2047964.0
1588332646.578125,3.71,,,2048854.0
1588332646.59375,1.65,,,2048175.0
1588332646.609375,-0.26,,,2045182.0
1588332646.625,-2.9,,,2042500.0
1588332646.640625,-6.58,,,2039881.0
1588332646.65625,-10.86,,,2038086.0
1588332646.671875,-14.86,,,2036988.0
1588332646.6875,-17.72,,,2036927.0
1588332646.703125,-19.05,,,2036955.0
1588332646.71875,-19.07,,,2036973.0
1588332646.734375,-18.53,,,2037078.0
1588332646.75,-18.4,,,2037781.0
1588332646.765625,-19.49,,,2038703.0
1588332646.78125,-22.28,,,2039979.0
1588332646.796875,-26.71,,,2040940.0
1588332646.8125,-32.09,,,2042026.0
1588332646.828125,-36.94,,,2043499.0
1588332646.84375,-39.05,,,2044858.0
1588332646.859375,-35.76,,,2046122.0
1588332646.875,-24.69,,,2047450.0
1588332646.890625,-4.58,,,2046000.0
1588332646.90625,23.93,,,2043161.0
1588332646.921875,58.1,,,2040758.0
1588332646.9375,93.67,,,2038570.0
1588332646.953125,125.98,,,2036726.0
1588332646.96875,151.25,,,2036147.0
1588332646.984375,167.53,,,2036386.0
1588332647.0,174.86,,,2036900.0
1588332647.015625,174.73,,,2036714.0
1588332647.03125,169.27,,,2037510.0
1588332647.046875,160.37,,,2038515.0
1588332647.0625,149.37,,,2039731.0
1588332647.078125,137.18,,,2040882.0
1588332647.09375,124.56,,,2042418.0
1588332647.109375,112.45,,,2044081.0
1588332647.125,101.83,,,2045362.0
1588332647.140625,93.23,,,2047156.0
1588332647.15625,86.13,,,2048645.0
1588332647.171875,78.74,,,2050502.0
1588332647.1875,68.76,,,2050908.0
1588332647.203125,54.9,,,2049051.0
1588332647.21875,38.34,,,2047124.0
1588332647.234375,22.97,,,2045473.0
1588332647.25,13.86,,,2044250.0
1588332647.265625,14.58,,,2043749.0
1588332647.28125,24.59,,,2043841.0
1588332647.296875,38.57,,,2044198.0
1588332647.3125,48.22,,,2044706.0
1588332647.328125,45.55,,,2045374.0
1588332647.34375,26.05,,,2046351.0
1588332647.359375,-10.01,,,2047125.0
1588332647.375,-58.65,,,2048555.0
1588332647.390625,-114.32,,,2049966.0
1588332647.40625,-171.9,,,2051455.0
1588332647.421875,-227.39,,,2052832.0
1588332647.4375,-277.4,,,2054405.0
1588332647.453125,-318.54,,,2056055.0
1588332647.46875,-347.49,,,2057609.0
1588332647.484375,-361.96,,,2059338.0
1588332647.5,-361.76,,,2061035.0
1588332647.515625,-349.2,,,2061685.0
1588332647.53125,-328.39,,,2060211.0
1588332647.546875,-303.9,,,2058780.0
1588332647.5625,-279.56,,,2057906.0
1588332647.578125,-257.85,,,2057221.0
1588332647.59375,-240.1,,,2056902.0
1588332647.609375,-226.84,,,2057647.0
1588332647.625,-218.13,,,2058419.0
1588332647.640625,-213.41,,,2058826.0
1588332647.65625,-211.19,,,2059301.0
1588332647.671875,-208.88,,,2060362.0
1588332647.6875,-202.96,,,2061555.0
1588332647.703125,-189.74,,,2062842.0
1588332647.71875,-166.37,,,2064106.0
1588332647.734375,-131.89,,,2065495.0
1588332647.75,-88.04,,,2066818.0
1588332647.765625,-39.04,,,2068139.0
1588332647.78125,9.45,,,2069763.0
1588332647.796875,51.96,,,2070979.0
1588332647.8125,84.86,,,2070704.0
1588332647.828125,107.15,,,2069472.0
1588332647.84375,120.32,,,2068530.0
1588332647.859375,127.21,,,2068147.0
1588332647.875,130.52,,,2068015.0
1588332647.890625,131.95,,,2068780.0
1588332647.90625,132.0,,,2069307.0
1588332647.921875,130.55,,,2070089.0
1588332647.9375,127.6,,,2070665.0
1588332647.953125,123.75,,,2072005.0
1588332647.96875,119.97,,,2072843.0
1588332647.984375,117.13,,,2074155.0
1588332648.0,115.43,,,2075577.0
1588332648.015625,114.33,,,2077172.0
1588332648.03125,112.88,,,2078222.0
1588332648.046875,110.3,,,2079856.0
1588332648.0625,106.41,,,2081320.0
1588332648.078125,101.68,,,2082632.0
1588332648.09375,96.85,,,2081538.0
1588332648.109375,92.45,,,2080555.0
1588332648.125,88.42,,,2080003.0
1588332648.140625,84.07,,,2079416.0
1588332648.15625,78.52,,,2079427.0
1588332648.171875,71.1,,,2079879.0
1588332648.1875,61.85,,,2080765.0
1588332648.203125,51.47,,,2081480.0
1588332648.21875,41.12,,,2082074.0
1588332648.234375,31.85,,,2083261.0
1588332648.25,24.13,,,2084640.0
1588332648.265625,17.66,,,2085639.0
1588332648.28125,11.5,,,2086979.0
1588332648.296875,4.59,,,2088218.0
1588332648.3125,-3.7,,,2089554.0
1588332648.328125,-13.29,,,2090914.0
1588332648.34375,-23.29,,,2092240.0
1588332648.359375,-32.49,,,2093707.0
1588332648.375,-39.86,,,2095011.0
1588332648.390625,-45.12,,,2094592.0
1588332648.40625,-48.85,,,2093212.0
1588332648.421875,-52.39,,,2092396.0
1588332648.4375,-57.37,,,2092000.0
1588332648.453125,-65.08,,,2091518.0
1588332648.46875,-75.82,,,2091860.0
1588332648.484375,-88.58,,,2092324.0
1588332648.5,-100.81,,,2093072.0
1588332648.515625,-109.0,,,2093678.0
1588332648.53125,-109.51,,,2094375.0
1588332648.546875,-99.99,,,2095347.0
1588332648.5625,-80.26,,,2096385.0
1588332648.578125,-52.72,,,2097434.0
1588332648.59375,-21.63,,,2098738.0
1588332648.609375,8.29,,,2099919.0
1588332648.625,33.38,,,2101177.0
1588332648.640625,52.07,,,2102374.0
1588332648.65625,64.84,,,2103670.0
1588332648.671875,73.46,,,2104825.0
1588332648.6875,79.84,,,2104232.0
1588332648.703125,85.21,,,2103007.0
1588332648.71875,89.81,,,2102242.0
1588332648.734375,93.32,,,2101879.0
1588332648.75,95.32,,,2101656.0
1588332648.765625,95.77,,,2101987.0
1588332648.78125,95.0,,,2102480.0
1588332648.796875,93.55,,,2103171.0
1588332648.8125,91.93,,,2103725.0
1588332648.828125,90.41,,,2104543.0
1588332648.84375,89.0,,,2105291.0
1588332648.859375,87.62,,,2106334.0
1588332648.875,86.18,,,2107628.0
1588332648.890625,84.71,,,2108791.0
1588332648.90625,83.29,,,2109738.0
1588332648.921875,82.02,,,2110916.0
1588332648.9375,80.83,,,2112118.0
1588332648.953125,79.44,,,2113352.0
1588332648.96875,77.36,,,2113459.0
1588332648.984375,74.03,,,2112232.0
1588332649.0,69.05,,,2111137.0
1588332649.015625,62.34,,,2110767.0
1588332649.03125,54.25,,,2110232.0
1588332649.046875,45.55,,,2110261.0
1588332649.0625,37.16,,,2111288.0
1588332649.078125,29.93,,,2112838.0
1588332649.09375,24.38,,,2113523.0
1588332649.109375,20.53,,,2111850.0
1588332649.125,18.02,,,2111831.0
1588332649.140625,16.13,,,2114405.0
1588332649.15625,14.13,,,2115475.0
1588332649.171875,11.38,,,2116479.0
1588332649.1875,7.64,,,2117932.0
1588332649.203125,3.13,,,2118912.0
1588332649.21875,-1.52,,,2120072.0
1588332649.234375,-5.41,,,2121500.0
1588332649.25,-7.82,,,2121776.0
1588332649.265625,-8.52,,,2121092.0
1588332649.28125,-7.94,,,2119665.0
1588332649.296875,-7.05,,,2119078.0
1588332649.3125,-7.03,,,2118548.0
1588332649.328125,-8.87,,,2118423.0
1588332649.34375,-13.12,,,2119062.0
1588332649.359375,-19.69,,,2119679.0
1588332649.375,-27.77,,,2119897.0
1588332649.390625,-35.8,,,2120473.0
1588332649.40625,-41.55,,,2121390.0
1588332649.421875,-42.49,,,2122148.0
1588332649.4375,-36.5,,,2123190.0
1588332649.453125,-22.78,,,2124013.0
1588332649.46875,-2.39,,,2125052.0
1588332649.484375,21.82,,,2126216.0
1588332649.5,45.89,,,2127297.0
1588332649.515625,66.16,,,2128016.0
1588332649.53125,80.25,,,2127621.0
1588332649.546875,87.65,,,2126097.0
1588332649.5625,89.53,,,2124882.0
1588332649.578125,87.92,,,2124264.0
1588332649.59375,84.86,,,2123829.0
1588332649.609375,81.66,,,2123793.0
1588332649.625,78.67,,,2124002.0
1588332649.640625,75.51,,,2124348.0
1588332649.65625,71.75,,,2124438.0
1588332649.671875,67.62,,,2125008.0
1588332649.6875,64.46,,,2125550.0
1588332649.703125,64.49,,,2126544.0
1588332649.71875,69.66,,,2127428.0
1588332649.734375,80.3,,,2128209.0
1588332649.75,94.12,,,2128986.0
1588332649.765625,106.35,,,2130113.0
1588332649.78125,111.19,,,2130640.0
1588332649.796875,103.84,,,2129314.0
1588332649.8125,82.08,,,2127262.0
1588332649.828125,46.48,,,2125774.0
1588332649.84375,-0.44,,,2124450.0
1588332649.859375,-55.48,,,2123349.0
1588332649.875,-115.36,,,2123031.0
1588332649.890625,-176.5,,,2122994.0
1588332649.90625,-234.37,,,2123036.0
1588332649.921875,-283.49,,,2122638.0
1588332649.9375,-318.49,,,2123122.0
1588332649.953125,-335.84,,,2123473.0
1588332649.96875,-335.33,,,2124114.0
1588332649.984375,-320.23,,,2125145.0
1588332650.0,-296.08,,,2126120.0
1588332650.015625,-268.55,,,2126734.0
1588332650.03125,-241.69,,,2127621.0
1588332650.046875,-217.37,,,2128642.0
