timestamp,bvp,eda,temp,PPG GREEN
1567412145.28125,-11.55,0.117847,31.51,2069207.0
1567412145.296875,-11.43,0.13578,31.51,2070285.0
1567412145.3125,-11.09,0.124252,31.51,2071326.0
1567412145.328125,-10.34,0.122971,31.53,2072102.0
1567412145.34375,-9.31,0.119128,31.53,2073376.0
1567412145.359375,-8.42,0.117847,31.53,2074253.0
1567412145.375,-8.08,0.117847,31.53,2075279.0
1567412145.390625,-8.49,0.120409,31.51,2074076.0
1567412145.40625,-9.42,0.120409,31.51,2072500.0
1567412145.421875,-10.31,0.120409,31.51,2071692.0
1567412145.4375,-10.55,0.120409,31.51,2070883.0
1567412145.453125,-9.76,0.116566,31.49,2070633.0
1567412145.46875,-8.05,0.115285,31.49,2070544.0
1567412145.484375,-5.9,0.130656,31.49,2070750.0
1567412145.5,-3.92,0.117847,31.49,2070704.0
1567412145.515625,-2.55,0.120409,31.49,2070926.0
1567412145.53125,-1.92,0.12169,31.49,2071003.0
1567412145.546875,-1.86,0.120409,31.49,2071570.0
1567412145.5625,-2.13,0.120409,31.49,2072570.0
1567412145.578125,-2.57,0.117847,31.49,2073205.0
1567412145.59375,-3.09,0.116566,31.49,2074146.0
1567412145.609375,-3.68,0.117847,31.49,2075173.0
1567412145.625,-4.24,0.119128,31.49,2076208.0
1567412145.640625,-4.71,0.120409,31.49,2077236.0
1567412145.65625,-5.0,0.12169,31.49,2078593.0
1567412145.671875,-5.11,0.117847,31.49,2078098.0
1567412145.6875,-5.14,0.119128,31.49,2076437.0
1567412145.703125,-5.2,0.116566,31.51,2075470.0
1567412145.71875,-5.42,0.117847,31.51,2074453.0
1567412145.734375,-5.86,0.117847,31.51,2073936.0
1567412145.75,-6.48,0.120409,31.51,2073245.0
1567412145.765625,-7.22,0.12169,31.49,2073122.0
1567412145.78125,-8.02,0.12169,31.49,2073000.0
1567412145.796875,-8.7,0.12169,31.49,2072753.0
1567412145.8125,-9.03,0.120409,31.49,2072630.0
1567412145.828125,-8.84,0.120409,31.49,2072895.0
1567412145.84375,-8.04,0.117847,31.49,2073654.0
1567412145.859375,-6.8,0.12169,31.49,2073898.0
1567412145.875,-5.49,0.12169,31.49,2074546.0
1567412145.890625,-4.51,0.119128,31.49,2075487.0
1567412145.90625,-4.03,0.12169,31.49,2076789.0
1567412145.921875,-3.9,0.120409,31.49,2077673.0
1567412145.9375,-3.7,0.117847,31.49,2079311.0
1567412145.953125,-3.08,0.119128,31.49,2080583.0
1567412145.96875,-1.95,0.117847,31.49,2081668.0
1567412145.984375,-0.66,0.120409,31.49,2082706.0
1567412146.0,0.17,0.119128,31.49,2083715.0
1567412146.015625,0.0,0.12169,31.49,2084859.0
1567412146.03125,-1.27,0.12169,31.49,2086234.0
1567412146.046875,-3.15,0.12169,31.49,2087643.0
1567412146.0625,-4.84,0.117847,31.49,2088780.0
1567412146.078125,-5.54,0.119128,31.49,2090827.0
1567412146.09375,-4.95,0.117847,31.49,2092903.0
1567412146.109375,-3.41,0.119128,31.49,2095062.0
1567412146.125,-1.67,0.12169,31.49,2097329.0
1567412146.140625,-0.51,0.122971,31.49,2099378.0
1567412146.15625,-0.45,0.120409,31.49,2101342.0
1567412146.171875,-1.5,0.119128,31.49,2103398.0
1567412146.1875,-3.28,0.117847,31.49,2105749.0
1567412146.203125,-5.3,0.116566,31.49,2107492.0
1567412146.21875,-7.12,0.116566,31.49,2109415.0
1567412146.234375,-8.55,0.119128,31.49,2111249.0
1567412146.25,-9.5,0.12169,31.49,2112698.0
1567412146.265625,-9.91,0.12169,31.47,2113553.0
1567412146.28125,-9.63,0.12169,31.47,2114551.0
1567412146.296875,-8.33,0.119128,31.47,2115580.0
1567412146.3125,-5.63,0.117847,31.47,2116832.0
1567412146.328125,-1.01,0.120409,31.49,2118230.0
1567412146.34375,6.01,0.116566,31.49,2119443.0
1567412146.359375,15.8,0.117847,31.49,2120902.0
1567412146.375,28.45,0.120409,31.49,2122046.0
1567412146.390625,43.5,0.12169,31.49,2123096.0
1567412146.40625,59.89,0.120409,31.49,2124558.0
1567412146.421875,76.25,0.120409,31.49,2125550.0
1567412146.4375,91.2,0.117847,31.49,2126115.0
1567412146.453125,103.78,0.119128,31.51,2126766.0
1567412146.46875,113.79,0.117847,31.51,2127502.0
1567412146.484375,121.69,0.119128,31.51,2128872.0
1567412146.5,128.29,0.120409,31.51,2128853.0
1567412146.515625,134.28,0.122971,31.47,2129354.0
1567412146.53125,139.86,0.122971,31.47,2130166.0
1567412146.546875,144.47,0.12169,31.47,2129328.0
1567412146.5625,146.69,0.12169,31.47,2128771.0
1567412146.578125,144.32,0.120409,31.51,2128984.0
1567412146.59375,134.73,0.117847,31.51,2129110.0
1567412146.609375,115.6,0.119128,31.51,2129671.0
1567412146.625,85.8,0.12169,31.51,2129968.0
1567412146.640625,46.31,0.122971,31.47,2131110.0
1567412146.65625,0.65,0.122971,31.47,2134491.0
1567412146.671875,-45.68,0.12169,31.47,2135872.0
1567412146.6875,-86.46,0.119128,31.47,2137471.0
1567412146.703125,-116.55,0.120409,31.51,2138602.0
1567412146.71875,-133.31,0.119128,31.51,2139299.0
1567412146.734375,-137.19,0.119128,31.51,2139431.0
1567412146.75,-131.14,0.12169,31.51,2139953.0
1567412146.765625,-119.27,0.12169,31.49,2140715.0
1567412146.78125,-105.4,0.12169,31.49,2141435.0
1567412146.796875,-91.98,0.122971,31.49,2141765.0
1567412146.8125,-79.99,0.120409,31.49,2141439.0
1567412146.828125,-69.39,0.119128,31.51,2140882.0
1567412146.84375,-59.94,0.119128,31.51,2139960.0
1567412146.859375,-51.61,0.119128,31.51,2139519.0
1567412146.875,-44.55,0.12169,31.51,2138878.0
1567412146.890625,-38.79,0.12169,31.49,2138787.0
1567412146.90625,-33.97,0.12169,31.49,2138779.0
1567412146.921875,-29.24,0.122971,31.49,2138761.0
1567412146.9375,-23.74,0.119128,31.49,2138302.0
1567412146.953125,-17.13,0.119128,31.51,2138554.0
1567412146.96875,-9.89,0.119128,31.51,2138577.0
1567412146.984375,-3.2,0.122971,31.51,2138941.0
1567412147.0,1.61,0.122971,31.51,2139700.0
1567412147.015625,3.79,0.124252,31.51,2140106.0
1567412147.03125,3.63,0.122971,31.51,2140532.0
1567412147.046875,2.33,0.124252,31.51,2141259.0
1567412147.0625,1.55,0.120409,31.51,2142181.0
1567412147.078125,2.6,0.122971,31.51,2142648.0
1567412147.09375,5.97,0.120409,31.51,2143075.0
1567412147.109375,11.16,0.124252,31.51,2142512.0
1567412147.125,17.01,0.124252,31.51,2141827.0
1567412147.140625,22.32,0.122971,31.51,2141682.0
1567412147.15625,26.18,0.122971,31.51,2141613.0
1567412147.171875,28.29,0.122971,31.51,2141641.0
1567412147.1875,28.85,0.120409,31.51,2141858.0
1567412147.203125,28.29,0.134499,31.51,2142398.0
1567412147.21875,26.99,0.117847,31.51,2142490.0
1567412147.234375,25.18,0.122971,31.51,2142863.0
1567412147.25,22.89,0.124252,31.51,2142863.0
1567412147.265625,20.06,0.122971,31.51,2143369.0
1567412147.28125,16.69,0.124252,31.51,2144149.0
1567412147.296875,12.87,0.124252,31.51,2145054.0
1567412147.3125,8.9,0.120409,31.51,2146501.0
1567412147.328125,5.14,0.120409,31.51,2147522.0
1567412147.34375,2.0,0.120409,31.51,2147928.0
1567412147.359375,-0.18,0.12169,31.51,2148919.0
1567412147.375,-1.22,0.13578,31.51,2150108.0
1567412147.390625,-1.16,0.122971,31.49,2151148.0
1567412147.40625,-0.27,0.12169,31.49,2151680.0
1567412147.421875,1.05,0.122971,31.49,2151496.0
1567412147.4375,2.35,0.120409,31.49,2150925.0
1567412147.453125,3.21,0.120409,31.51,2150566.0
1567412147.46875,3.35,0.120409,31.51,2150610.0
1567412147.484375,2.71,0.120409,31.51,2150613.0
1567412147.5,1.38,0.124252,31.51,2150300.0
1567412147.515625,-0.43,0.124252,31.51,2149849.0
1567412147.53125,-2.43,0.124252,31.51,2150193.0
1567412147.546875,-4.33,0.125533,31.51,2150569.0
1567412147.5625,-5.86,0.126814,31.51,2151001.0
1567412147.578125,-6.85,0.12169,31.51,2151505.0
1567412147.59375,-7.21,0.122971,31.51,2152258.0
1567412147.609375,-6.96,0.12169,31.51,2152858.0
1567412147.625,-6.26,0.124252,31.51,2153522.0
1567412147.640625,-5.31,0.12169,31.51,2154034.0
1567412147.65625,-4.35,0.122971,31.51,2154984.0
1567412147.671875,-3.53,0.124252,31.51,2156514.0
1567412147.6875,-2.86,0.124252,31.51,2157511.0
1567412147.703125,-2.25,0.120409,31.51,2156735.0
1567412147.71875,-1.59,0.120409,31.51,2155461.0
1567412147.734375,-0.78,0.120409,31.51,2154302.0
1567412147.75,0.15,0.124252,31.51,2153489.0
1567412147.765625,1.13,0.125533,31.49,2152752.0
1567412147.78125,2.05,0.126814,31.49,2152828.0
1567412147.796875,2.85,0.124252,31.49,2152813.0
1567412147.8125,3.54,0.124252,31.49,2152642.0
1567412147.828125,4.21,0.12169,31.49,2152955.0
1567412147.84375,4.99,0.120409,31.49,2153056.0
1567412147.859375,6.01,0.12169,31.49,2153708.0
1567412147.875,7.36,0.124252,31.49,2154203.0
1567412147.890625,9.12,0.124252,31.51,2154979.0
1567412147.90625,11.25,0.124252,31.51,2155966.0
1567412147.921875,13.68,0.125533,31.51,2156848.0
1567412147.9375,16.24,0.124252,31.51,2157620.0
1567412147.953125,18.7,0.12169,31.49,2158154.0
1567412147.96875,20.8,0.12169,31.49,2158586.0
1567412147.984375,22.25,0.117847,31.49,2158823.0
1567412148.0,22.83,0.119128,31.49,2157815.0
1567412148.015625,22.5,0.122971,31.49,2156550.0
1567412148.03125,21.42,0.122971,31.49,2155639.0
1567412148.046875,19.85,0.124252,31.49,2155554.0
1567412148.0625,18.14,0.125533,31.49,2155883.0
1567412148.078125,16.53,0.124252,31.45,2155864.0
1567412148.09375,15.07,0.12169,31.45,2154979.0
1567412148.109375,13.65,0.12169,31.45,2155164.0
1567412148.125,12.15,0.12169,31.45,2154321.0
1567412148.140625,10.56,0.120409,31.47,2154085.0
1567412148.15625,9.02,0.124252,31.47,2154093.0
1567412148.171875,7.82,0.124252,31.47,2154554.0
1567412148.1875,7.19,0.124252,31.47,2154587.0
1567412148.203125,7.16,0.122971,31.49,2155099.0
1567412148.21875,7.59,0.12169,31.49,2155358.0
1567412148.234375,8.21,0.12169,31.49,2155472.0
1567412148.25,8.76,0.12169,31.49,2155352.0
1567412148.265625,9.11,0.120409,31.49,2155379.0
1567412148.28125,9.19,0.124252,31.49,2154584.0
1567412148.296875,9.0,0.125533,31.49,2152870.0
1567412148.3125,8.56,0.125533,31.49,2151752.0
1567412148.328125,7.82,0.122971,31.49,2151000.0
1567412148.34375,6.83,0.124252,31.49,2150382.0
1567412148.359375,5.69,0.12169,31.49,2149753.0
1567412148.375,4.55,0.122971,31.49,2149547.0
1567412148.390625,3.58,0.12169,31.49,2149380.0
1567412148.40625,2.86,0.12169,31.49,2149760.0
1567412148.421875,2.37,0.122971,31.49,2149748.0
1567412148.4375,2.02,0.12169,31.49,2150252.0
1567412148.453125,1.69,0.125533,31.47,2150832.0
1567412148.46875,1.33,0.124252,31.47,2151508.0
1567412148.484375,0.94,0.125533,31.47,2151995.0
1567412148.5,0.52,0.12169,31.47,2152874.0
1567412148.515625,0.13,0.122971,31.47,2153815.0
1567412148.53125,-0.21,0.120409,31.47,2154266.0
1567412148.546875,-0.45,0.12169,31.47,2155114.0
1567412148.5625,-0.54,0.124252,31.47,2154985.0
1567412148.578125,-0.43,0.125533,31.49,2154554.0
1567412148.59375,-0.07,0.125533,31.49,2154059.0
1567412148.609375,0.46,0.124252,31.49,2153644.0
1567412148.625,1.05,0.125533,31.49,2153483.0
1567412148.640625,1.46,0.12169,31.49,2153286.0
1567412148.65625,1.54,0.12169,31.49,2153540.0
1567412148.671875,1.26,0.120409,31.49,2153474.0
1567412148.6875,0.73,0.124252,31.49,2153402.0
1567412148.703125,0.07,0.125533,31.47,2153900.0
1567412148.71875,-0.54,0.124252,31.47,2154154.0
1567412148.734375,-1.09,0.125533,31.47,2154646.0
1567412148.75,-1.63,0.125533,31.47,2155070.0
1567412148.765625,-2.29,0.120409,31.47,2155749.0
1567412148.78125,-3.12,0.12169,31.47,2156138.0
1567412148.796875,-4.06,0.122971,31.47,2156767.0
1567412148.8125,-5.05,0.122971,31.47,2157501.0
1567412148.828125,-6.06,0.125533,31.47,2157842.0
1567412148.84375,-7.16,0.125533,31.47,2158583.0
1567412148.859375,-8.46,0.125533,31.47,2158198.0
1567412148.875,-10.09,0.125533,31.47,2157566.0
1567412148.890625,-12.05,0.125533,31.47,2156787.0
1567412148.90625,-14.24,0.12169,31.47,2156360.0
1567412148.921875,-16.45,0.122971,31.47,2156171.0
1567412148.9375,-18.46,0.122971,31.47,2155817.0
1567412148.953125,-20.14,0.12169,31.47,2155971.0
1567412148.96875,-21.39,0.124252,31.47,2155970.0
1567412148.984375,-22.14,0.125533,31.47,2155991.0
1567412149.0,-22.35,0.126814,31.47,2156388.0
1567412149.015625,-21.98,0.125533,31.47,2156623.0
1567412149.03125,-21.07,0.122971,31.47,2157204.0
1567412149.046875,-19.73,0.122971,31.47,2157758.0
1567412149.0625,-18.13,0.122971,31.47,2158711.0
1567412149.078125,-16.53,0.122971,31.47,2159320.0
1567412149.09375,-15.16,0.124252,31.47,2159847.0
1567412149.109375,-14.16,0.126814,31.47,2160875.0
1567412149.125,-13.55,0.125533,31.47,2161964.0
1567412149.140625,-13.22,0.125533,31.47,2162930.0
1567412149.15625,-13.07,0.122971,31.47,2162874.0
1567412149.171875,-12.99,0.122971,31.47,2162583.0
1567412149.1875,-12.96,0.122971,31.47,2163281.0
1567412149.203125,-13.05,0.122971,31.45,2163569.0
1567412149.21875,-13.32,0.126814,31.45,2164531.0
1567412149.234375,-13.83,0.126814,31.45,2165071.0
1567412149.25,-14.51,0.125533,31.45,2165415.0
1567412149.265625,-15.21,0.125533,31.47,2166231.0
1567412149.28125,-15.71,0.125533,31.47,2166650.0
1567412149.296875,-15.74,0.124252,31.47,2167415.0
1567412149.3125,-15.01,0.124252,31.47,2168145.0
1567412149.328125,-13.35,0.122971,31.45,2169293.0
1567412149.34375,-10.71,0.125533,31.45,2170415.0
1567412149.359375,-7.27,0.126814,31.45,2171529.0
1567412149.375,-3.4,0.128094,31.45,2172846.0
1567412149.390625,0.41,0.126814,31.47,2174211.0
1567412149.40625,3.64,0.126814,31.47,2174498.0
1567412149.421875,6.01,0.124252,31.47,2173681.0
1567412149.4375,7.48,0.125533,31.47,2175973.0
1567412149.453125,8.2,0.124252,31.47,2176790.0
1567412149.46875,8.4,0.122971,31.47,2177455.0
1567412149.484375,8.22,0.128094,31.47,2177464.0
1567412149.5,7.73,0.128094,31.47,2176411.0
1567412149.515625,6.96,0.129375,31.45,2175816.0
1567412149.53125,6.05,0.126814,31.45,2175772.0
1567412149.546875,5.27,0.128094,31.45,2174830.0
1567412149.5625,4.92,0.124252,31.45,2174386.0
1567412149.578125,5.23,0.125533,31.45,2174351.0
1567412149.59375,6.13,0.122971,31.45,2173832.0
1567412149.609375,7.32,0.124252,31.45,2173679.0
1567412149.625,8.33,0.128094,31.45,2173709.0
1567412149.640625,8.79,0.124252,31.45,2173555.0
1567412149.65625,8.54,0.128094,31.45,2174102.0
1567412149.671875,7.73,0.128094,31.45,2174230.0
1567412149.6875,6.66,0.128094,31.45,2174320.0
1567412149.703125,5.69,0.125533,31.45,2174782.0
1567412149.71875,5.02,0.126814,31.45,2174999.0
1567412149.734375,4.72,0.124252,31.45,2174227.0
1567412149.75,4.7,0.125533,31.45,2173568.0
1567412149.765625,4.88,0.126814,31.45,2173128.0
1567412149.78125,5.18,0.128094,31.45,2172473.0
1567412149.796875,5.6,0.126814,31.45,2172171.0
1567412149.8125,6.1,0.128094,31.45,2172182.0
1567412149.828125,6.66,0.129375,31.43,2171904.0
1567412149.84375,7.23,0.124252,31.43,2172090.0
1567412149.859375,7.76,0.124252,31.43,2171968.0
1567412149.875,8.24,0.124252,31.43,2172449.0
1567412149.890625,8.74,0.124252,31.43,2172552.0
1567412149.90625,9.32,0.126814,31.43,2172654.0
1567412149.921875,10.02,0.129375,31.43,2173401.0
1567412149.9375,10.81,0.129375,31.43,2174010.0
1567412149.953125,11.59,0.128094,31.45,2174180.0
1567412149.96875,12.23,0.125533,31.45,2174952.0
1567412149.984375,12.62,0.125533,31.45,2175348.0
1567412150.0,12.67,0.124252,31.45,2175811.0
1567412150.015625,12.36,0.124252,31.43,2176081.0
1567412150.03125,11.74,0.126814,31.43,2175318.0
1567412150.046875,10.91,0.129375,31.43,2174793.0
1567412150.0625,9.96,0.128094,31.43,2174536.0
1567412150.078125,9.07,0.129375,31.43,2174637.0
1567412150.09375,8.35,0.128094,31.43,2174742.0
1567412150.109375,7.89,0.125533,31.43,2175432.0
1567412150.125,7.71,0.140904,31.43,2176053.0
1567412150.140625,7.72,0.125533,31.43,2176722.0
1567412150.15625,7.78,0.125533,31.43,2177492.0
1567412150.171875,7.72,0.129375,31.43,2178753.0
1567412150.1875,7.41,0.129375,31.43,2180247.0
1567412150.203125,6.83,0.128094,31.45,2181673.0
1567412150.21875,6.06,0.128094,31.45,2182775.0
1567412150.234375,5.22,0.126814,31.45,2184567.0
1567412150.25,4.43,0.125533,31.45,2186057.0
1567412150.265625,3.76,0.125533,31.43,2187427.0
1567412150.28125,3.15,0.125533,31.43,2188908.0
1567412150.296875,2.55,0.143466,31.43,2189199.0
1567412150.3125,1.94,0.124252,31.43,2189158.0
1567412150.328125,1.35,0.129375,31.43,2188899.0
1567412150.34375,0.84,0.129375,31.43,2188398.0
1567412150.359375,0.38,0.129375,31.43,2188217.0
1567412150.375,-0.13,0.125533,31.43,2188478.0
1567412150.390625,-0.85,0.125533,31.45,2188198.0
1567412150.40625,-1.9,0.125533,31.45,2188209.0
1567412150.421875,-3.19,0.128094,31.45,2188806.0
1567412150.4375,-4.45,0.126814,31.45,2188989.0
1567412150.453125,-5.28,0.129375,31.43,2189100.0
1567412150.46875,-5.36,0.128094,31.43,2189379.0
1567412150.484375,-4.51,0.129375,31.43,2189873.0
1567412150.5,-2.9,0.126814,31.43,2190503.0
1567412150.515625,-0.89,0.126814,31.41,2191100.0
1567412150.53125,1.06,0.125533,31.41,2191856.0
1567412150.546875,2.64,0.125533,31.41,2192514.0
1567412150.5625,3.69,0.128094,31.41,2192989.0
1567412150.578125,4.29,0.129375,31.41,2193718.0
1567412150.59375,4.6,0.130656,31.41,2193442.0
1567412150.609375,4.75,0.129375,31.41,2192416.0
1567412150.625,4.8,0.129375,31.41,2192060.0
1567412150.640625,4.77,0.126814,31.43,2191828.0
1567412150.65625,4.73,0.126814,31.43,2191496.0
1567412150.671875,4.85,0.125533,31.43,2191657.0
1567412150.6875,5.34,0.125533,31.43,2191527.0
1567412150.703125,6.35,0.126814,31.43,2191677.0
1567412150.71875,7.83,0.130656,31.43,2191757.0
1567412150.734375,9.51,0.130656,31.43,2192060.0
1567412150.75,10.96,0.128094,31.43,2192542.0
1567412150.765625,11.82,0.128094,31.41,2192905.0
1567412150.78125,11.94,0.126814,31.41,2193402.0
1567412150.796875,11.36,0.126814,31.41,2194080.0
1567412150.8125,10.21,0.125533,31.41,2195004.0
1567412150.828125,8.68,0.128094,31.43,2195346.0
1567412150.84375,6.85,0.128094,31.43,2196283.0
1567412150.859375,4.8,0.129375,31.43,2196902.0
1567412150.875,2.6,0.129375,31.43,2197019.0
1567412150.890625,0.43,0.129375,31.43,2196610.0
1567412150.90625,-1.59,0.129375,31.43,2195843.0
1567412150.921875,-3.38,0.126814,31.43,2195177.0
1567412150.9375,-4.99,0.125533,31.43,2194644.0
1567412150.953125,-6.48,0.125533,31.41,2194202.0
1567412150.96875,-7.88,0.125533,31.41,2194002.0
1567412150.984375,-9.07,0.128094,31.41,2193739.0
1567412151.0,-9.82,0.130656,31.41,2193529.0
1567412151.015625,-9.93,0.130656,31.39,2192979.0
1567412151.03125,-9.35,0.129375,31.39,2192840.0
1567412151.046875,-8.28,0.129375,31.39,2192290.0
1567412151.0625,-7.05,0.126814,31.39,2192238.0
1567412151.078125,-6.11,0.126814,31.41,2192402.0
1567412151.09375,-5.71,0.125533,31.41,2192911.0
1567412151.109375,-5.91,0.125533,31.41,2193299.0
1567412151.125,-6.58,0.128094,31.41,2194021.0
1567412151.140625,-7.46,0.129375,31.41,2194425.0
1567412151.15625,-8.33,0.129375,31.41,2194989.0
1567412151.171875,-9.06,0.129375,31.41,2195220.0
1567412151.1875,-9.56,0.125533,31.41,2194424.0
1567412151.203125,-9.7,0.126814,31.41,2193376.0
1567412151.21875,-9.29,0.125533,31.41,2192367.0
1567412151.234375,-8.15,0.125533,31.41,2190973.0
1567412151.25,-6.19,0.128094,31.41,2190016.0
1567412151.265625,-3.63,0.129375,31.43,2188945.0
1567412151.28125,-0.91,0.128094,31.43,2187770.0
1567412151.296875,1.38,0.128094,31.43,2187098.0
1567412151.3125,2.83,0.129375,31.43,2186194.0
1567412151.328125,3.28,0.126814,31.41,2185391.0
1567412151.34375,3.02,0.126814,31.41,2185201.0
1567412151.359375,2.58,0.125533,31.41,2184743.0
1567412151.375,2.47,0.125533,31.41,2184313.0
1567412151.390625,2.98,0.129375,31.39,2184332.0
1567412151.40625,4.01,0.130656,31.39,2184590.0
1567412151.421875,5.23,0.130656,31.39,2185396.0
1567412151.4375,6.16,0.128094,31.39,2186269.0
1567412151.453125,6.45,0.126814,31.41,2187490.0
1567412151.46875,5.95,0.126814,31.41,2188233.0
1567412151.484375,4.8,0.126814,31.41,2188336.0
1567412151.5,3.25,0.126814,31.41,2188475.0
1567412151.515625,1.62,0.128094,31.41,2188438.0
1567412151.53125,0.19,0.130656,31.41,2188767.0
1567412151.546875,-0.86,0.130656,31.41,2188778.0
1567412151.5625,-1.46,0.129375,31.41,2189022.0
1567412151.578125,-1.6,0.126814,31.37,2189816.0
1567412151.59375,-1.34,0.126814,31.37,2189901.0
1567412151.609375,-0.8,0.128094,31.37,2190145.0
1567412151.625,-0.15,0.126814,31.37,2190432.0
1567412151.640625,0.45,0.130656,31.39,2190804.0
1567412151.65625,0.96,0.130656,31.39,2191328.0
1567412151.671875,1.4,0.130656,31.39,2191708.0
1567412151.6875,1.9,0.130656,31.39,2192447.0
1567412151.703125,2.5,0.130656,31.41,2193176.0
1567412151.71875,3.19,0.128094,31.41,2193816.0
1567412151.734375,3.79,0.126814,31.41,2194779.0
1567412151.75,4.11,0.126814,31.41,2195159.0
1567412151.765625,4.06,0.128094,31.41,2195248.0
1567412151.78125,3.71,0.129375,31.41,2194451.0
1567412151.796875,3.35,0.130656,31.41,2194043.0
1567412151.8125,3.25,0.130656,31.41,2194391.0
1567412151.828125,3.56,0.130656,31.41,2194272.0
1567412151.84375,4.19,0.126814,31.41,2194308.0
1567412151.859375,4.88,0.129375,31.41,2194600.0
1567412151.875,5.38,0.126814,31.41,2194440.0
1567412151.890625,5.58,0.126814,31.39,2194969.0
1567412151.90625,5.61,0.130656,31.39,2194805.0
1567412151.921875,5.66,0.130656,31.39,2195143.0
1567412151.9375,5.94,0.131937,31.39,2194751.0
1567412151.953125,6.52,0.131937,31.41,2195687.0
1567412151.96875,7.3,0.128094,31.41,2195569.0
1567412151.984375,8.12,0.128094,31.41,2195542.0
1567412152.0,8.82,0.128094,31.41,2196724.0
1567412152.015625,9.3,0.128094,31.39,2197328.0
1567412152.03125,9.54,0.130656,31.39,2197144.0
1567412152.046875,9.58,0.131937,31.39,2196112.0
1567412152.0625,9.46,0.131937,31.39,2195597.0
1567412152.078125,9.26,0.130656,31.39,2194749.0
1567412152.09375,9.14,0.130656,31.39,2194518.0
1567412152.109375,9.26,0.128094,31.39,2194490.0
1567412152.125,9.77,0.129375,31.39,2194908.0
1567412152.140625,10.7,0.128094,31.39,2195274.0
1567412152.15625,12.02,0.128094,31.39,2194205.0
1567412152.171875,13.56,0.130656,31.39,2195347.0
1567412152.1875,15.21,0.130656,31.39,2196182.0
1567412152.203125,16.84,0.131937,31.41,2202393.0
1567412152.21875,18.34,0.130656,31.41,2205729.0
1567412152.234375,19.61,0.130656,31.41,2207981.0
1567412152.25,20.47,0.128094,31.41,2209118.0
1567412152.265625,20.71,0.128094,31.39,2199303.0
1567412152.28125,20.05,0.128094,31.39,2208921.0
1567412152.296875,18.35,0.130656,31.39,2206776.0
1567412152.3125,15.63,0.131937,31.39,2204617.0
1567412152.328125,12.13,0.130656,31.37,2192813.0
1567412152.34375,8.31,0.130656,31.37,2196444.0
1567412152.359375,4.63,0.130656,31.37,2201407.0
1567412152.375,1.46,0.130656,31.37,2194696.0
1567412152.390625,-1.08,0.129375,31.39,2188285.0
1567412152.40625,-3.03,0.129375,31.39,2198429.0
1567412152.421875,-4.57,0.130656,31.39,2189564.0
1567412152.4375,-5.89,0.130656,31.39,2191037.0
1567412152.453125,-7.06,0.134499,31.37,2187343.0
1567412152.46875,-8.17,0.131937,31.37,2186923.0
1567412152.484375,-9.23,0.130656,31.37,2186559.0
1567412152.5,-10.32,0.130656,31.37,2186245.0
1567412152.515625,-11.45,0.128094,31.41,2186211.0
1567412152.53125,-12.53,0.129375,31.41,2186176.0
1567412152.546875,-13.41,0.129375,31.41,2185819.0
1567412152.5625,-13.91,0.129375,31.41,2164566.0
1567412152.578125,-13.95,0.131937,31.37,2164638.0
1567412152.59375,-13.69,0.130656,31.37,2167925.0
1567412152.609375,-13.4,0.133218,31.37,2164655.0
1567412152.625,-13.36,0.130656,31.37,2164270.0
1567412152.640625,-13.76,0.131937,31.39,2164349.0
1567412152.65625,-14.52,0.129375,31.39,2171518.0
1567412152.671875,-15.52,0.129375,31.39,2169734.0
1567412152.6875,-16.64,0.128094,31.39,2178772.0
1567412152.703125,-17.8,0.128094,31.39,2173671.0
1567412152.71875,-18.97,0.130656,31.39,2183513.0
1567412152.734375,-20.04,0.129375,31.39,2181298.0
1567412152.75,-20.83,0.131937,31.39,2165406.0
1567412152.765625,-21.06,0.131937,31.37,2175867.0
1567412152.78125,-20.53,0.133218,31.37,2166155.0
1567412152.796875,-19.25,0.129375,31.37,2185402.0
1567412152.8125,-17.46,0.130656,31.37,2165163.0
1567412152.828125,-15.52,0.129375,31.37,2165256.0
1567412152.84375,-13.73,0.131937,31.37,2165701.0
1567412152.859375,-12.22,0.133218,31.37,2165214.0
1567412152.875,-10.9,0.133218,31.37,2163783.0
1567412152.890625,-9.66,0.134499,31.35,2162169.0
1567412152.90625,-8.47,0.131937,31.35,2162169.0
1567412152.921875,-7.42,0.129375,31.35,2160631.0
1567412152.9375,-6.64,0.130656,31.35,2159365.0
1567412152.953125,-6.13,0.128094,31.39,2158495.0
1567412152.96875,-5.65,0.131937,31.39,2158047.0
1567412152.984375,-4.81,0.133218,31.39,2157811.0
1567412153.0,-3.31,0.131937,31.39,2157751.0
1567412153.015625,-1.1,0.133218,31.39,2157909.0
1567412153.03125,1.5,0.130656,31.39,2158237.0
1567412153.046875,3.92,0.129375,31.39,2158560.0
1567412153.0625,5.67,0.129375,31.39,2159112.0
1567412153.078125,6.56,0.130656,31.37,2159488.0
1567412153.09375,6.81,0.130656,31.37,2160376.0
1567412153.109375,6.91,0.130656,31.37,2160495.0
1567412153.125,7.29,0.134499,31.37,2162220.0
1567412153.140625,8.01,0.133218,31.37,2161316.0
1567412153.15625,8.79,0.133218,31.37,2162782.0
1567412153.171875,9.11,0.130656,31.37,2163584.0
1567412153.1875,8.73,0.130656,31.37,2163741.0
1567412153.203125,7.92,0.130656,31.37,2160739.0
1567412153.21875,7.6,0.133218,31.37,2163111.0
1567412153.234375,8.98,0.131937,31.37,2161872.0
1567412153.25,13.07,0.13578,31.37,2159807.0
1567412153.265625,20.08,0.134499,31.35,2158989.0
1567412153.28125,29.21,0.133218,31.35,2158189.0
1567412153.296875,38.72,0.130656,31.35,2156631.0
1567412153.3125,46.44,0.130656,31.35,2156404.0
1567412153.328125,50.35,0.129375,31.39,2156373.0
1567412153.34375,49.02,0.130656,31.39,2156114.0
1567412153.359375,41.92,0.134499,31.39,2157180.0
1567412153.375,29.32,0.134499,31.39,2156230.0
1567412153.390625,12.27,0.133218,31.35,2156358.0
1567412153.40625,-7.62,0.130656,31.35,2156780.0
1567412153.421875,-28.26,0.130656,31.35,2156937.0
1567412153.4375,-47.26,0.133218,31.35,2156815.0
1567412153.453125,-62.31,0.130656,31.35,2155546.0
1567412153.46875,-71.63,0.134499,31.35,2154185.0
1567412153.484375,-74.54,0.133218,31.35,2152634.0
1567412153.5,-71.67,0.133218,31.35,2151338.0
1567412153.515625,-64.87,0.133218,31.35,2150178.0
1567412153.53125,-56.44,0.130656,31.35,2149224.0
1567412153.546875,-48.56,0.130656,31.35,2148717.0
1567412153.5625,-42.53,0.130656,31.35,2149823.0
1567412153.578125,-38.68,0.130656,31.35,2148347.0
1567412153.59375,-36.61,0.133218,31.35,2147879.0
1567412153.609375,-35.62,0.133218,31.35,2147649.0
1567412153.625,-35.07,0.133218,31.35,2147772.0
1567412153.640625,-34.46,0.134499,31.37,2147698.0
1567412153.65625,-33.29,0.133218,31.37,2147903.0
1567412153.671875,-31.06,0.130656,31.37,2148234.0
1567412153.6875,-27.33,0.130656,31.37,2148537.0
1567412153.703125,-22.03,0.130656,31.35,2148896.0
1567412153.71875,-15.6,0.133218,31.35,2149341.0
1567412153.734375,-8.91,0.13578,31.35,2148782.0
1567412153.75,-2.92,0.134499,31.35,2147607.0
1567412153.765625,1.78,0.133218,31.37,2146153.0
1567412153.78125,5.18,0.13578,31.37,2145363.0
1567412153.796875,7.76,0.131937,31.37,2144684.0
1567412153.8125,10.17,0.130656,31.37,2144105.0
1567412153.828125,12.91,0.133218,31.33,2143926.0
1567412153.84375,16.14,0.130656,31.33,2143729.0
1567412153.859375,19.65,0.133218,31.33,2143836.0
1567412153.875,23.03,0.133218,31.33,2144869.0
1567412153.890625,25.75,0.133218,31.37,2145231.0
1567412153.90625,27.35,0.133218,31.37,2146408.0
1567412153.921875,27.47,0.131937,31.37,2147560.0
1567412153.9375,25.99,0.131937,31.37,2149075.0
1567412153.953125,23.12,0.130656,31.35,2151949.0
1567412153.96875,19.41,0.130656,31.35,2150262.0
1567412153.984375,15.59,0.134499,31.35,2153348.0
1567412154.0,12.35,0.134499,31.35,2154856.0
1567412154.015625,10.13,0.134499,31.37,2156340.0
1567412154.03125,8.98,0.134499,31.37,2156929.0
1567412154.046875,8.69,0.133218,31.37,2155970.0
1567412154.0625,8.87,0.133218,31.37,2154853.0
1567412154.078125,9.22,0.131937,31.33,2153678.0
1567412154.09375,9.53,0.131937,31.33,2152942.0
1567412154.109375,9.72,0.131937,31.33,2153428.0
1567412154.125,9.78,0.13578,31.33,2153481.0
1567412154.140625,9.74,0.13578,31.35,2154549.0
1567412154.15625,9.71,0.13578,31.35,2157304.0
1567412154.171875,9.89,0.13578,31.35,2159452.0
1567412154.1875,10.5,0.133218,31.35,2163464.0
1567412154.203125,11.67,0.13578,31.33,2161784.0
1567412154.21875,13.36,0.131937,31.33,2164330.0
1567412154.234375,15.29,0.133218,31.33,2165553.0
1567412154.25,17.02,0.131937,31.33,2166126.0
1567412154.265625,18.09,0.130656,31.35,2165654.0
1567412154.28125,18.29,0.134499,31.35,2164955.0
1567412154.296875,17.62,0.133218,31.35,2163345.0
1567412154.3125,16.37,0.13578,31.35,2160584.0
1567412154.328125,14.92,0.13578,31.35,2158562.0
1567412154.34375,13.63,0.134499,31.35,2156264.0
1567412154.359375,12.62,0.131937,31.35,2153973.0
1567412154.375,11.87,0.131937,31.35,2152578.0
1567412154.390625,11.24,0.131937,31.35,2151263.0
1567412154.40625,10.65,0.131937,31.35,2149978.0
1567412154.421875,10.07,0.134499,31.35,2148945.0
1567412154.4375,9.64,0.13578,31.35,2147864.0
1567412154.453125,9.47,0.13578,31.35,2147398.0
1567412154.46875,9.59,0.134499,31.35,2147024.0
1567412154.484375,9.94,0.13578,31.35,2148058.0
1567412154.5,10.27,0.131937,31.35,2148610.0
1567412154.515625,10.41,0.131937,31.31,2149161.0
1567412154.53125,10.2,0.131937,31.31,2149569.0
1567412154.546875,9.73,0.134499,31.31,2150070.0
1567412154.5625,9.16,0.133218,31.31,2150028.0
1567412154.578125,8.68,0.13578,31.33,2148593.0
1567412154.59375,8.41,0.13578,31.33,2145989.0
1567412154.609375,8.28,0.13578,31.33,2143134.0
1567412154.625,8.14,0.13578,31.33,2139779.0
1567412154.640625,7.8,0.138342,31.35,2137215.0
1567412154.65625,7.13,0.133218,31.35,2135061.0
1567412154.671875,6.11,0.134499,31.35,2133264.0
1567412154.6875,4.83,0.133218,31.35,2131626.0
1567412154.703125,3.41,0.134499,31.33,2129791.0
1567412154.71875,2.02,0.13578,31.33,2128145.0
1567412154.734375,0.79,0.134499,31.33,2127120.0
1567412154.75,-0.21,0.13578,31.33,2126308.0
1567412154.765625,-0.99,0.13578,31.35,2125674.0
1567412154.78125,-1.65,0.13578,31.35,2125530.0
1567412154.796875,-2.3,0.133218,31.35,2125491.0
1567412154.8125,-3.05,0.133218,31.35,2125609.0
1567412154.828125,-3.96,0.133218,31.35,2125600.0
1567412154.84375,-4.91,0.133218,31.35,2126151.0
1567412154.859375,-5.67,0.137061,31.35,2126262.0
1567412154.875,-6.01,0.13578,31.35,2124899.0
1567412154.890625,-5.68,0.137061,31.33,2123148.0
1567412154.90625,-4.6,0.137061,31.33,2121434.0
1567412154.921875,-2.84,0.13578,31.33,2120068.0
1567412154.9375,-0.64,0.133218,31.33,2118763.0
1567412154.953125,1.68,0.133218,31.33,2118087.0
1567412154.96875,3.88,0.133218,31.33,2118242.0
1567412154.984375,5.8,0.133218,31.33,2117736.0
1567412155.0,7.38,0.137061,31.33,2117125.0
1567412155.015625,8.64,0.137061,31.33,2116834.0
1567412155.03125,9.54,0.137061,31.33,2116642.0
1567412155.046875,10.03,0.13578,31.33,2116504.0
1567412155.0625,10.04,0.137061,31.33,2116893.0
1567412155.078125,9.6,0.133218,31.33,2117612.0
1567412155.09375,8.83,0.133218,31.33,2118024.0
1567412155.109375,7.97,0.133218,31.33,2119076.0
1567412155.125,7.15,0.133218,31.33,2119406.0
1567412155.140625,6.43,0.138342,31.31,2120551.0
1567412155.15625,5.69,0.13578,31.31,2119960.0
1567412155.171875,4.88,0.138342,31.31,2122780.0
1567412155.1875,4.02,0.138342,31.31,2124910.0
1567412155.203125,3.32,0.137061,31.35,2126151.0
1567412155.21875,3.07,0.134499,31.35,2125192.0
1567412155.234375,3.47,0.134499,31.35,2124100.0
1567412155.25,4.5,0.134499,31.35,2123299.0
1567412155.265625,5.89,0.133218,31.33,2121840.0
1567412155.28125,7.25,0.137061,31.33,2121037.0
1567412155.296875,8.26,0.138342,31.33,2119526.0
1567412155.3125,8.79,0.137061,31.33,2118413.0
1567412155.328125,8.92,0.137061,31.33,2117585.0
1567412155.34375,8.84,0.13578,31.33,2116733.0
1567412155.359375,8.77,0.13578,31.33,2116102.0
1567412155.375,8.79,0.134499,31.33,2115566.0
1567412155.390625,8.89,0.134499,31.31,2115566.0
1567412155.40625,8.94,0.134499,31.31,2115101.0
1567412155.421875,8.9,0.137061,31.31,2114926.0
1567412155.4375,8.73,0.138342,31.31,2114777.0
1567412155.453125,8.47,0.138342,31.33,2113686.0
1567412155.46875,8.14,0.134499,31.33,2111416.0
1567412155.484375,7.7,0.137061,31.33,2109211.0
1567412155.5,7.1,0.137061,31.33,2107279.0
1567412155.515625,6.32,0.134499,31.33,2105590.0
1567412155.53125,5.4,0.133218,31.33,2104416.0
1567412155.546875,4.45,0.133218,31.33,2103405.0
1567412155.5625,3.55,0.133218,31.33,2102232.0
1567412155.578125,2.7,0.134499,31.31,2101030.0
1567412155.59375,1.73,0.13578,31.31,2100259.0
1567412155.609375,0.4,0.137061,31.31,2099545.0
1567412155.625,-1.45,0.137061,31.31,2099165.0
1567412155.640625,-3.78,0.137061,31.33,2098912.0
1567412155.65625,-6.27,0.134499,31.33,2098564.0
1567412155.671875,-8.51,0.134499,31.33,2098242.0
1567412155.6875,-10.09,0.13578,31.33,2098456.0
1567412155.703125,-10.76,0.134499,31.33,2098814.0
1567412155.71875,-10.48,0.134499,31.33,2098778.0
1567412155.734375,-9.31,0.138342,31.33,2098585.0
1567412155.75,-7.38,0.137061,31.33,2096991.0
1567412155.765625,-4.86,0.137061,31.31,2094852.0
1567412155.78125,-2.09,0.138342,31.31,2093014.0
1567412155.796875,0.46,0.137061,31.31,2091128.0
1567412155.8125,2.22,0.134499,31.31,2089673.0
1567412155.828125,2.74,0.13578,31.31,2089356.0
1567412155.84375,1.89,0.134499,31.31,2090274.0
1567412155.859375,0.0,0.133218,31.31,2091229.0
1567412155.875,-2.29,0.13578,31.31,2092605.0
1567412155.890625,-4.29,0.138342,31.31,2093996.0
1567412155.90625,-5.55,0.138342,31.31,2095594.0
1567412155.921875,-6.05,0.138342,31.31,2097713.0
1567412155.9375,-6.04,0.138342,31.31,2100022.0
1567412155.953125,-5.91,0.134499,31.31,2102290.0
1567412155.96875,-5.89,0.134499,31.31,2104876.0
1567412155.984375,-6.08,0.13578,31.31,2106903.0
1567412156.0,-6.43,0.134499,31.31,2109312.0
1567412156.015625,-6.9,0.134499,31.33,2112770.0
1567412156.03125,-7.58,0.13578,31.33,2115236.0
1567412156.046875,-8.53,0.138342,31.33,2115360.0
1567412156.0625,-9.81,0.138342,31.33,2115450.0
1567412156.078125,-11.3,0.138342,31.31,2115376.0
1567412156.09375,-12.83,0.137061,31.31,2116145.0
1567412156.109375,-14.14,0.137061,31.31,2116899.0
1567412156.125,-15.02,0.134499,31.31,2119870.0
1567412156.140625,-15.4,0.134499,31.33,2120153.0
1567412156.15625,-15.34,0.134499,31.33,2122998.0
1567412156.171875,-15.01,0.133218,31.33,2125028.0
1567412156.1875,-14.57,0.133218,31.33,2126255.0
1567412156.203125,-14.15,0.138342,31.31,2126036.0
1567412156.21875,-13.75,0.137061,31.31,2125956.0
1567412156.234375,-13.3,0.138342,31.31,2125591.0
1567412156.25,-12.74,0.138342,31.31,2125634.0
1567412156.265625,-12.05,0.138342,31.33,2125859.0
1567412156.28125,-11.38,0.13578,31.33,2125713.0
1567412156.296875,-10.94,0.134499,31.33,2124659.0
1567412156.3125,-10.93,0.13578,31.33,2123933.0
1567412156.328125,-11.35,0.134499,31.31,2122454.0
1567412156.34375,-11.96,0.134499,31.31,2120140.0
1567412156.359375,-12.34,0.137061,31.31,2117331.0
1567412156.375,-12.05,0.138342,31.31,2114940.0
1567412156.390625,-10.82,0.137061,31.31,2112190.0
1567412156.40625,-8.65,0.138342,31.31,2109343.0
1567412156.421875,-5.8,0.138342,31.31,2106895.0
1567412156.4375,-2.68,0.138342,31.31,2104898.0
1567412156.453125,0.32,0.139623,31.31,2103425.0
1567412156.46875,2.9,0.13578,31.31,2101662.0
1567412156.484375,4.95,0.13578,31.31,2100089.0
1567412156.5,6.45,0.13578,31.31,2098734.0
1567412156.515625,7.53,0.13578,31.31,2097566.0
1567412156.53125,8.36,0.138342,31.31,2096996.0
1567412156.546875,9.1,0.139623,31.31,2096271.0
1567412156.5625,9.94,0.139623,31.31,2095133.0
1567412156.578125,11.0,0.139623,31.31,2094489.0
1567412156.59375,12.34,0.138342,31.31,2093944.0
1567412156.609375,13.81,0.139623,31.31,2093358.0
1567412156.625,15.24,0.13578,31.31,2092509.0
1567412156.640625,16.38,0.137061,31.31,2089886.0
1567412156.65625,17.03,0.13578,31.31,2087740.0
1567412156.671875,17.17,0.13578,31.31,2085452.0
1567412156.6875,16.95,0.138342,31.31,2083409.0
1567412156.703125,16.67,0.137061,31.31,2081880.0
1567412156.71875,16.56,0.138342,31.31,2080776.0
1567412156.734375,16.77,0.139623,31.31,2079740.0
1567412156.75,17.18,0.139623,31.31,2078495.0
1567412156.765625,17.52,0.137061,31.31,2077394.0
1567412156.78125,17.48,0.13578,31.31,2077273.0
1567412156.796875,16.79,0.13578,31.31,2078482.0
1567412156.8125,15.33,0.13578,31.31,2079429.0
1567412156.828125,13.18,0.138342,31.31,2081580.0
1567412156.84375,10.5,0.138342,31.31,2084535.0
1567412156.859375,7.6,0.138342,31.31,2087201.0
1567412156.875,4.79,0.138342,31.31,2089804.0
1567412156.890625,2.24,0.138342,31.31,2093079.0
1567412156.90625,0.03,0.139623,31.31,2095805.0
1567412156.921875,-1.92,0.13578,31.31,2097160.0
1567412156.9375,-3.73,0.137061,31.31,2098175.0
1567412156.953125,-5.41,0.137061,31.33,2099180.0
1567412156.96875,-6.89,0.13578,31.33,2100066.0
1567412156.984375,-7.95,0.137061,31.33,2101236.0
1567412157.0,-8.46,0.139623,31.33,2102631.0
1567412157.015625,-8.41,0.139623,31.31,2103931.0
1567412157.03125,-8.07,0.138342,31.31,2105558.0
1567412157.046875,-7.76,0.139623,31.31,2106977.0
1567412157.0625,-7.73,0.138342,31.31,2108608.0
1567412157.078125,-8.06,0.137061,31.29,2110460.0
1567412157.09375,-8.54,0.137061,31.29,2112220.0
1567412157.109375,-8.93,0.138342,31.29,2114052.0
1567412157.125,-9.04,0.137061,31.29,2117705.0
1567412157.140625,-8.87,0.138342,31.31,2119719.0
1567412157.15625,-8.55,0.140904,31.31,2121228.0
1567412157.171875,-8.17,0.140904,31.31,2123834.0
1567412157.1875,-7.66,0.140904,31.31,2126958.0
1567412157.203125,-6.84,0.139623,31.29,2128415.0
1567412157.21875,-5.48,0.139623,31.29,2128123.0
1567412157.234375,-3.51,0.137061,31.29,2124531.0
1567412157.25,-1.08,0.138342,31.29,2120334.0
1567412157.265625,1.5,0.13578,31.31,2116494.0
1567412157.28125,3.9,0.13578,31.31,2113268.0
1567412157.296875,5.9,0.139623,31.31,2110544.0
1567412157.3125,7.47,0.137061,31.31,2107759.0
1567412157.328125,8.64,0.139623,31.29,2105769.0
1567412157.34375,9.43,0.140904,31.29,2103612.0
1567412157.359375,9.81,0.139623,31.29,2102293.0
1567412157.375,9.71,0.138342,31.29,2101043.0
1567412157.390625,9.09,0.137061,31.29,2100337.0
1567412157.40625,8.06,0.137061,31.29,2100084.0
1567412157.421875,6.83,0.137061,31.29,2099320.0
1567412157.4375,5.65,0.139623,31.29,2098564.0
1567412157.453125,4.69,0.140904,31.29,2098126.0
1567412157.46875,4.01,0.139623,31.29,2097813.0
1567412157.484375,3.51,0.140904,31.29,2096092.0
1567412157.5,3.09,0.139623,31.29,2093574.0
1567412157.515625,2.65,0.138342,31.29,2091344.0
1567412157.53125,2.18,0.137061,31.29,2089188.0
1567412157.546875,1.73,0.138342,31.29,2087267.0
1567412157.5625,1.3,0.138342,31.29,2085626.0
1567412157.578125,0.83,0.139623,31.29,2084407.0
1567412157.59375,0.24,0.139623,31.29,2083022.0
1567412157.609375,-0.48,0.139623,31.29,2081614.0
1567412157.625,-1.27,0.140904,31.29,2080645.0
1567412157.640625,-1.97,0.139623,31.29,2079736.0
1567412157.65625,-2.47,0.138342,31.29,2079401.0
1567412157.671875,-2.72,0.137061,31.29,2078848.0
1567412157.6875,-2.79,0.137061,31.29,2078396.0
1567412157.703125,-2.82,0.138342,31.29,2078271.0
1567412157.71875,-2.89,0.138342,31.29,2077960.0
1567412157.734375,-3.02,0.140904,31.29,2078052.0
1567412157.75,-3.18,0.142185,31.29,2077947.0
1567412157.765625,-3.33,0.142185,31.29,2077654.0
1567412157.78125,-3.43,0.140904,31.29,2076743.0
1567412157.796875,-3.53,0.140904,31.29,2076638.0
1567412157.8125,-3.67,0.139623,31.29,2078130.0
1567412157.828125,-3.85,0.138342,31.29,2079421.0
1567412157.84375,-4.04,0.138342,31.29,2081782.0
1567412157.859375,-4.13,0.139623,31.29,2085211.0
1567412157.875,-4.06,0.138342,31.29,2088789.0
1567412157.890625,-3.79,0.140904,31.27,2092022.0
1567412157.90625,-3.36,0.142185,31.27,2096092.0
1567412157.921875,-2.78,0.142185,31.27,2099723.0
1567412157.9375,-2.14,0.140904,31.27,2102981.0
1567412157.953125,-1.42,0.140904,31.29,2105825.0
1567412157.96875,-0.58,0.138342,31.29,2108277.0
1567412157.984375,0.44,0.139623,31.29,2110713.0
1567412158.0,1.74,0.139623,31.29,2114303.0
1567412158.015625,3.29,0.138342,31.27,2117225.0
1567412158.03125,5.02,0.139623,31.27,2119542.0
1567412158.046875,6.73,0.138342,31.27,2120831.0
1567412158.0625,8.26,0.142185,31.27,2120635.0
1567412158.078125,9.47,0.140904,31.29,2121155.0
1567412158.09375,10.33,0.142185,31.29,2119586.0
1567412158.109375,10.84,0.139623,31.29,2121567.0
1567412158.125,11.07,0.139623,31.29,2124222.0
1567412158.140625,11.11,0.139623,31.29,2126347.0
1567412158.15625,11.02,0.138342,31.29,2127012.0
1567412158.171875,10.83,0.140904,31.29,2127371.0
1567412158.1875,10.57,0.143466,31.29,2127379.0
1567412158.203125,10.33,0.142185,31.27,2127006.0
1567412158.21875,10.11,0.142185,31.27,2127851.0
1567412158.234375,9.93,0.140904,31.27,2127279.0
1567412158.25,9.67,0.139623,31.27,2126556.0
1567412158.265625,9.22,0.138342,31.29,2124549.0
1567412158.28125,8.43,0.138342,31.29,2122032.0
1567412158.296875,7.33,0.139623,31.29,2120776.0
1567412158.3125,6.1,0.140904,31.29,2119176.0
1567412158.328125,4.98,0.143466,31.27,2117119.0
1567412158.34375,4.14,0.142185,31.27,2113924.0
1567412158.359375,3.66,0.140904,31.27,2109774.0
1567412158.375,3.41,0.142185,31.27,2106267.0
1567412158.390625,3.23,0.140904,31.29,2103012.0
1567412158.40625,2.96,0.138342,31.29,2100231.0
1567412158.421875,2.63,0.139623,31.29,2097858.0
1567412158.4375,2.25,0.138342,31.29,2095301.0
1567412158.453125,1.83,0.139623,31.27,2092604.0
1567412158.46875,1.26,0.142185,31.27,2090001.0
1567412158.484375,0.38,0.140904,31.27,2087722.0
1567412158.5,-0.96,0.142185,31.27,2085528.0
1567412158.515625,-2.69,0.142185,31.29,2083527.0
1567412158.53125,-4.64,0.142185,31.29,2082350.0
1567412158.546875,-6.65,0.138342,31.29,2080859.0
1567412158.5625,-8.63,0.138342,31.29,2079366.0
1567412158.578125,-10.63,0.138342,31.27,2078194.0
1567412158.59375,-12.72,0.138342,31.27,2077116.0
1567412158.609375,-14.9,0.140904,31.27,2075884.0
1567412158.625,-17.03,0.142185,31.27,2074203.0
1567412158.640625,-18.87,0.142185,31.29,2070833.0
1567412158.65625,-20.27,0.143466,31.29,2067389.0
1567412158.671875,-21.12,0.140904,31.29,2064453.0
1567412158.6875,-21.46,0.139623,31.29,2061302.0
1567412158.703125,-21.23,0.139623,31.27,2058884.0
1567412158.71875,-20.25,0.138342,31.27,2056851.0
1567412158.734375,-18.28,0.139623,31.27,2054433.0
1567412158.75,-15.18,0.142185,31.27,2053185.0
1567412158.765625,-11.1,0.143466,31.29,2051366.0
1567412158.78125,-6.52,0.143466,31.29,2050333.0
1567412158.796875,-2.19,0.142185,31.29,2050800.0
1567412158.8125,1.23,0.142185,31.29,2050950.0
1567412158.828125,3.39,0.139623,31.29,2052277.0
1567412158.84375,4.33,0.138342,31.29,2054209.0
1567412158.859375,4.49,0.139623,31.29,2054967.0
1567412158.875,4.32,0.138342,31.29,2055231.0
1567412158.890625,4.24,0.140904,31.29,2055054.0
1567412158.90625,4.39,0.140904,31.29,2054535.0
1567412158.921875,4.77,0.143466,31.29,2053033.0
1567412158.9375,5.27,0.143466,31.29,2050054.0
1567412158.953125,5.85,0.142185,31.27,2048087.0
1567412158.96875,6.53,0.139623,31.27,2045514.0
1567412158.984375,7.31,0.139623,31.27,2042986.0
1567412159.0,8.07,0.140904,31.27,2041497.0
1567412159.015625,8.56,0.139623,31.29,2041458.0
1567412159.03125,8.53,0.140904,31.29,2041569.0
1567412159.046875,7.8,0.143466,31.29,2040215.0
1567412159.0625,6.45,0.140904,31.29,2041786.0
1567412159.078125,4.73,0.142185,31.25,2043573.0
1567412159.09375,3.06,0.142185,31.25,2046071.0
1567412159.109375,1.71,0.139623,31.25,2048414.0
1567412159.125,0.79,0.139623,31.25,2048315.0
1567412159.140625,0.19,0.139623,31.27,2046688.0
1567412159.15625,-0.27,0.139623,31.27,2045343.0
1567412159.171875,-0.63,0.142185,31.27,2041543.0
1567412159.1875,-0.85,0.143466,31.27,2043745.0
1567412159.203125,-0.83,0.143466,31.27,2039557.0
1567412159.21875,-0.56,0.142185,31.27,2036128.0
1567412159.234375,-0.26,0.140904,31.27,2032352.0
1567412159.25,-0.28,0.139623,31.27,2028834.0
1567412159.265625,-0.98,0.139623,31.27,2025483.0
1567412159.28125,-2.45,0.138342,31.27,2023049.0
1567412159.296875,-4.46,0.138342,31.27,2020829.0
1567412159.3125,-6.52,0.143466,31.27,2018427.0
1567412159.328125,-8.13,0.143466,31.27,2016424.0
1567412159.34375,-8.97,0.140904,31.27,2014108.0
1567412159.359375,-9.08,0.142185,31.27,2011755.0
1567412159.375,-8.74,0.140904,31.27,2009717.0
1567412159.390625,-8.28,0.140904,31.27,2007789.0
1567412159.40625,-7.86,0.139623,31.27,2006406.0
1567412159.421875,-7.51,0.140904,31.27,2005106.0
1567412159.4375,-7.14,0.138342,31.27,2003695.0
1567412159.453125,-6.69,0.138342,31.25,2002669.0
1567412159.46875,-6.2,0.140904,31.25,2001845.0
1567412159.484375,-5.79,0.140904,31.25,2000983.0
1567412159.5,-5.54,0.140904,31.25,1998742.0
1567412159.515625,-5.37,0.140904,31.29,1993918.0
1567412159.53125,-5.19,0.142185,31.29,1989710.0
1567412159.546875,-4.88,0.139623,31.29,1986057.0
1567412159.5625,-4.42,0.139623,31.29,1982606.0
1567412159.578125,-3.91,0.140904,31.29,1979867.0
1567412159.59375,-3.47,0.139623,31.29,1977638.0
1567412159.609375,-3.16,0.142185,31.29,1975450.0
1567412159.625,-2.92,0.142185,31.29,1973184.0
1567412159.640625,-2.71,0.143466,31.27,1971373.0
1567412159.65625,-2.49,0.144747,31.27,1969751.0
1567412159.671875,-2.25,0.142185,31.27,1968653.0
1567412159.6875,-1.98,0.142185,31.27,1968127.0
1567412159.703125,-1.64,0.142185,31.27,1968098.0
1567412159.71875,-1.16,0.139623,31.27,1968918.0
1567412159.734375,-0.52,0.140904,31.27,1969702.0
1567412159.75,0.26,0.139623,31.27,1969985.0
1567412159.765625,1.04,0.143466,31.29,1970590.0
1567412159.78125,1.62,0.143466,31.29,1970740.0
1567412159.796875,1.83,0.143466,31.29,1969150.0
1567412159.8125,1.65,0.143466,31.29,1965929.0
1567412159.828125,1.14,0.144747,31.27,1962586.0
1567412159.84375,0.5,0.143466,31.27,1959127.0
1567412159.859375,-0.02,0.143466,31.27,1956451.0
1567412159.875,-0.26,0.140904,31.27,1954586.0
1567412159.890625,-0.15,0.142185,31.25,1953299.0
1567412159.90625,0.28,0.140904,31.25,1951410.0
1567412159.921875,0.92,0.139623,31.25,1949427.0
1567412159.9375,1.61,0.142185,31.25,1947366.0
1567412159.953125,2.28,0.143466,31.27,1945348.0
1567412159.96875,2.91,0.143466,31.27,1944589.0
1567412159.984375,3.45,0.143466,31.27,1946449.0
1567412160.0,3.76,0.140904,31.27,1948974.0
1567412160.015625,3.67,0.140904,31.27,1951123.0
1567412160.03125,2.99,0.139623,31.27,1952403.0
1567412160.046875,1.69,0.139623,31.27,1952390.0
1567412160.0625,0.0,0.139623,31.27,1952058.0
1567412160.078125,-1.64,0.142185,31.27,1953547.0
1567412160.09375,-2.77,0.142185,31.27,1955154.0
1567412160.109375,-3.05,0.140904,31.27,1953392.0
1567412160.125,-2.4,0.143466,31.27,1951281.0
1567412160.140625,-0.98,0.143466,31.27,1948657.0
1567412160.15625,0.96,0.143466,31.27,1946296.0
1567412160.171875,3.15,0.142185,31.27,1945252.0
1567412160.1875,5.27,0.139623,31.27,1944886.0
1567412160.203125,6.94,0.140904,31.27,1945643.0
1567412160.21875,7.63,0.139623,31.27,1946903.0
1567412160.234375,6.83,0.139623,31.27,1947918.0
1567412160.25,4.28,0.143466,31.27,1949039.0
1567412160.265625,0.09,0.143466,31.29,1949212.0
1567412160.28125,-5.24,0.143466,31.29,1948164.0
1567412160.296875,-11.04,0.146028,31.29,1946653.0
1567412160.3125,-16.73,0.144747,31.29,1946678.0
1567412160.328125,-22.1,0.144747,31.27,1947906.0
1567412160.34375,-27.11,0.140904,31.27,1949264.0
1567412160.359375,-31.81,0.140904,31.27,1950198.0
1567412160.375,-36.08,0.140904,31.27,1951167.0
1567412160.390625,-39.58,0.139623,31.27,1952462.0
1567412160.40625,-41.98,0.140904,31.27,1951905.0
1567412160.421875,-43.11,0.142185,31.27,1950737.0
1567412160.4375,-43.26,0.144747,31.27,1951373.0
1567412160.453125,-43.1,0.143466,31.25,1952532.0
1567412160.46875,-43.4,0.143466,31.25,1953035.0
1567412160.484375,-44.88,0.144747,31.25,1952811.0
1567412160.5,-47.99,0.142185,31.25,1955394.0
1567412160.515625,-52.86,0.140904,31.27,1961056.0
1567412160.53125,-59.37,0.139623,31.27,1969552.0
1567412160.546875,-67.18,0.139623,31.27,1974920.0
1567412160.5625,-75.73,0.140904,31.27,1976903.0
1567412160.578125,-84.14,0.143466,31.27,1976902.0
1567412160.59375,-91.11,0.144747,31.27,1978684.0
1567412160.609375,-95.18,0.157556,31.27,1980019.0
1567412160.625,-95.09,0.142185,31.27,1979665.0
1567412160.640625,-90.33,0.143466,31.27,1979755.0
1567412160.65625,-81.48,0.144747,31.27,1980598.0
1567412160.671875,-70.13,0.140904,31.27,1980410.0
1567412160.6875,-58.27,0.142185,31.27,1978673.0
1567412160.703125,-47.6,0.140904,31.27,1976397.0
1567412160.71875,-38.89,0.142185,31.27,1974494.0
1567412160.734375,-31.95,0.143466,31.27,1971757.0
1567412160.75,-26.11,0.144747,31.27,1969412.0
1567412160.765625,-20.8,0.144747,31.25,1968077.0
1567412160.78125,-16.02,0.143466,31.25,1966678.0
1567412160.796875,-12.27,0.144747,31.25,1965007.0
1567412160.8125,-10.08,0.142185,31.25,1963344.0
1567412160.828125,-9.42,0.142185,31.29,1961826.0
1567412160.84375,-9.47,0.140904,31.29,1960910.0
1567412160.859375,-8.84,0.140904,31.29,1960482.0
1567412160.875,-6.05,0.139623,31.29,1959607.0
1567412160.890625,0.04,0.144747,31.27,1959179.0
1567412160.90625,10.07,0.144747,31.27,1958990.0
1567412160.921875,23.98,0.144747,31.27,1959795.0
1567412160.9375,41.11,0.144747,31.27,1960024.0
1567412160.953125,60.15,0.144747,31.27,1960753.0
1567412160.96875,79.22,0.142185,31.27,1961280.0
1567412160.984375,96.17,0.142185,31.27,1961871.0
1567412161.0,109.07,0.142185,31.27,1961369.0
1567412161.015625,116.75,0.140904,31.25,1960688.0
1567412161.03125,119.09,0.140904,31.25,1960206.0
1567412161.046875,116.97,0.146028,31.25,1960539.0
1567412161.0625,111.85,0.144747,31.25,1962582.0
1567412161.078125,105.16,0.144747,31.27,1963631.0
1567412161.09375,97.99,0.143466,31.27,1964440.0
1567412161.109375,91.05,0.144747,31.27,1966087.0
1567412161.125,84.79,0.142185,31.27,1967356.0
1567412161.140625,79.63,0.140904,31.27,1968759.0
1567412161.15625,75.9,0.140904,31.27,1969198.0
1567412161.171875,73.81,0.142185,31.27,1970164.0
1567412161.1875,73.13,0.142185,31.27,1971703.0
1567412161.203125,73.19,0.140904,31.27,1974884.0
1567412161.21875,73.06,0.144747,31.27,1977158.0
1567412161.234375,71.81,0.144747,31.27,1979113.0
1567412161.25,68.86,0.144747,31.27,1973353.0
1567412161.265625,64.14,0.142185,31.27,1981515.0
1567412161.28125,58.18,0.142185,31.27,1982272.0
1567412161.296875,51.76,0.142185,31.27,1982528.0
1567412161.3125,45.64,0.140904,31.27,1982295.0
1567412161.328125,40.26,0.143466,31.29,1982275.0
1567412161.34375,35.61,0.144747,31.29,1983064.0
1567412161.359375,31.32,0.146028,31.29,1984388.0
1567412161.375,26.93,0.146028,31.29,1985945.0
1567412161.390625,22.14,0.146028,31.27,1987689.0
1567412161.40625,17.11,0.143466,31.27,1991075.0
1567412161.421875,12.33,0.142185,31.27,1995562.0
1567412161.4375,8.47,0.142185,31.27,2002567.0
1567412161.453125,6.01,0.142185,31.27,2008393.0
1567412161.46875,5.05,0.142185,31.27,2010854.0
1567412161.484375,5.17,0.144747,31.27,2010029.0
1567412161.5,5.61,0.144747,31.27,2009459.0
1567412161.515625,5.58,0.146028,31.27,2008874.0
1567412161.53125,4.49,0.146028,31.27,2008072.0
1567412161.546875,2.2,0.146028,31.27,2005916.0
1567412161.5625,-1.04,0.147309,31.27,2002404.0
1567412161.578125,-4.72,0.143466,31.27,1998678.0
1567412161.59375,-8.22,0.142185,31.27,1994904.0
1567412161.609375,-11.02,0.143466,31.27,1991297.0
1567412161.625,-12.74,0.143466,31.27,1987927.0
1567412161.640625,-13.18,0.142185,31.25,1985258.0
1567412161.65625,-12.39,0.144747,31.25,1983291.0
1567412161.671875,-10.74,0.144747,31.25,1981435.0
1567412161.6875,-8.79,0.146028,31.25,1979803.0
1567412161.703125,-7.18,0.144747,31.29,1977851.0
1567412161.71875,-6.37,0.144747,31.29,1976793.0
1567412161.734375,-6.43,0.142185,31.29,1974480.0
1567412161.75,-7.04,0.143466,31.29,1974033.0
1567412161.765625,-7.68,0.142185,31.29,1973556.0
1567412161.78125,-7.92,0.142185,31.29,1973225.0
1567412161.796875,-7.63,0.142185,31.29,1973286.0
1567412161.8125,-7.04,0.146028,31.29,1972553.0
1567412161.828125,-6.59,0.147309,31.27,1970528.0
1567412161.84375,-6.67,0.147309,31.27,1975510.0
1567412161.859375,-7.36,0.147309,31.27,1967693.0
1567412161.875,-8.43,0.146028,31.27,1973482.0
1567412161.890625,-9.52,0.143466,31.27,1965494.0
1567412161.90625,-10.29,0.143466,31.27,1963480.0
1567412161.921875,-10.65,0.143466,31.27,1962251.0
1567412161.9375,-10.7,0.143466,31.27,1960986.0
1567412161.953125,-10.64,0.143466,31.29,1961358.0
1567412161.96875,-10.59,0.146028,31.29,1960623.0
1567412161.984375,-10.5,0.158837,31.29,1960280.0
1567412162.0,-10.18,0.146028,31.29,1960432.0
1567412162.015625,-9.46,0.146028,31.25,1961317.0
1567412162.03125,-8.27,0.147309,31.25,1961873.0
1567412162.046875,-6.8,0.143466,31.25,1963079.0
1567412162.0625,-5.4,0.142185,31.25,1964977.0
1567412162.078125,-4.4,0.143466,31.27,1966473.0
1567412162.09375,-3.96,0.142185,31.27,1967376.0
1567412162.109375,-3.99,0.144747,31.27,1969521.0
1567412162.125,-4.19,0.144747,31.27,1971860.0
1567412162.140625,-4.28,0.146028,31.27,1973226.0
1567412162.15625,-4.14,0.146028,31.27,1973140.0
1567412162.171875,-3.85,0.146028,31.27,1972759.0
1567412162.1875,-3.57,0.146028,31.27,1972667.0
1567412162.203125,-3.42,0.143466,31.31,1973154.0
1567412162.21875,-3.36,0.143466,31.31,1973653.0
1567412162.234375,-3.32,0.142185,31.31,1974109.0
1567412162.25,-3.31,0.143466,31.31,1974304.0
1567412162.265625,-3.42,0.146028,31.25,1974843.0
1567412162.28125,-3.86,0.146028,31.25,1975715.0
1567412162.296875,-4.77,0.146028,31.25,1976969.0
1567412162.3125,-5.97,0.147309,31.25,1978615.0
1567412162.328125,-7.05,0.160118,31.29,1980410.0
1567412162.34375,-7.5,0.143466,31.29,1981751.0
1567412162.359375,-7.03,0.142185,31.29,1983596.0
1567412162.375,-5.66,0.144747,31.29,1985210.0
1567412162.390625,-3.76,0.143466,31.27,1987124.0
1567412162.40625,-1.82,0.144747,31.27,1990363.0
1567412162.421875,-0.16,0.146028,31.27,1992912.0
1567412162.4375,1.13,0.146028,31.27,1996654.0
1567412162.453125,2.2,0.14859,31.27,1999924.0
1567412162.46875,3.19,0.147309,31.27,2004679.0
1567412162.484375,4.16,0.146028,31.27,2011213.0
1567412162.5,5.07,0.144747,31.27,2013251.0
1567412162.515625,5.81,0.144747,31.25,2013375.0
1567412162.53125,6.37,0.143466,31.25,2012426.0
1567412162.546875,6.81,0.144747,31.25,2012799.0
1567412162.5625,7.2,0.147309,31.25,2012458.0
1567412162.578125,7.52,0.147309,31.27,2010341.0
1567412162.59375,7.73,0.147309,31.27,2007649.0
1567412162.609375,7.67,0.146028,31.27,2005432.0
1567412162.625,7.32,0.146028,31.27,2003406.0
1567412162.640625,6.76,0.147309,31.27,2001061.0
1567412162.65625,6.19,0.143466,31.27,1999084.0
1567412162.671875,5.78,0.158837,31.27,1997327.0
1567412162.6875,5.5,0.143466,31.27,1995562.0
1567412162.703125,5.27,0.142185,31.25,1993576.0
1567412162.71875,4.94,0.146028,31.25,1990661.0
1567412162.734375,4.43,0.147309,31.25,1986969.0
1567412162.75,3.8,0.147309,31.25,1983735.0
1567412162.765625,3.16,0.147309,31.27,1980648.0
1567412162.78125,2.58,0.147309,31.27,1977743.0
1567412162.796875,1.95,0.146028,31.27,1975433.0
1567412162.8125,1.11,0.143466,31.27,1972995.0
1567412162.828125,-0.11,0.144747,31.27,1970290.0
1567412162.84375,-1.61,0.143466,31.27,1967919.0
1567412162.859375,-3.08,0.143466,31.27,1965878.0
1567412162.875,-4.07,0.147309,31.27,1964390.0
1567412162.890625,-4.27,0.14859,31.25,1963670.0
1567412162.90625,-3.68,0.146028,31.25,1963698.0
1567412162.921875,-2.59,0.147309,31.25,1963971.0
1567412162.9375,-1.5,0.147309,31.25,1964534.0
1567412162.953125,-0.78,0.144747,31.25,1965528.0
1567412162.96875,-0.5,0.143466,31.25,1967054.0
1567412162.984375,-0.45,0.143466,31.25,1968466.0
1567412163.0,-0.28,0.143466,31.25,1969274.0
1567412163.015625,0.28,0.144747,31.25,1969505.0
1567412163.03125,1.26,0.147309,31.25,1969613.0
1567412163.046875,2.47,0.14859,31.25,1969032.0
1567412163.0625,3.64,0.14859,31.25,1967959.0
1567412163.078125,4.47,0.147309,31.25,1968127.0
1567412163.09375,4.76,0.146028,31.25,1968466.0
1567412163.109375,4.28,0.146028,31.25,1968222.0
1567412163.125,2.83,0.144747,31.25,1968119.0
1567412163.140625,0.26,0.144747,31.25,1967580.0
1567412163.15625,-3.39,0.144747,31.25,1967966.0
1567412163.171875,-7.85,0.147309,31.25,1968695.0
1567412163.1875,-12.64,0.14859,31.25,1970186.0
1567412163.203125,-17.23,0.14859,31.25,1971653.0
1567412163.21875,-21.22,0.149871,31.25,1973230.0
1567412163.234375,-24.51,0.147309,31.25,1974526.0
1567412163.25,-27.21,0.14859,31.25,1976988.0
1567412163.265625,-29.53,0.146028,31.25,1979006.0
1567412163.28125,-31.49,0.146028,31.25,1980965.0
1567412163.296875,-32.93,0.146028,31.25,1982361.0
1567412163.3125,-33.48,0.146028,31.25,1982768.0
1567412163.328125,-32.91,0.14859,31.25,1982792.0
1567412163.34375,-31.15,0.149871,31.25,1983108.0
1567412163.359375,-28.59,0.149871,31.25,1987013.0
1567412163.375,-25.83,0.14859,31.25,1990470.0
1567412163.390625,-23.51,0.14859,31.23,1998394.0
1567412163.40625,-22.03,0.146028,31.23,2003370.0
1567412163.421875,-21.3,0.144747,31.23,2003326.0
1567412163.4375,-20.83,0.146028,31.23,2000821.0
1567412163.453125,-19.92,0.146028,31.27,1997423.0
1567412163.46875,-18.0,0.14859,31.27,1993415.0
1567412163.484375,-14.93,0.149871,31.27,1990472.0
1567412163.5,-10.97,0.149871,31.27,1987737.0
1567412163.515625,-6.7,0.149871,31.27,1985171.0
1567412163.53125,-2.68,0.149871,31.27,1985171.0
1567412163.546875,0.81,0.147309,31.27,1983396.0
1567412163.5625,3.8,0.146028,31.27,1981220.0
1567412163.578125,6.52,0.147309,31.27,1979094.0
1567412163.59375,9.24,0.146028,31.27,1977337.0
1567412163.609375,12.05,0.149871,31.27,1975339.0
1567412163.625,14.91,0.151152,31.27,1972018.0
1567412163.640625,17.62,0.149871,31.27,1968760.0
1567412163.65625,20.01,0.149871,31.27,1965148.0
1567412163.671875,21.92,0.151152,31.27,1962004.0
1567412163.6875,23.19,0.147309,31.27,1959413.0
1567412163.703125,23.73,0.146028,31.27,1957139.0
1567412163.71875,23.48,0.146028,31.27,1955109.0
1567412163.734375,22.48,0.146028,31.27,1953364.0
1567412163.75,20.85,0.147309,31.27,1951643.0
1567412163.765625,18.78,0.14859,31.23,1949992.0
1567412163.78125,16.48,0.14859,31.23,1948910.0
1567412163.796875,14.08,0.149871,31.23,1948119.0
1567412163.8125,11.71,0.151152,31.23,1947163.0
1567412163.828125,9.56,0.14859,31.27,1946872.0
1567412163.84375,7.86,0.147309,31.27,1946263.0
1567412163.859375,6.91,0.146028,31.27,1945820.0
1567412163.875,6.91,0.146028,31.27,1945663.0
1567412163.890625,7.86,0.14859,31.25,1945118.0
1567412163.90625,9.47,0.149871,31.25,1943786.0
1567412163.921875,11.28,0.14859,31.25,1940832.0
1567412163.9375,12.76,0.144747,31.25,1937820.0
1567412163.953125,13.55,0.147309,31.25,1935237.0
1567412163.96875,13.54,0.146028,31.25,1932604.0
1567412163.984375,12.92,0.142185,31.25,1930556.0
1567412164.0,11.98,0.142185,31.25,1929218.0
1567412164.015625,11.05,0.143466,31.27,1928922.0
1567412164.03125,10.23,0.143466,31.27,1928892.0
1567412164.046875,9.49,0.147309,31.27,1928747.0
1567412164.0625,8.65,0.143466,31.27,1929360.0
1567412164.078125,7.49,0.146028,31.25,1930636.0
1567412164.09375,5.95,0.147309,31.25,1932610.0
1567412164.109375,4.07,0.146028,31.25,1934441.0
1567412164.125,2.09,0.143466,31.25,1935417.0
1567412164.140625,0.24,0.143466,31.25,1936841.0
1567412164.15625,-1.29,0.143466,31.25,1938909.0
1567412164.171875,-2.4,,,1941070.0
1567412164.1875,-3.08,,,1943080.0
1567412164.203125,-3.34,,,1943879.0
1567412164.21875,-3.25,,,1944039.0
1567412164.234375,-2.92,,,1944721.0
1567412164.25,-2.49,,,1946122.0
1567412164.265625,-2.17,,,1946907.0
1567412164.28125,-2.15,,,1952753.0
1567412164.296875,-2.56,,,1958478.0
1567412164.3125,-3.4,,,1966505.0
1567412164.328125,-4.61,,,1969154.0
1567412164.34375,-6.14,,,1967240.0
1567412164.359375,-7.96,,,1962603.0
1567412164.375,-10.07,,,1957289.0
1567412164.390625,-12.41,,,1953584.0
1567412164.40625,-14.81,,,1950062.0
1567412164.421875,-16.94,,,1947340.0
1567412164.4375,-18.47,,,1945615.0
1567412164.453125,-19.14,,,1943773.0
1567412164.46875,-18.84,,,1942686.0
1567412164.484375,-17.72,,,1941288.0
1567412164.5,-16.0,,,1939388.0
1567412164.515625,-13.93,,,1936830.0
1567412164.53125,-11.7,,,1934226.0
1567412164.546875,-9.36,,,1931284.0
1567412164.5625,-6.91,,,1928919.0
1567412164.578125,-4.31,,,1927851.0
1567412164.59375,-1.59,,,1926918.0
1567412164.609375,1.12,,,1925814.0
1567412164.625,3.66,,,1925448.0
1567412164.640625,5.83,,,1925167.0
1567412164.65625,7.51,,,1925837.0
1567412164.671875,8.64,,,1926596.0
1567412164.6875,9.24,,,1927737.0
1567412164.703125,9.41,,,1928763.0
1567412164.71875,9.3,,,1929724.0
1567412164.734375,9.05,,,1931584.0
1567412164.75,8.86,,,1933575.0
1567412164.765625,8.85,,,1935622.0
1567412164.78125,9.13,,,1937797.0
1567412164.796875,9.67,,,1939904.0
1567412164.8125,10.33,,,1940499.0
1567412164.828125,10.93,,,1940452.0
1567412164.84375,11.23,,,1940666.0
1567412164.859375,11.03,,,1940729.0
1567412164.875,10.28,,,1940751.0
1567412164.890625,9.07,,,1940928.0
1567412164.90625,7.6,,,1941786.0
1567412164.921875,6.1,,,1942332.0
1567412164.9375,4.8,,,1942954.0
1567412164.953125,3.82,,,1943210.0
1567412164.96875,3.2,,,1944291.0
1567412164.984375,2.91,,,1945030.0
1567412165.0,2.83,,,1946532.0
1567412165.015625,2.78,,,1948253.0
1567412165.03125,2.56,,,1949739.0
1567412165.046875,2.0,,,1951768.0
1567412165.0625,1.0,,,1954000.0
1567412165.078125,-0.44,,,1955868.0
1567412165.09375,-2.17,,,1958092.0
1567412165.109375,-4.0,,,1959692.0
1567412165.125,-5.65,,,1960555.0
1567412165.140625,-6.94,,,1960722.0
1567412165.15625,-7.75,,,1960667.0
1567412165.171875,-8.07,,,1961068.0
1567412165.1875,-8.0,,,1962789.0
1567412165.203125,-7.71,,,1964822.0
1567412165.21875,-7.28,,,1967732.0
1567412165.234375,-6.83,,,1971456.0
1567412165.25,-6.37,,,1975189.0
1567412165.265625,-5.83,,,1978993.0
1567412165.28125,-5.13,,,1982982.0
1567412165.296875,-4.15,,,1986305.0
1567412165.3125,-2.86,,,1989427.0
1567412165.328125,-1.31,,,1993102.0
1567412165.34375,0.37,,,1996234.0
1567412165.359375,1.96,,,1998715.0
1567412165.375,3.27,,,2001137.0
1567412165.390625,4.18,,,2003147.0
1567412165.40625,4.75,,,2004229.0
1567412165.421875,5.11,,,2004345.0
1567412165.4375,5.42,,,2003774.0
1567412165.453125,5.69,,,2002801.0
1567412165.46875,5.84,,,2000583.0
1567412165.484375,5.65,,,1998861.0
1567412165.5,4.94,,,1997760.0
1567412165.515625,3.68,,,1996004.0
1567412165.53125,2.01,,,1994634.0
1567412165.546875,0.22,,,1993707.0
1567412165.5625,-1.42,,,1992892.0
1567412165.578125,-2.81,,,1992742.0
1567412165.59375,-3.99,,,1992542.0
1567412165.609375,-5.08,,,1992460.0
1567412165.625,-6.23,,,1992596.0
1567412165.640625,-7.54,,,1993111.0
1567412165.65625,-9.0,,,1994369.0
1567412165.671875,-10.52,,,1996185.0
1567412165.6875,-12.02,,,1998925.0
1567412165.703125,-13.37,,,2001477.0
1567412165.71875,-14.48,,,2005607.0
1567412165.734375,-15.3,,,2011091.0
1567412165.75,-15.88,,,2019316.0
1567412165.765625,-16.3,,,2021899.0
1567412165.78125,-16.62,,,2021319.0
1567412165.796875,-16.85,,,2018712.0
1567412165.8125,-16.93,,,2016927.0
1567412165.828125,-16.73,,,2014574.0
1567412165.84375,-16.11,,,2012866.0
1567412165.859375,-15.0,,,2011921.0
1567412165.875,-13.34,,,2010264.0
1567412165.890625,-11.17,,,2008012.0
1567412165.90625,-8.56,,,2006593.0
1567412165.921875,-5.66,,,2005090.0
1567412165.9375,-2.65,,,2003347.0
1567412165.953125,0.2,,,2001945.0
1567412165.96875,2.67,,,2001023.0
1567412165.984375,4.61,,,2000206.0
1567412166.0,5.99,,,1999818.0
1567412166.015625,6.92,,,1998894.0
1567412166.03125,7.55,,,1996735.0
1567412166.046875,8.07,,,1994547.0
1567412166.0625,8.64,,,1992261.0
1567412166.078125,9.36,,,1990742.0
1567412166.09375,10.29,,,1989691.0
1567412166.109375,11.42,,,1989293.0
1567412166.125,12.66,,,1988793.0
1567412166.140625,13.81,,,1989038.0
1567412166.15625,14.64,,,1988687.0
1567412166.171875,14.98,,,1989092.0
1567412166.1875,14.79,,,1989396.0
1567412166.203125,14.17,,,1990244.0
1567412166.21875,13.35,,,1991749.0
1567412166.234375,12.51,,,1993352.0
1567412166.25,11.71,,,1994208.0
1567412166.265625,10.88,,,1994032.0
1567412166.28125,9.86,,,1993836.0
1567412166.296875,8.61,,,1993455.0
1567412166.3125,7.23,,,1993243.0
1567412166.328125,5.85,,,1992603.0
1567412166.34375,4.66,,,1992023.0
1567412166.359375,3.7,,,1991988.0
1567412166.375,2.96,,,1992062.0
1567412166.390625,2.32,,,1992362.0
1567412166.40625,1.79,,,1992819.0
1567412166.421875,1.46,,,1993523.0
1567412166.4375,1.45,,,1994316.0
1567412166.453125,1.81,,,1995633.0
1567412166.46875,2.44,,,1997732.0
1567412166.484375,3.12,,,2002439.0
1567412166.5,3.61,,,2009500.0
1567412166.515625,3.79,,,2013910.0
1567412166.53125,3.65,,,2014026.0
1567412166.546875,3.27,,,2012968.0
1567412166.5625,2.65,,,2011187.0
1567412166.578125,1.67,,,2009477.0
1567412166.59375,0.2,,,2007170.0
1567412166.609375,-1.81,,,2003983.0
1567412166.625,-4.14,,,2000653.0
1567412166.640625,-6.34,,,1997665.0
1567412166.65625,-7.91,,,1995132.0
1567412166.671875,-8.51,,,1992154.0
1567412166.6875,-8.17,,,1989811.0
1567412166.703125,-7.26,,,1987962.0
1567412166.71875,-6.35,,,1986605.0
1567412166.734375,-5.84,,,1984847.0
1567412166.75,-5.79,,,1983463.0
1567412166.765625,-5.95,,,1982383.0
1567412166.78125,-5.96,,,1981458.0
1567412166.796875,-5.54,,,1980830.0
1567412166.8125,-4.66,,,1980472.0
1567412166.828125,-3.49,,,1980010.0
1567412166.84375,-2.18,,,1979758.0
1567412166.859375,-0.83,,,1979687.0
1567412166.875,0.57,,,1979390.0
1567412166.890625,2.05,,,1978882.0
1567412166.90625,3.49,,,1976653.0
1567412166.921875,4.74,,,1974636.0
1567412166.9375,5.56,,,1972084.0
1567412166.953125,5.9,,,1969970.0
1567412166.96875,5.87,,,1967916.0
1567412166.984375,5.83,,,1966370.0
1567412167.0,6.11,,,1965184.0
1567412167.015625,6.91,,,1963955.0
1567412167.03125,8.17,,,1962963.0
1567412167.046875,9.58,,,1962378.0
1567412167.0625,10.72,,,1961713.0
1567412167.078125,11.29,,,1961391.0
1567412167.09375,11.13,,,1961337.0
1567412167.109375,10.3,,,1961568.0
1567412167.125,8.95,,,1962176.0
1567412167.140625,7.2,,,1963309.0
1567412167.15625,5.13,,,1964525.0
1567412167.171875,2.8,,,1965824.0
1567412167.1875,0.36,,,1967207.0
1567412167.203125,-1.84,,,1967507.0
1567412167.21875,-3.44,,,1967968.0
1567412167.234375,-4.23,,,1968159.0
1567412167.25,-4.27,,,1968517.0
1567412167.265625,-4.03,,,1968865.0
1567412167.28125,-4.12,,,1969132.0
1567412167.296875,-5.03,,,1970396.0
1567412167.3125,-6.84,,,1971415.0
1567412167.328125,-9.16,,,1972502.0
1567412167.34375,-11.35,,,1976284.0
1567412167.359375,-12.73,,,1973944.0
1567412167.375,-12.93,,,1982977.0
1567412167.390625,-11.97,,,1978420.0
1567412167.40625,-10.19,,,1993152.0
1567412167.421875,-8.09,,,1986682.0
1567412167.4375,-6.09,,,1999918.0
1567412167.453125,-4.38,,,1998682.0
1567412167.46875,-2.91,,,1998412.0
1567412167.484375,-1.53,,,1996108.0
1567412167.5,-0.11,,,1992767.0
1567412167.515625,1.38,,,1990180.0
1567412167.53125,2.84,,,1988094.0
1567412167.546875,4.14,,,1985901.0
1567412167.5625,5.3,,,1984365.0
1567412167.578125,6.48,,,1983012.0
1567412167.59375,7.91,,,1981775.0
1567412167.609375,9.7,,,1980821.0
1567412167.625,11.67,,,1979749.0
1567412167.640625,13.45,,,1978986.0
1567412167.65625,14.58,,,1980466.0
1567412167.671875,14.84,,,1982849.0
1567412167.6875,14.23,,,1984128.0
1567412167.703125,13.05,,,1984499.0
1567412167.71875,11.65,,,1984001.0
1567412167.734375,10.27,,,1982739.0
1567412167.75,8.98,,,1981767.0
1567412167.765625,7.71,,,1979564.0
1567412167.78125,6.34,,,1975694.0
1567412167.796875,4.77,,,1972518.0
1567412167.8125,2.99,,,1969973.0
1567412167.828125,1.1,,,1967287.0
1567412167.84375,-0.78,,,1965051.0
1567412167.859375,-2.45,,,1963458.0
1567412167.875,-3.65,,,1961756.0
1567412167.890625,-4.25,,,1960402.0
1567412167.90625,-4.18,,,1958997.0
1567412167.921875,-3.57,,,1958436.0
1567412167.9375,-2.65,,,1957984.0
1567412167.953125,-1.74,,,1957522.0
1567412167.96875,-1.1,,,1957062.0
1567412167.984375,-0.86,,,1957126.0
1567412168.0,-1.04,,,1957635.0
1567412168.015625,-1.6,,,1958814.0
1567412168.03125,-2.51,,,1959107.0
1567412168.046875,-3.75,,,1957502.0
1567412168.0625,-5.38,,,1953584.0
1567412168.078125,-7.37,,,1949358.0
1567412168.09375,-9.63,,,1946786.0
1567412168.109375,-11.99,,,1944156.0
1567412168.125,-14.23,,,1942128.0
1567412168.140625,-16.17,,,1941621.0
1567412168.15625,-17.72,,,1941514.0
1567412168.171875,-18.92,,,1941979.0
1567412168.1875,-19.88,,,1942631.0
1567412168.203125,-20.71,,,1943614.0
1567412168.21875,-21.48,,,1945616.0
1567412168.234375,-22.12,,,1947553.0
1567412168.25,-22.53,,,1949530.0
1567412168.265625,-22.54,,,1952219.0
1567412168.28125,-22.06,,,1956274.0
1567412168.296875,-21.07,,,1961047.0
1567412168.3125,-19.58,,,1966422.0
1567412168.328125,-17.68,,,1969944.0
1567412168.34375,-15.43,,,1974485.0
1567412168.359375,-12.9,,,1981453.0
1567412168.375,-10.16,,,1990095.0
1567412168.390625,-7.34,,,1998364.0
1567412168.40625,-4.56,,,1999707.0
1567412168.421875,-1.96,,,1997653.0
1567412168.4375,0.44,,,1993772.0
1567412168.453125,2.69,,,1992328.0
1567412168.46875,4.91,,,1990323.0
1567412168.484375,7.15,,,1987731.0
1567412168.5,9.34,,,1985649.0
1567412168.515625,11.27,,,1984371.0
1567412168.53125,12.71,,,1983018.0
1567412168.546875,13.5,,,1982167.0
1567412168.5625,13.62,,,1982142.0
1567412168.578125,13.13,,,1982540.0
1567412168.59375,12.31,,,1982635.0
1567412168.609375,11.32,,,1982501.0
1567412168.625,10.29,,,1981934.0
1567412168.640625,9.27,,,1979193.0
1567412168.65625,8.18,,,1975416.0
1567412168.671875,6.93,,,1975416.0
1567412168.6875,5.41,,,1971839.0
1567412168.703125,3.62,,,1968872.0
1567412168.71875,1.62,,,1965977.0
1567412168.734375,-0.39,,,1963970.0
1567412168.75,-2.18,,,1962270.0
1567412168.765625,-3.58,,,1960497.0
1567412168.78125,-4.52,,,1958977.0
1567412168.796875,-5.04,,,1957853.0
1567412168.8125,-5.2,,,1956876.0
1567412168.828125,-5.04,,,1956178.0
1567412168.84375,-4.53,,,1955732.0
1567412168.859375,-3.63,,,1955327.0
1567412168.875,-2.36,,,1955065.0
1567412168.890625,-0.94,,,1954652.0
1567412168.90625,0.41,,,1954534.0
1567412168.921875,1.46,,,1954414.0
1567412168.9375,2.03,,,1951888.0
1567412168.953125,2.16,,,1948581.0
1567412168.96875,1.93,,,1945969.0
1567412168.984375,1.47,,,1943459.0
1567412169.0,0.85,,,1941579.0
1567412169.015625,0.07,,,1940388.0
1567412169.03125,-0.87,,,1938941.0
1567412169.046875,-1.95,,,1938583.0
1567412169.0625,-3.12,,,1938201.0
1567412169.078125,-4.22,,,1938834.0
1567412169.09375,-5.09,,,1940058.0
1567412169.109375,-5.6,,,1941877.0
1567412169.125,-5.67,,,1943688.0
1567412169.140625,-5.37,,,1945198.0
1567412169.15625,-4.86,,,1945894.0
1567412169.171875,-4.37,,,1946537.0
1567412169.1875,-4.1,,,1947493.0
1567412169.203125,-4.14,,,1948394.0
1567412169.21875,-4.39,,,1949649.0
1567412169.234375,-4.7,,,1948608.0
1567412169.25,-4.92,,,1948114.0
1567412169.265625,-5.08,,,1948134.0
1567412169.28125,-5.28,,,1948195.0
1567412169.296875,-5.75,,,1949140.0
1567412169.3125,-6.59,,,1951846.0
1567412169.328125,-7.7,,,1955726.0
1567412169.34375,-8.87,,,1959927.0
1567412169.359375,-9.8,,,1965556.0
1567412169.375,-10.34,,,1972444.0
1567412169.390625,-10.47,,,1978678.0
1567412169.40625,-10.34,,,1981966.0
1567412169.421875,-10.03,,,1982429.0
1567412169.4375,-9.54,,,1981038.0
1567412169.453125,-8.74,,,1977547.0
1567412169.46875,-7.5,,,1974232.0
1567412169.484375,-5.73,,,1971259.0
1567412169.5,-3.54,,,1968325.0
1567412169.515625,-1.12,,,1965764.0
1567412169.53125,1.34,,,1962437.0
1567412169.546875,3.77,,,1958697.0
1567412169.5625,6.2,,,1954637.0
1567412169.578125,8.69,,,1951589.0
1567412169.59375,11.23,,,1948815.0
1567412169.609375,13.68,,,1943635.0
1567412169.625,15.82,,,1945829.0
1567412169.640625,17.44,,,1941207.0
1567412169.65625,18.44,,,1939101.0
1567412169.671875,18.82,,,1937770.0
1567412169.6875,18.67,,,1936737.0
1567412169.703125,18.05,,,1935788.0
1567412169.71875,16.97,,,1935632.0
1567412169.734375,15.48,,,1935502.0
1567412169.75,13.7,,,1935296.0
1567412169.765625,11.84,,,1935654.0
1567412169.78125,10.12,,,1935901.0
1567412169.796875,8.74,,,1936135.0
1567412169.8125,7.73,,,1935201.0
1567412169.828125,7.01,,,1933252.0
1567412169.84375,6.56,,,1931566.0
1567412169.859375,6.38,,,1929757.0
1567412169.875,6.6,,,1928134.0
1567412169.890625,7.31,,,1926798.0
1567412169.90625,8.48,,,1925746.0
1567412169.921875,9.86,,,1925282.0
1567412169.9375,11.07,,,1924266.0
1567412169.953125,11.8,,,1923626.0
1567412169.96875,11.92,,,1923267.0
1567412169.984375,11.54,,,1923179.0
1567412170.0,10.94,,,1923239.0
1567412170.015625,10.37,,,1923505.0
1567412170.03125,9.99,,,1923830.0
1567412170.046875,9.8,,,1924366.0
1567412170.0625,9.68,,,1926230.0
1567412170.078125,9.5,,,1928950.0
1567412170.09375,9.23,,,1932303.0
1567412170.109375,8.92,,,1934203.0
1567412170.125,8.53,,,1934373.0
1567412170.140625,8.02,,,1934744.0
1567412170.15625,7.29,,,1936408.0
1567412170.171875,6.25,,,1938292.0
1567412170.1875,4.92,,,1940295.0
1567412170.203125,3.54,,,1942174.0
1567412170.21875,2.36,,,1944938.0
1567412170.234375,1.54,,,1947373.0
1567412170.25,1.02,,,1949843.0
1567412170.265625,0.48,,,1952209.0
1567412170.28125,-0.45,,,1952209.0
1567412170.296875,-1.91,,,1958428.0
1567412170.3125,-3.71,,,1960431.0
1567412170.328125,-5.42,,,1964838.0
1567412170.34375,-6.6,,,1968122.0
1567412170.359375,-7.08,,,1975859.0
1567412170.375,-7.08,,,1980249.0
1567412170.390625,-7.01,,,1979853.0
1567412170.40625,-7.27,,,1975505.0
1567412170.421875,-7.93,,,1969223.0
1567412170.4375,-8.8,,,1962632.0
1567412170.453125,-9.55,,,1957363.0
1567412170.46875,-9.99,,,1955200.0
1567412170.484375,-10.11,,,1953677.0
1567412170.5,-10.02,,,1950439.0
1567412170.515625,-9.79,,,1946686.0
1567412170.53125,-9.42,,,1940933.0
1567412170.546875,-8.82,,,1943748.0
1567412170.5625,-7.91,,,1938204.0
1567412170.578125,-6.86,,,1936124.0
1567412170.59375,-5.85,,,1934376.0
1567412170.609375,-5.09,,,1932235.0
1567412170.625,-4.55,,,1930411.0
1567412170.640625,-4.02,,,1928667.0
1567412170.65625,-3.27,,,1927290.0
1567412170.671875,-2.16,,,1925989.0
1567412170.6875,-0.85,,,1923259.0
1567412170.703125,0.34,,,1919222.0
1567412170.71875,0.99,,,1915128.0
1567412170.734375,0.9,,,1911545.0
1567412170.75,0.05,,,1905469.0
1567412170.765625,-1.39,,,1902935.0
1567412170.78125,-3.15,,,1908391.0
1567412170.796875,-5.04,,,1899944.0
1567412170.8125,-6.88,,,1898143.0
1567412170.828125,-8.51,,,1896035.0
1567412170.84375,-9.74,,,1894197.0
1567412170.859375,-10.45,,,1892864.0
1567412170.875,-10.58,,,1891742.0
1567412170.890625,-10.18,,,1890690.0
1567412170.90625,-9.51,,,1889849.0
1567412170.921875,-8.92,,,1889366.0
1567412170.9375,-8.79,,,1888864.0
1567412170.953125,-9.31,,,1888418.0
1567412170.96875,-10.41,,,1888215.0
1567412170.984375,-11.65,,,1887340.0
1567412171.0,-12.44,,,1886160.0
1567412171.015625,-12.22,,,1885756.0
1567412171.03125,-10.77,,,1886741.0
1567412171.046875,-8.27,,,1887388.0
1567412171.0625,-5.25,,,1887151.0
1567412171.078125,-2.31,,,1888652.0
1567412171.09375,0.14,,,1913325.0
1567412171.109375,2.04,,,1917114.0
1567412171.125,3.62,,,1921216.0
1567412171.140625,5.14,,,1892325.0
1567412171.15625,6.71,,,1925541.0
1567412171.171875,8.2,,,1929501.0
1567412171.1875,9.36,,,1929501.0
1567412171.203125,10.07,,,1934849.0
1567412171.21875,10.36,,,1942617.0
1567412171.234375,10.47,,,1948024.0
1567412171.25,10.59,,,1948149.0
1567412171.265625,10.75,,,1904886.0
1567412171.28125,10.74,,,1896157.0
1567412171.296875,10.24,,,1900134.0
1567412171.3125,9.08,,,1943114.0
1567412171.328125,7.32,,,1935611.0
1567412171.34375,5.3,,,1929000.0
1567412171.359375,3.45,,,1924236.0
1567412171.375,2.09,,,1920243.0
1567412171.390625,1.34,,,1916502.0
1567412171.40625,1.09,,,1906575.0
1567412171.421875,1.17,,,1903985.0
1567412171.4375,1.47,,,1901763.0
1567412171.453125,1.93,,,1899568.0
1567412171.46875,2.54,,,1897288.0
1567412171.484375,3.18,,,1895167.0
1567412171.5,3.62,,,1892960.0
1567412171.515625,3.64,,,1909823.0
1567412171.53125,3.1,,,1909002.0
1567412171.546875,2.08,,,1912848.0
1567412171.5625,0.81,,,1890793.0
1567412171.578125,-0.35,,,1887580.0
1567412171.59375,-1.16,,,1882575.0
1567412171.609375,-1.54,,,1877430.0
1567412171.625,-1.62,,,1873107.0
1567412171.640625,-1.6,,,1864381.0
1567412171.65625,-1.67,,,1861280.0
1567412171.671875,-1.9,,,1858126.0
1567412171.6875,-2.24,,,1854736.0
1567412171.703125,-2.56,,,1851723.0
1567412171.71875,-2.7,,,1849487.0
1567412171.734375,-2.47,,,1847321.0
1567412171.75,-1.79,,,1845600.0
1567412171.765625,-0.65,,,1844133.0
1567412171.78125,0.77,,,1868665.0
1567412171.796875,2.18,,,1841363.0
1567412171.8125,3.26,,,1840059.0
1567412171.828125,3.78,,,1837844.0
1567412171.84375,3.74,,,1838971.0
1567412171.859375,3.42,,,1836920.0
1567412171.875,3.21,,,1836017.0
1567412171.890625,3.42,,,1842942.0
1567412171.90625,4.16,,,1841637.0
1567412171.921875,5.24,,,1835322.0
1567412171.9375,6.3,,,1838065.0
1567412171.953125,7.02,,,1835912.0
1567412171.96875,7.21,,,1845755.0
1567412171.984375,6.97,,,1849438.0
1567412172.0,6.54,,,1852848.0
1567412172.015625,6.15,,,1856816.0
1567412172.03125,5.91,,,1861087.0
1567412172.046875,5.73,,,1866605.0
1567412172.0625,5.4,,,1871620.0
1567412172.078125,4.74,,,1876898.0
1567412172.09375,3.7,,,1887538.0
1567412172.109375,2.46,,,1882406.0
1567412172.125,1.25,,,1895338.0
1567412172.140625,0.21,,,1902331.0
1567412172.15625,-0.64,,,1911280.0
1567412172.171875,-1.47,,,1917182.0
1567412172.1875,-2.42,,,1918288.0
1567412172.203125,-3.57,,,1914274.0
1567412172.21875,-4.77,,,1899927.0
1567412172.234375,-5.82,,,1894990.0
1567412172.25,-6.51,,,1890877.0
1567412172.265625,-6.77,,,1886932.0
1567412172.28125,-6.7,,,1883108.0
1567412172.296875,-6.48,,,1906772.0
1567412172.3125,-6.15,,,1880007.0
1567412172.328125,-5.61,,,1875256.0
1567412172.34375,-4.72,,,1873318.0
1567412172.359375,-3.38,,,1877466.0
1567412172.375,-1.69,,,1870769.0
1567412172.390625,-0.02,,,1871837.0
1567412172.40625,1.19,,,1865604.0
1567412172.421875,1.62,,,1868380.0
1567412172.4375,1.21,,,1867094.0
1567412172.453125,0.31,,,1862275.0
1567412172.46875,-0.56,,,1869189.0
1567412172.484375,-0.86,,,1858577.0
1567412172.5,-0.32,,,1855202.0
1567412172.515625,0.95,,,1852398.0
1567412172.53125,2.5,,,1848104.0
1567412172.546875,3.79,,,1850037.0
1567412172.5625,4.32,,,1846830.0
1567412172.578125,3.89,,,1845449.0
1567412172.59375,2.58,,,1843947.0
1567412172.609375,0.77,,,1842953.0
1567412172.625,-1.15,,,1842279.0
1567412172.640625,-2.77,,,1841671.0
1567412172.65625,-3.88,,,1841613.0
1567412172.671875,-4.42,,,1841650.0
1567412172.6875,-4.53,,,1841536.0
1567412172.703125,-4.42,,,1841675.0
1567412172.71875,-4.31,,,1841850.0
1567412172.734375,-4.36,,,1842082.0
1567412172.75,-4.58,,,1841422.0
1567412172.765625,-4.87,,,1842473.0
1567412172.78125,-5.07,,,1845336.0
1567412172.796875,-5.05,,,1849677.0
1567412172.8125,-4.76,,,1853830.0
1567412172.828125,-4.27,,,1856782.0
1567412172.84375,-3.56,,,1860071.0
1567412172.859375,-2.56,,,1863364.0
1567412172.875,-1.1,,,1867439.0
1567412172.890625,0.9,,,1871544.0
1567412172.90625,3.32,,,1875622.0
1567412172.921875,5.79,,,1880328.0
1567412172.9375,7.82,,,1884402.0
1567412172.953125,9.02,,,1895576.0
1567412172.96875,9.32,,,1907123.0
1567412172.984375,8.95,,,1912694.0
1567412173.0,8.31,,,1900329.0
1567412173.015625,7.7,,,1889979.0
1567412173.03125,7.16,,,1912318.0
1567412173.046875,6.42,,,1896670.0
1567412173.0625,5.13,,,1905379.0
1567412173.078125,3.09,,,1884321.0
1567412173.09375,0.41,,,1889609.0
1567412173.109375,-2.55,,,1879535.0
1567412173.125,-5.37,,,1875364.0
1567412173.140625,-7.71,,,1871646.0
1567412173.15625,-9.42,,,1867836.0
1567412173.171875,-10.53,,,1864382.0
1567412173.1875,-11.14,,,1861582.0
1567412173.203125,-11.29,,,1859470.0
1567412173.21875,-10.96,,,1857518.0
1567412173.234375,-10.12,,,1856035.0
1567412173.25,-8.84,,,1854613.0
1567412173.265625,-7.25,,,1853229.0
1567412173.28125,-5.6,,,1850592.0
1567412173.296875,-4.15,,,1846785.0
1567412173.3125,-3.02,,,1842716.0
1567412173.328125,-2.18,,,1839173.0
1567412173.34375,-1.49,,,1835832.0
1567412173.359375,-0.77,,,1851795.0
1567412173.375,0.11,,,1849668.0
1567412173.390625,1.12,,,1832736.0
1567412173.40625,2.12,,,1830161.0
1567412173.421875,2.89,,,1828151.0
1567412173.4375,3.22,,,1826014.0
1567412173.453125,3.02,,,1822460.0
1567412173.46875,2.35,,,1821416.0
1567412173.484375,1.36,,,1824324.0
1567412173.5,0.36,,,1820817.0
1567412173.515625,-0.42,,,1820433.0
1567412173.53125,-0.84,,,1820267.0
1567412173.546875,-0.89,,,1820432.0
1567412173.5625,-0.69,,,1821137.0
1567412173.578125,-0.41,,,1823338.0
1567412173.59375,-0.12,,,1826182.0
1567412173.609375,0.17,,,1836447.0
1567412173.625,0.54,,,1831155.0
1567412173.640625,1.05,,,1839465.0
1567412173.65625,1.65,,,1841855.0
1567412173.671875,2.22,,,1845927.0
1567412173.6875,2.56,,,1850092.0
1567412173.703125,2.64,,,1855350.0
1567412173.71875,2.51,,,1860459.0
1567412173.734375,2.33,,,1865920.0
1567412173.75,2.27,,,1871376.0
1567412173.765625,2.35,,,1877085.0
1567412173.78125,2.44,,,1883209.0
1567412173.796875,2.28,,,1889581.0
1567412173.8125,1.64,,,1896169.0
1567412173.828125,0.51,,,1902550.0
1567412173.84375,-0.96,,,1910688.0
1567412173.859375,-2.42,,,1930596.0
1567412173.875,-3.53,,,1942309.0
1567412173.890625,-4.14,,,1940804.0
1567412173.90625,-4.37,,,1936795.0
1567412173.921875,-4.54,,,1932927.0
1567412173.9375,-5.03,,,1930455.0
1567412173.953125,-6.02,,,1928511.0
1567412173.96875,-7.47,,,1927915.0
1567412173.984375,-9.12,,,1939881.0
1567412174.0,-10.59,,,1919251.0
1567412174.015625,-11.54,,,1925380.0
1567412174.03125,-11.82,,,1923088.0
1567412174.046875,-11.4,,,1926660.0
1567412174.0625,-10.35,,,1924060.0
1567412174.078125,-8.87,,,1923341.0
1567412174.09375,-7.1,,,1923003.0
1567412174.109375,-5.2,,,1924045.0
1567412174.125,-3.31,,,1925288.0
1567412174.140625,-1.49,,,1926535.0
1567412174.15625,0.21,,,1927105.0
1567412174.171875,1.84,,,1925855.0
1567412174.1875,3.45,,,1927047.0
1567412174.203125,5.2,,,1924898.0
1567412174.21875,7.17,,,1922571.0
1567412174.234375,9.33,,,1920606.0
1567412174.25,11.57,,,1918989.0
1567412174.265625,13.6,,,1917463.0
1567412174.28125,15.02,,,1916387.0
1567412174.296875,15.52,,,1915775.0
1567412174.3125,14.93,,,1914818.0
1567412174.328125,13.44,,,1914203.0
1567412174.34375,11.45,,,1913970.0
1567412174.359375,9.49,,,1914504.0
1567412174.375,7.93,,,1915280.0
1567412174.390625,6.91,,,1915799.0
1567412174.40625,6.3,,,1916365.0
1567412174.421875,5.86,,,1916988.0
1567412174.4375,5.45,,,1918085.0
1567412174.453125,5.01,,,1918716.0
1567412174.46875,4.59,,,1919074.0
1567412174.484375,4.24,,,1917971.0
1567412174.5,3.86,,,1915871.0
1567412174.515625,3.29,,,1914193.0
1567412174.53125,2.37,,,1912700.0
1567412174.546875,1.12,,,1911766.0
1567412174.5625,-0.3,,,1911386.0
1567412174.578125,-1.61,,,1911946.0
1567412174.59375,-2.56,,,1912410.0
1567412174.609375,-3.0,,,1913291.0
1567412174.625,-2.98,,,1914302.0
1567412174.640625,-2.59,,,1915695.0
1567412174.65625,-1.96,,,1917648.0
1567412174.671875,-1.2,,,1919424.0
1567412174.6875,-0.43,,,1921374.0
1567412174.703125,0.24,,,1923262.0
1567412174.71875,0.79,,,1926008.0
1567412174.734375,1.31,,,1929487.0
1567412174.75,1.96,,,1934012.0
1567412174.765625,2.91,,,1938768.0
1567412174.78125,4.19,,,1941975.0
1567412174.796875,5.64,,,1947868.0
1567412174.8125,6.94,,,1953709.0
1567412174.828125,7.78,,,1955717.0
1567412174.84375,7.95,,,1954153.0
1567412174.859375,7.45,,,1951353.0
1567412174.875,6.39,,,1949781.0
1567412174.890625,5.05,,,1948179.0
1567412174.90625,3.65,,,1945918.0
1567412174.921875,2.29,,,1944312.0
1567412174.9375,1.1,,,1943288.0
1567412174.953125,0.11,,,1941998.0
1567412174.96875,-0.65,,,1939532.0
1567412174.984375,-1.13,,,1940890.0
1567412175.0,-1.32,,,1938265.0
1567412175.015625,-1.24,,,1937572.0
1567412175.03125,-1.02,,,1936905.0
1567412175.046875,-0.84,,,1936097.0
1567412175.0625,-0.9,,,1934834.0
1567412175.078125,-1.38,,,1929129.0
1567412175.09375,-2.22,,,1932377.0
1567412175.109375,-3.22,,,1926438.0
1567412175.125,-4.04,,,1923961.0
1567412175.140625,-4.34,,,1921450.0
1567412175.15625,-4.03,,,1919258.0
1567412175.171875,-3.19,,,1917093.0
1567412175.1875,-2.06,,,1914777.0
1567412175.203125,-0.96,,,1912797.0
1567412175.21875,-0.14,,,1911502.0
1567412175.234375,0.24,,,1910154.0
1567412175.25,0.17,,,1909402.0
1567412175.265625,-0.25,,,1909097.0
1567412175.28125,-0.77,,,1909114.0
1567412175.296875,-1.04,,,1908829.0
1567412175.3125,-0.74,,,1909227.0
1567412175.328125,0.29,,,1906870.0
1567412175.34375,1.91,,,1908902.0
1567412175.359375,3.67,,,1904445.0
1567412175.375,4.99,,,1909277.0
1567412175.390625,5.42,,,1902885.0
1567412175.40625,4.78,,,1901790.0
1567412175.421875,3.26,,,1901004.0
1567412175.4375,1.23,,,1901216.0
1567412175.453125,-0.88,,,1903098.0
1567412175.46875,-2.74,,,1905390.0
1567412175.484375,-4.13,,,1904260.0
1567412175.5,-5.02,,,1902039.0
1567412175.515625,-5.35,,,1906728.0
1567412175.53125,-5.2,,,1908308.0
1567412175.546875,-4.7,,,1910673.0
1567412175.5625,-4.03,,,1913392.0
1567412175.578125,-3.33,,,1916391.0
1567412175.59375,-2.73,,,1919977.0
1567412175.609375,-2.28,,,1924643.0
1567412175.625,-1.9,,,1928643.0
1567412175.640625,-1.53,,,1933294.0
1567412175.65625,-1.15,,,1938797.0
1567412175.671875,-0.83,,,1940184.0
1567412175.6875,-0.68,,,1939025.0
1567412175.703125,-0.77,,,1932347.0
1567412175.71875,-1.09,,,1927928.0
1567412175.734375,-1.53,,,1925333.0
1567412175.75,-1.95,,,1922679.0
1567412175.765625,-2.18,,,1920365.0
1567412175.78125,-2.22,,,1918751.0
1567412175.796875,-2.15,,,1917358.0
1567412175.8125,-2.17,,,1916326.0
1567412175.828125,-2.51,,,1915258.0
1567412175.84375,-3.21,,,1914236.0
1567412175.859375,-4.2,,,1913533.0
1567412175.875,-5.17,,,1912994.0
1567412175.890625,-5.8,,,1930301.0
1567412175.90625,-5.91,,,1912248.0
1567412175.921875,-5.49,,,1910074.0
1567412175.9375,-4.76,,,1905998.0
1567412175.953125,-4.0,,,1935020.0
1567412175.96875,-3.43,,,1899625.0
1567412175.984375,-3.11,,,1896911.0
1567412176.0,-2.93,,,1894749.0
1567412176.015625,-2.76,,,1902597.0
1567412176.03125,-2.53,,,1893043.0
1567412176.046875,-2.25,,,1889850.0
1567412176.0625,-2.04,,,1891400.0
1567412176.078125,-1.98,,,1887824.0
1567412176.09375,-2.02,,,1887210.0
1567412176.109375,-2.03,,,1888582.0
1567412176.125,-1.89,,,1886637.0
1567412176.140625,-1.64,,,1886187.0
1567412176.15625,-1.34,,,1886417.0
1567412176.171875,-1.24,,,1886097.0
1567412176.1875,-1.42,,,1886123.0
1567412176.203125,-1.89,,,1885841.0
1567412176.21875,-2.44,,,1881841.0
1567412176.234375,-2.82,,,1886450.0
1567412176.25,-2.81,,,1883704.0
1567412176.265625,-2.33,,,1881061.0
1567412176.28125,-1.53,,,1881250.0
1567412176.296875,-0.65,,,1880639.0
1567412176.3125,0.08,,,1884057.0
1567412176.328125,0.52,,,1882791.0
1567412176.34375,0.66,,,1886383.0
1567412176.359375,0.6,,,1888919.0
1567412176.375,0.5,,,1892199.0
1567412176.390625,0.49,,,1895782.0
1567412176.40625,0.67,,,1900293.0
1567412176.421875,1.05,,,1905292.0
1567412176.4375,1.6,,,1909319.0
1567412176.453125,2.21,,,1913444.0
1567412176.46875,2.85,,,1917054.0
1567412176.484375,3.46,,,1920465.0
1567412176.5,4.14,,,1923032.0
1567412176.515625,4.94,,,1924143.0
1567412176.53125,5.88,,,1923781.0
1567412176.546875,6.87,,,1923702.0
1567412176.5625,7.64,,,1923573.0
1567412176.578125,7.96,,,1923179.0
1567412176.59375,7.76,,,1923087.0
1567412176.609375,7.2,,,1923365.0
1567412176.625,6.62,,,1923213.0
1567412176.640625,6.37,,,1923701.0
1567412176.65625,6.53,,,1925393.0
1567412176.671875,6.89,,,1929719.0
1567412176.6875,7.01,,,1933371.0
1567412176.703125,6.45,,,1939949.0
1567412176.71875,5.11,,,1944913.0
1567412176.734375,3.26,,,1949065.0
1567412176.75,1.35,,,1950727.0
1567412176.765625,-0.15,,,1952042.0
1567412176.78125,-1.02,,,1952751.0
1567412176.796875,-1.3,,,1952689.0
1567412176.8125,-1.26,,,1951887.0
1567412176.828125,-1.17,,,1950208.0
1567412176.84375,-1.25,,,1948651.0
1567412176.859375,-1.65,,,1947262.0
1567412176.875,-2.41,,,1946498.0
1567412176.890625,-3.59,,,1946769.0
1567412176.90625,-5.15,,,1947182.0
1567412176.921875,-6.9,,,1947934.0
1567412176.9375,-8.52,,,1948338.0
1567412176.953125,-9.61,,,1948649.0
1567412176.96875,-9.8,,,1949427.0
1567412176.984375,-8.95,,,1950753.0
1567412177.0,-7.26,,,1952622.0
1567412177.015625,-5.22,,,1954262.0
1567412177.03125,-3.42,,,1956186.0
1567412177.046875,-2.32,,,1958686.0
1567412177.0625,-2.05,,,1961441.0
1567412177.078125,-2.37,,,1963186.0
1567412177.09375,-2.8,,,1964680.0
1567412177.109375,-2.86,,,1965076.0
1567412177.125,-2.3,,,1964802.0
1567412177.140625,-1.16,,,1964735.0
1567412177.15625,0.31,,,1964396.0
1567412177.171875,1.73,,,1964312.0
1567412177.1875,2.88,,,1965337.0
1567412177.203125,3.71,,,1967141.0
1567412177.21875,4.3,,,1968245.0
1567412177.234375,4.78,,,1969823.0
1567412177.25,5.16,,,1971515.0
1567412177.265625,5.34,,,1973464.0
1567412177.28125,5.17,,,1975410.0
1567412177.296875,4.61,,,1977498.0
1567412177.3125,3.74,,,1979775.0
1567412177.328125,2.86,,,1981804.0
1567412177.34375,2.18,,,1983942.0
1567412177.359375,1.85,,,1986226.0
1567412177.375,1.83,,,1988507.0
1567412177.390625,1.99,,,1990503.0
1567412177.40625,2.16,,,1990980.0
1567412177.421875,2.29,,,1990306.0
1567412177.4375,2.42,,,1989599.0
1567412177.453125,2.56,,,1989472.0
1567412177.46875,2.66,,,1989207.0
1567412177.484375,2.59,,,1989579.0
1567412177.5,2.23,,,1990146.0
1567412177.515625,1.52,,,1990379.0
1567412177.53125,0.47,,,1990862.0
1567412177.546875,-0.82,,,1991227.0
1567412177.5625,-2.32,,,1992164.0
1567412177.578125,-4.02,,,1993254.0
1567412177.59375,-5.95,,,1994625.0
1567412177.609375,-8.02,,,2000508.0
1567412177.625,-9.99,,,1996686.0
1567412177.640625,-11.49,,,2003708.0
1567412177.65625,-12.1,,,2010305.0
1567412177.671875,-11.6,,,2017113.0
1567412177.6875,-10.0,,,2021553.0
1567412177.703125,-7.65,,,2023255.0
1567412177.71875,-4.98,,,2024467.0
1567412177.734375,-2.36,,,2023881.0
1567412177.75,0.04,,,2026996.0
1567412177.765625,2.29,,,2032015.0
1567412177.78125,4.53,,,2036855.0
1567412177.796875,6.83,,,2040848.0
1567412177.8125,8.97,,,2042598.0
1567412177.828125,10.55,,,2044235.0
1567412177.84375,11.19,,,2047023.0
1567412177.859375,10.79,,,2050685.0
1567412177.875,9.58,,,2054542.0
1567412177.890625,8.15,,,2058010.0
1567412177.90625,7.13,,,2060596.0
1567412177.921875,6.87,,,2061587.0
1567412177.9375,7.35,,,2062331.0
1567412177.953125,8.16,,,2063683.0
1567412177.96875,8.74,,,2065100.0
1567412177.984375,8.63,,,2065825.0
1567412178.0,7.69,,,2066077.0
1567412178.015625,6.15,,,2066820.0
1567412178.03125,4.46,,,2066750.0
1567412178.046875,3.14,,,2067518.0
1567412178.0625,2.46,,,2068300.0
1567412178.078125,2.44,,,2070905.0
1567412178.09375,2.81,,,2074419.0
1567412178.109375,3.16,,,2077655.0
1567412178.125,3.11,,,2080265.0
1567412178.140625,2.47,,,2083034.0
1567412178.15625,1.25,,,2084921.0
1567412178.171875,-0.34,,,2084651.0
1567412178.1875,-1.99,,,2084585.0
1567412178.203125,-3.45,,,2085542.0
1567412178.21875,-4.56,,,2087316.0
1567412178.234375,-5.33,,,2088996.0
1567412178.25,-5.93,,,2093483.0
1567412178.265625,-6.53,,,2098054.0
1567412178.28125,-7.29,,,2101041.0
1567412178.296875,-8.2,,,2101700.0
1567412178.3125,-9.19,,,2103012.0
1567412178.328125,-10.11,,,2104447.0
1567412178.34375,-10.95,,,2107016.0
1567412178.359375,-11.66,,,2109050.0
1567412178.375,-12.31,,,2109849.0
1567412178.390625,-12.88,,,2109894.0
1567412178.40625,-13.26,,,2109962.0
1567412178.421875,-13.31,,,2111618.0
1567412178.4375,-12.91,,,2111432.0
1567412178.453125,-12.06,,,2113198.0
1567412178.46875,-10.88,,,2114851.0
1567412178.484375,-9.53,,,2115981.0
1567412178.5,-8.11,,,2118085.0
1567412178.515625,-6.57,,,2120532.0
1567412178.53125,-4.81,,,2121935.0
1567412178.546875,-2.78,,,2123909.0
1567412178.5625,-0.49,,,2125515.0
1567412178.578125,1.85,,,2126473.0
1567412178.59375,3.98,,,2128223.0
1567412178.609375,5.68,,,2127638.0
1567412178.625,6.85,,,2132147.0
1567412178.640625,7.48,,,2133714.0
1567412178.65625,7.66,,,2136332.0
1567412178.671875,7.5,,,2135790.0
1567412178.6875,7.09,,,2134630.0
1567412178.703125,6.5,,,2132802.0
1567412178.71875,5.78,,,2132138.0
1567412178.734375,5.03,,,2130889.0
1567412178.75,4.33,,,2130174.0
1567412178.765625,3.75,,,2129899.0
1567412178.78125,3.29,,,2128880.0
1567412178.796875,2.86,,,2128108.0
1567412178.8125,2.45,,,2127970.0
1567412178.828125,2.08,,,2127102.0
1567412178.84375,1.85,,,2124347.0
1567412178.859375,1.88,,,2121163.0
1567412178.875,2.24,,,2117918.0
1567412178.890625,2.8,,,2114465.0
1567412178.90625,3.33,,,2111596.0
1567412178.921875,3.51,,,2109502.0
1567412178.9375,3.21,,,2107714.0
1567412178.953125,2.52,,,2105309.0
1567412178.96875,1.68,,,2103293.0
1567412178.984375,1.03,,,2101416.0
1567412179.0,0.74,,,2099435.0
1567412179.015625,0.71,,,2097851.0
1567412179.03125,0.62,,,2096506.0
1567412179.046875,0.08,,,2095456.0
1567412179.0625,-1.08,,,2094656.0
1567412179.078125,-2.8,,,2093620.0
1567412179.09375,-4.68,,,2092594.0
1567412179.109375,-6.22,,,2090646.0
1567412179.125,-6.98,,,2087546.0
1567412179.140625,-6.81,,,2084667.0
1567412179.15625,-5.9,,,2081653.0
1567412179.171875,-4.66,,,2078722.0
1567412179.1875,-3.55,,,2076656.0
1567412179.203125,-2.8,,,2074516.0
1567412179.21875,-2.34,,,2072252.0
1567412179.234375,-1.9,,,2070559.0
1567412179.25,-1.2,,,2067778.0
1567412179.265625,-0.16,,,2065065.0
1567412179.28125,1.05,,,2062184.0
1567412179.296875,2.03,,,2060135.0
1567412179.3125,2.48,,,2058979.0
1567412179.328125,2.3,,,2059078.0
1567412179.34375,1.71,,,2058729.0
1567412179.359375,1.01,,,2059418.0
1567412179.375,0.54,,,2059981.0
1567412179.390625,0.47,,,2059784.0
1567412179.40625,0.77,,,2058875.0
1567412179.421875,1.3,,,2058073.0
1567412179.4375,1.93,,,2055806.0
1567412179.453125,2.54,,,2053128.0
1567412179.46875,3.05,,,2052150.0
1567412179.484375,3.36,,,2052025.0
1567412179.5,3.39,,,2050754.0
1567412179.515625,3.17,,,2049534.0
1567412179.53125,2.83,,,2050198.0
1567412179.546875,2.58,,,2051069.0
1567412179.5625,2.62,,,2053613.0
1567412179.578125,2.98,,,2054836.0
1567412179.59375,3.51,,,2058126.0
1567412179.609375,4.02,,,2058773.0
1567412179.625,4.34,,,2057572.0
1567412179.640625,4.49,,,2054319.0
1567412179.65625,4.66,,,2052355.0
1567412179.671875,4.97,,,2049229.0
1567412179.6875,5.47,,,2045097.0
1567412179.703125,5.99,,,2041377.0
1567412179.71875,6.25,,,2038281.0
1567412179.734375,6.04,,,2034830.0
1567412179.75,5.3,,,2031182.0
1567412179.765625,4.16,,,2025356.0
1567412179.78125,2.82,,,2022972.0
1567412179.796875,1.44,,,2020728.0
1567412179.8125,0.06,,,2018293.0
1567412179.828125,-1.31,,,2027980.0
1567412179.84375,-2.65,,,2016384.0
1567412179.859375,-3.79,,,2015342.0
1567412179.875,-4.48,,,2014105.0
1567412179.890625,-4.48,,,2013154.0
1567412179.90625,-3.74,,,2012633.0
1567412179.921875,-2.52,,,2012471.0
1567412179.9375,-1.23,,,2012017.0
1567412179.953125,-0.36,,,2011022.0
1567412179.96875,-0.13,,,2008548.0
1567412179.984375,-0.38,,,2005490.0
1567412180.0,-0.72,,,2002541.0
1567412180.015625,-0.67,,,1996965.0
1567412180.03125,0.01,,,1994905.0
1567412180.046875,1.15,,,1992851.0
1567412180.0625,2.36,,,1990863.0
1567412180.078125,3.12,,,1989010.0
1567412180.09375,3.19,,,1987177.0
1567412180.109375,2.6,,,1999823.0
1567412180.125,1.68,,,1985871.0
1567412180.140625,0.86,,,1985038.0
1567412180.15625,0.51,,,1984766.0
1567412180.171875,0.74,,,1984518.0
1567412180.1875,1.47,,,1984266.0
1567412180.203125,2.51,,,1983613.0
1567412180.21875,3.59,,,1983941.0
1567412180.234375,4.45,,,1983822.0
1567412180.25,4.89,,,1982582.0
1567412180.265625,4.78,,,1981391.0
1567412180.28125,4.06,,,1981857.0
1567412180.296875,2.81,,,1981566.0
1567412180.3125,1.19,,,1981445.0
1567412180.328125,-0.55,,,1982174.0
1567412180.34375,-2.18,,,1982989.0
1567412180.359375,-3.51,,,1983812.0
1567412180.375,-4.4,,,1984995.0
1567412180.390625,-4.83,,,1986720.0
1567412180.40625,-4.87,,,1989091.0
1567412180.421875,-4.67,,,1991985.0
1567412180.4375,-4.45,,,1995610.0
1567412180.453125,-4.44,,,2003266.0
1567412180.46875,-4.86,,,2007776.0
1567412180.484375,-5.77,,,1999158.0
1567412180.5,-7.16,,,2012194.0
1567412180.515625,-8.76,,,2019665.0
1567412180.53125,-10.21,,,2024941.0
1567412180.546875,-11.14,,,2031154.0
1567412180.5625,-11.35,,,2035287.0
1567412180.578125,-10.85,,,2036748.0
1567412180.59375,-9.9,,,2033807.0
1567412180.609375,-8.85,,,2027693.0
1567412180.625,-7.95,,,2027693.0
1567412180.640625,-7.18,,,2025936.0
1567412180.65625,-6.37,,,2020604.0
1567412180.671875,-5.34,,,2017209.0
1567412180.6875,-4.07,,,2014031.0
1567412180.703125,-2.75,,,2012821.0
1567412180.71875,-1.73,,,2022985.0
1567412180.734375,-1.26,,,2019342.0
1567412180.75,-1.34,,,2015642.0
1567412180.765625,-1.76,,,2012040.0
1567412180.78125,-2.16,,,2010597.0
1567412180.796875,-2.33,,,2009804.0
1567412180.8125,-2.22,,,2009547.0
1567412180.828125,-1.96,,,2008411.0
1567412180.84375,-1.74,,,2005943.0
1567412180.859375,-1.62,,,2003037.0
1567412180.875,-1.52,,,2000509.0
1567412180.890625,-1.32,,,1998177.0
1567412180.90625,-0.95,,,1996099.0
1567412180.921875,-0.39,,,1994258.0
1567412180.9375,0.26,,,1992697.0
1567412180.953125,0.93,,,1990956.0
1567412180.96875,1.64,,,1989185.0
1567412180.984375,2.55,,,1988129.0
1567412181.0,3.77,,,1987390.0
1567412181.015625,5.34,,,1987112.0
1567412181.03125,7.16,,,1986989.0
1567412181.046875,8.92,,,1986867.0
1567412181.0625,10.32,,,1986881.0
1567412181.078125,11.11,,,1987119.0
1567412181.09375,11.26,,,1987492.0
1567412181.109375,10.91,,,1987762.0
1567412181.125,10.27,,,1986514.0
1567412181.140625,9.55,,,1984897.0
1567412181.15625,8.85,,,1983206.0
1567412181.171875,8.12,,,1981805.0
1567412181.1875,7.35,,,1980506.0
1567412181.203125,6.49,,,1979219.0
1567412181.21875,5.56,,,1976927.0
1567412181.234375,4.55,,,1976123.0
1567412181.25,3.48,,,1975350.0
1567412181.265625,2.26,,,1975560.0
1567412181.28125,0.83,,,1976217.0
1567412181.296875,-0.89,,,1976482.0
1567412181.3125,-2.88,,,1977740.0
1567412181.328125,-5.01,,,1979197.0
1567412181.34375,-7.07,,,1980456.0
1567412181.359375,-8.76,,,1982580.0
1567412181.375,-9.79,,,1985053.0
1567412181.390625,-9.95,,,1987890.0
1567412181.40625,-9.26,,,1989756.0
1567412181.421875,-7.93,,,1990322.0
1567412181.4375,-6.33,,,1990070.0
1567412181.453125,-4.84,,,1989902.0
1567412181.46875,-3.68,,,1989699.0
1567412181.484375,-2.86,,,1989003.0
1567412181.5,-2.2,,,1990043.0
1567412181.515625,-1.45,,,1991774.0
1567412181.53125,-0.47,,,1993602.0
1567412181.546875,0.69,,,1993811.0
1567412181.5625,1.82,,,1994763.0
1567412181.578125,2.66,,,1996565.0
1567412181.59375,3.05,,,1997804.0
1567412181.609375,3.04,,,1999555.0
1567412181.625,2.84,,,2000091.0
1567412181.640625,2.76,,,2001610.0
1567412181.65625,3.04,,,2004258.0
1567412181.671875,3.79,,,2007889.0
1567412181.6875,4.86,,,2012743.0
1567412181.703125,5.94,,,2014436.0
1567412181.71875,6.73,,,2017186.0
1567412181.734375,6.98,,,2018779.0
1567412181.75,6.67,,,2016025.0
1567412181.765625,5.95,,,2011105.0
1567412181.78125,5.08,,,2007116.0
1567412181.796875,4.25,,,2003452.0
1567412181.8125,3.39,,,2000275.0
1567412181.828125,2.31,,,1998083.0
1567412181.84375,0.8,,,1996581.0
1567412181.859375,-1.14,,,1993867.0
1567412181.875,-3.27,,,1992698.0
1567412181.890625,-5.09,,,1991240.0
1567412181.90625,-6.15,,,1989521.0
1567412181.921875,-6.24,,,1988426.0
1567412181.9375,-5.49,,,1987008.0
1567412181.953125,-4.33,,,1985457.0
1567412181.96875,-3.2,,,1983913.0
1567412181.984375,-2.42,,,1982779.0
1567412182.0,-2.09,,,1981019.0
1567412182.015625,-2.05,,,1977492.0
1567412182.03125,-2.16,,,1973578.0
1567412182.046875,-2.26,,,1969828.0
1567412182.0625,-2.27,,,1966294.0
1567412182.078125,-2.14,,,1962956.0
1567412182.09375,-1.73,,,1960372.0
1567412182.109375,-0.9,,,1958385.0
1567412182.125,0.43,,,1958385.0
1567412182.140625,2.18,,,1956432.0
1567412182.15625,4.03,,,1954517.0
1567412182.171875,5.52,,,1953698.0
1567412182.1875,6.26,,,1953077.0
1567412182.203125,6.1,,,1952462.0
1567412182.21875,5.21,,,1952320.0
1567412182.234375,4.0,,,1952365.0
1567412182.25,2.87,,,1952092.0
1567412182.265625,2.06,,,1952639.0
1567412182.28125,1.52,,,1952954.0
1567412182.296875,1.02,,,1953384.0
1567412182.3125,0.37,,,1953359.0
1567412182.328125,-0.45,,,1951756.0
1567412182.34375,-1.24,,,1950594.0
1567412182.359375,-1.72,,,1949539.0
1567412182.375,-1.72,,,1948650.0
1567412182.390625,-1.21,,,1948390.0
1567412182.40625,-0.42,,,1949226.0
1567412182.421875,0.38,,,1951015.0
1567412182.4375,1.0,,,1952955.0
1567412182.453125,1.43,,,1954833.0
1567412182.46875,1.75,,,1956413.0
1567412182.484375,2.12,,,1958994.0
1567412182.5,2.65,,,1962312.0
1567412182.515625,3.33,,,1966243.0
1567412182.53125,4.05,,,1970630.0
1567412182.546875,4.68,,,1975233.0
1567412182.5625,5.15,,,1980332.0
1567412182.578125,5.41,,,1987429.0
1567412182.59375,5.48,,,1994513.0
1567412182.609375,5.3,,,2003004.0
1567412182.625,4.79,,,2008739.0
1567412182.640625,3.89,,,2009037.0
1567412182.65625,2.53,,,2006058.0
1567412182.671875,0.83,,,2002121.0
1567412182.6875,-1.03,,,1998844.0
1567412182.703125,-2.83,,,1996952.0
1567412182.71875,-4.46,,,1995959.0
1567412182.734375,-5.9,,,1995147.0
1567412182.75,-7.25,,,1993613.0
1567412182.765625,-8.65,,,1991209.0
1567412182.78125,-10.19,,,1990199.0
1567412182.796875,-11.84,,,1988742.0
1567412182.8125,-13.51,,,1987332.0
1567412182.828125,-15.03,,,1986802.0
1567412182.84375,-16.19,,,1986116.0
1567412182.859375,-16.75,,,1985438.0
1567412182.875,-16.5,,,1984619.0
1567412182.890625,-15.3,,,1982756.0
1567412182.90625,-13.14,,,1980294.0
1567412182.921875,-10.26,,,1977626.0
1567412182.9375,-7.06,,,1975178.0
1567412182.953125,-3.97,,,1972965.0
1567412182.96875,-1.31,,,1970416.0
1567412182.984375,0.83,,,1968691.0
1567412183.0,2.53,,,1967030.0
1567412183.015625,3.97,,,1965276.0
1567412183.03125,5.25,,,1963563.0
1567412183.046875,6.32,,,1962268.0
1567412183.0625,7.07,,,1961485.0
1567412183.078125,7.44,,,1960988.0
1567412183.09375,7.48,,,1960835.0
1567412183.109375,7.35,,,1960244.0
1567412183.125,7.15,,,1960420.0
1567412183.140625,6.92,,,1960113.0
1567412183.15625,6.51,,,1959731.0
1567412183.171875,5.75,,,1958445.0
1567412183.1875,4.67,,,1955822.0
1567412183.203125,3.49,,,1953244.0
1567412183.21875,2.6,,,1951276.0
1567412183.234375,2.3,,,1949721.0
1567412183.25,2.69,,,1948184.0
1567412183.265625,3.61,,,1947978.0
1567412183.28125,4.68,,,1949400.0
1567412183.296875,5.63,,,1951137.0
1567412183.3125,6.31,,,1952647.0
1567412183.328125,6.64,,,1954438.0
1567412183.34375,6.59,,,1955668.0
1567412183.359375,6.11,,,1956158.0
1567412183.375,5.07,,,1956494.0
1567412183.390625,3.51,,,1958499.0
1567412183.40625,1.66,,,1960503.0
1567412183.421875,-0.1,,,1961844.0
1567412183.4375,-1.3,,,1963633.0
1567412183.453125,-1.63,,,1966704.0
1567412183.46875,-1.06,,,1969752.0
1567412183.484375,0.18,,,1969442.0
1567412183.5,1.72,,,1971891.0
1567412183.515625,3.23,,,1973890.0
1567412183.53125,4.51,,,1972087.0
1567412183.546875,5.52,,,1961361.0
1567412183.5625,6.24,,,1967192.0
1567412183.578125,6.61,,,1953703.0
1567412183.59375,6.61,,,1950843.0
1567412183.609375,6.28,,,1957786.0
1567412183.625,5.92,,,1944727.0
1567412183.640625,6.01,,,1947719.0
1567412183.65625,7.13,,,1939631.0
1567412183.671875,9.59,,,1941943.0
1567412183.6875,13.24,,,1937539.0
1567412183.703125,17.36,,,1935787.0
1567412183.71875,20.94,,,1934609.0
1567412183.734375,23.04,,,1933064.0
1567412183.75,23.08,,,1931924.0
1567412183.765625,21.12,,,1930134.0
1567412183.78125,17.68,,,1926278.0
1567412183.796875,13.47,,,1921409.0
1567412183.8125,9.03,,,1913435.0
1567412183.828125,4.72,,,1909744.0
1567412183.84375,0.65,,,1917270.0
1567412183.859375,-3.06,,,1907096.0
1567412183.875,-6.23,,,1904214.0
1567412183.890625,-8.6,,,1901470.0
1567412183.90625,-10.01,,,1899249.0
1567412183.921875,-10.53,,,1897161.0
1567412183.9375,-10.43,,,1895795.0
1567412183.953125,-10.07,,,1894596.0
1567412183.96875,-9.67,,,1894062.0
1567412183.984375,-9.17,,,1893572.0
1567412184.0,-8.26,,,1892987.0
1567412184.015625,-6.54,,,1892586.0
1567412184.03125,-3.72,,,1892453.0
1567412184.046875,0.12,,,1892283.0
1567412184.0625,4.53,,,1891509.0
1567412184.078125,8.83,,,1888823.0
1567412184.09375,12.36,,,1885544.0
1567412184.109375,14.62,,,1883152.0
1567412184.125,15.45,,,1881902.0
1567412184.140625,14.95,,,1881855.0
1567412184.15625,13.38,,,1882629.0
1567412184.171875,10.97,,,1884242.0
1567412184.1875,7.98,,,1886307.0
1567412184.203125,4.67,,,1888018.0
1567412184.21875,1.41,,,1890160.0
1567412184.234375,-1.46,,,1892509.0
1567412184.25,-3.67,,,1895749.0
1567412184.265625,-5.2,,,1899265.0
1567412184.28125,-6.36,,,1902942.0
1567412184.296875,-7.68,,,1906834.0
1567412184.3125,-9.75,,,1910736.0
1567412184.328125,-12.9,,,1915497.0
1567412184.34375,-17.13,,,1920870.0
1567412184.359375,-22.1,,,1925614.0
1567412184.375,-27.25,,,1930264.0
1567412184.390625,-32.02,,,1934342.0
1567412184.40625,-36.0,,,1940998.0
1567412184.421875,-38.88,,,1948936.0
1567412184.4375,-40.53,,,1957520.0
1567412184.453125,-40.94,,,1960957.0
1567412184.46875,-40.23,,,1959777.0
1567412184.484375,-38.66,,,1955966.0
1567412184.5,-36.54,,,1952377.0
1567412184.515625,-34.21,,,1949948.0
1567412184.53125,-31.81,,,1947864.0
1567412184.546875,-29.35,,,1946788.0
1567412184.5625,-26.72,,,1944954.0
1567412184.578125,-23.83,,,1943318.0
1567412184.59375,-20.74,,,1942012.0
1567412184.609375,-17.72,,,1941282.0
1567412184.625,-15.16,,,1941152.0
1567412184.640625,-13.42,,,1941180.0
1567412184.65625,-12.66,,,1941413.0
1567412184.671875,-12.79,,,1940189.0
1567412184.6875,-13.47,,,1938909.0
1567412184.703125,-14.19,,,1937376.0
1567412184.71875,-14.51,,,1936056.0
1567412184.734375,-14.11,,,1934790.0
1567412184.75,-12.87,,,1933990.0
1567412184.765625,-10.87,,,1933700.0
1567412184.78125,-8.28,,,1932497.0
1567412184.796875,-5.36,,,1931507.0
1567412184.8125,-2.39,,,1931865.0
1567412184.828125,0.27,,,1931125.0
1567412184.84375,2.33,,,1931099.0
1567412184.859375,3.56,,,1930860.0
1567412184.875,4.06,,,1931190.0
1567412184.890625,4.17,,,1931493.0
1567412184.90625,4.42,,,1931848.0
1567412184.921875,5.27,,,1932427.0
1567412184.9375,6.8,,,1932659.0
1567412184.953125,8.7,,,1933139.0
1567412184.96875,10.27,,,1923898.0
1567412184.984375,10.88,,,1931793.0
1567412185.0,10.29,,,1923345.0
1567412185.015625,8.81,,,1927217.0
1567412185.03125,7.14,,,1922876.0
1567412185.046875,5.99,,,1924670.0
1567412185.0625,5.75,,,1930805.0
1567412185.078125,6.33,,,1925291.0
1567412185.09375,7.25,,,1934182.0
1567412185.109375,7.99,,,1942824.0
1567412185.125,8.22,,,1947424.0
1567412185.140625,7.95,,,1927132.0
1567412185.15625,7.47,,,1951747.0
1567412185.171875,7.2,,,1956543.0
1567412185.1875,7.42,,,1929376.0
1567412185.203125,8.25,,,1938514.0
1567412185.21875,9.66,,,1965542.0
1567412185.234375,11.48,,,1961137.0
1567412185.25,13.56,,,1965542.0
1567412185.265625,15.73,,,1971167.0
1567412185.28125,17.77,,,1974309.0
1567412185.296875,19.41,,,1977912.0
1567412185.3125,20.39,,,1982044.0
1567412185.328125,20.49,,,1992652.0
1567412185.34375,19.64,,,1993372.0
1567412185.359375,17.96,,,1988795.0
1567412185.375,15.75,,,1989796.0
1567412185.390625,13.39,,,1980870.0
1567412185.40625,11.25,,,1976655.0
1567412185.421875,9.66,,,1978078.0
1567412185.4375,8.88,,,1975265.0
1567412185.453125,8.99,,,1973693.0
1567412185.46875,9.94,,,1972329.0
1567412185.484375,11.47,,,1970906.0
1567412185.5,13.11,,,1970250.0
1567412185.515625,14.41,,,1984391.0
1567412185.53125,15.04,,,1969121.0
1567412185.546875,14.94,,,1969030.0
1567412185.5625,14.27,,,1968317.0
1567412185.578125,13.26,,,1967014.0
1567412185.59375,12.19,,,1964501.0
1567412185.609375,11.16,,,1962692.0
1567412185.625,10.28,,,1960986.0
1567412185.640625,9.55,,,1959222.0
1567412185.65625,8.93,,,1957930.0
1567412185.671875,8.29,,,1956427.0
1567412185.6875,7.44,,,1955328.0
1567412185.703125,6.08,,,1953910.0
1567412185.71875,4.1,,,1953068.0
1567412185.734375,1.62,,,1951884.0
1567412185.75,-0.93,,,1951457.0
1567412185.765625,-2.99,,,1951077.0
1567412185.78125,-4.09,,,1950914.0
1567412185.796875,-4.17,,,1950888.0
1567412185.8125,-3.62,,,1950812.0
1567412185.828125,-3.11,,,1951074.0
1567412185.84375,-3.18,,,1951609.0
1567412185.859375,-4.09,,,1951405.0
1567412185.875,-5.57,,,1950786.0
1567412185.890625,-7.07,,,1948087.0
1567412185.90625,-8.04,,,1946064.0
1567412185.921875,-8.09,,,1944461.0
1567412185.9375,-7.14,,,1942953.0
1567412185.953125,-5.39,,,1942928.0
1567412185.96875,-3.1,,,1944236.0
1567412185.984375,-0.51,,,1946710.0
1567412186.0,2.18,,,1949411.0
1567412186.015625,4.87,,,1952165.0
1567412186.03125,7.39,,,1955415.0
1567412186.046875,9.6,,,1958930.0
1567412186.0625,11.33,,,1962989.0
1567412186.078125,12.52,,,1968289.0
1567412186.09375,13.22,,,1972822.0
1567412186.109375,13.54,,,1980800.0
1567412186.125,13.6,,,1986382.0
1567412186.140625,13.44,,,1994721.0
1567412186.15625,13.04,,,2001128.0
1567412186.171875,12.33,,,2002858.0
1567412186.1875,11.33,,,2000072.0
1567412186.203125,10.18,,,1996198.0
1567412186.21875,9.05,,,1990958.0
1567412186.234375,8.11,,,1987061.0
1567412186.25,7.38,,,1984688.0
1567412186.265625,6.75,,,1983202.0
1567412186.28125,5.97,,,1981167.0
1567412186.296875,4.89,,,1978976.0
1567412186.3125,3.46,,,1976979.0
1567412186.328125,1.78,,,1975306.0
1567412186.34375,0.13,,,1974461.0
1567412186.359375,-1.32,,,1973617.0
1567412186.375,-2.49,,,1973210.0
1567412186.390625,-3.49,,,1972975.0
1567412186.40625,-4.53,,,1972852.0
1567412186.421875,-5.79,,,1972617.0
1567412186.4375,-7.26,,,1971984.0
1567412186.453125,-8.75,,,1971139.0
1567412186.46875,-9.9,,,1970637.0
1567412186.484375,-10.45,,,1969561.0
1567412186.5,-10.32,,,1968366.0
1567412186.515625,-9.73,,,1966612.0
1567412186.53125,-9.13,,,1965282.0
1567412186.546875,-8.96,,,1964141.0
1567412186.5625,-9.48,,,1963369.0
1567412186.578125,-10.69,,,1962592.0
1567412186.59375,-12.37,,,1962199.0
1567412186.609375,-14.21,,,1962232.0
1567412186.625,-15.84,,,1962335.0
1567412186.640625,-17.01,,,1962382.0
1567412186.65625,-17.46,,,1962393.0
1567412186.671875,-17.07,,,1962042.0
1567412186.6875,-15.9,,,1961994.0
1567412186.703125,-14.15,,,1962311.0
1567412186.71875,-12.19,,,1963411.0
1567412186.734375,-10.37,,,1964571.0
1567412186.75,-8.91,,,1966207.0
1567412186.765625,-7.79,,,1967463.0
1567412186.78125,-6.83,,,1967793.0
1567412186.796875,-5.83,,,1967630.0
1567412186.8125,-4.71,,,1969303.0
1567412186.828125,-3.6,,,1971563.0
1567412186.84375,-2.73,,,1972456.0
1567412186.859375,-2.32,,,1973077.0
1567412186.875,-2.42,,,1974349.0
1567412186.890625,-2.88,,,1975086.0
1567412186.90625,-3.43,,,1974827.0
1567412186.921875,-3.79,,,1975254.0
1567412186.9375,-3.75,,,1976420.0
1567412186.953125,-3.31,,,1977524.0
1567412186.96875,-2.55,,,1978392.0
1567412186.984375,-1.69,,,1981324.0
1567412187.0,-0.9,,,1985752.0
1567412187.015625,-0.2,,,1985945.0
1567412187.03125,0.5,,,1990708.0
1567412187.046875,1.37,,,1997013.0
1567412187.0625,2.51,,,1994062.0
1567412187.078125,3.75,,,1987175.0
1567412187.09375,4.78,,,1981029.0
1567412187.109375,5.24,,,1975815.0
1567412187.125,5.0,,,1970754.0
1567412187.140625,4.27,,,1967623.0
1567412187.15625,3.5,,,1964238.0
1567412187.171875,3.24,,,1961331.0
1567412187.1875,3.76,,,1958736.0
1567412187.203125,5.02,,,1955624.0
1567412187.21875,6.63,,,1953624.0
1567412187.234375,8.04,,,1951898.0
1567412187.25,8.71,,,1950570.0
1567412187.265625,8.36,,,1949431.0
1567412187.28125,6.96,,,1947731.0
1567412187.296875,4.63,,,1948538.0
1567412187.3125,1.71,,,1947731.0
1567412187.328125,-1.37,,,1947156.0
1567412187.34375,-4.15,,,1946596.0
1567412187.359375,-6.21,,,1945484.0
1567412187.375,-7.31,,,1944033.0
1567412187.390625,-7.42,,,1942162.0
1567412187.40625,-6.71,,,1940022.0
1567412187.421875,-5.44,,,1938334.0
1567412187.4375,-3.86,,,1936677.0
1567412187.453125,-2.21,,,1935606.0
1567412187.46875,-0.63,,,1934988.0
1567412187.484375,0.71,,,1934400.0
1567412187.5,1.71,,,1933522.0
1567412187.515625,2.3,,,1933050.0
1567412187.53125,2.55,,,1932957.0
1567412187.546875,2.63,,,1932767.0
1567412187.5625,2.86,,,1933270.0
1567412187.578125,3.43,,,1933416.0
1567412187.59375,4.4,,,1933967.0
1567412187.609375,5.63,,,1934170.0
1567412187.625,6.84,,,1934805.0
1567412187.640625,7.74,,,1935245.0
1567412187.65625,8.19,,,1935345.0
1567412187.671875,8.23,,,1935646.0
1567412187.6875,8.05,,,1935913.0
1567412187.703125,7.86,,,1937104.0
1567412187.71875,7.84,,,1939257.0
1567412187.734375,8.01,,,1942944.0
1567412187.75,8.31,,,1946711.0
1567412187.765625,8.6,,,1950502.0
1567412187.78125,8.71,,,1953798.0
1567412187.796875,8.46,,,1956718.0
1567412187.8125,7.68,,,1959784.0
1567412187.828125,6.27,,,1962629.0
1567412187.84375,4.19,,,1964871.0
1567412187.859375,1.57,,,1967100.0
1567412187.875,-1.31,,,1969149.0
1567412187.890625,-4.08,,,1971441.0
1567412187.90625,-6.29,,,1972848.0
1567412187.921875,-7.64,,,1974503.0
1567412187.9375,-7.99,,,1975447.0
1567412187.953125,-7.53,,,1974735.0
1567412187.96875,-6.63,,,1973415.0
1567412187.984375,-5.74,,,1971470.0
1567412188.0,-5.18,,,1972029.0
1567412188.015625,-5.1,,,1970756.0
1567412188.03125,-5.38,,,1969831.0
1567412188.046875,-5.85,,,1969483.0
1567412188.0625,-6.36,,,1969119.0
1567412188.078125,-6.87,,,1969053.0
1567412188.09375,-7.4,,,1969116.0
1567412188.109375,-7.9,,,1969766.0
1567412188.125,-8.16,,,1970313.0
1567412188.140625,-7.94,,,1972174.0
1567412188.15625,-6.99,,,1974806.0
1567412188.171875,-5.3,,,1978448.0
1567412188.1875,-3.13,,,1981969.0
1567412188.203125,-0.92,,,1986136.0
1567412188.21875,1.0,,,1990296.0
1567412188.234375,2.6,,,1992082.0
1567412188.25,4.05,,,1992883.0
1567412188.265625,5.64,,,1993884.0
1567412188.28125,7.52,,,1994833.0
1567412188.296875,9.56,,,1996046.0
1567412188.3125,11.36,,,1996843.0
1567412188.328125,12.54,,,1997546.0
1567412188.34375,12.89,,,2002589.0
1567412188.359375,12.43,,,2002589.0
1567412188.375,11.36,,,2007658.0
1567412188.390625,9.87,,,2013785.0
1567412188.40625,8.07,,,2016855.0
1567412188.421875,5.99,,,2016615.0
1567412188.4375,3.76,,,2014145.0
1567412188.453125,1.56,,,2011719.0
1567412188.46875,-0.36,,,2008763.0
1567412188.484375,-1.78,,,2006892.0
1567412188.5,-2.68,,,2004175.0
1567412188.515625,-3.19,,,2003036.0
1567412188.53125,-3.55,,,2000823.0
1567412188.546875,-3.92,,,1997387.0
1567412188.5625,-4.31,,,1993365.0
1567412188.578125,-4.61,,,1989915.0
1567412188.59375,-4.73,,,1987580.0
1567412188.609375,-4.63,,,1985189.0
1567412188.625,-4.34,,,1983068.0
1567412188.640625,-3.87,,,1981417.0
1567412188.65625,-3.21,,,1979777.0
1567412188.671875,-2.26,,,1977948.0
1567412188.6875,-0.95,,,1976521.0
1567412188.703125,0.56,,,1975305.0
1567412188.71875,1.94,,,1974487.0
1567412188.734375,2.76,,,1974137.0
1567412188.75,2.69,,,1973817.0
1567412188.765625,1.6,,,1973288.0
1567412188.78125,-0.36,,,1973023.0
1567412188.796875,-2.81,,,1972834.0
1567412188.8125,-5.32,,,1972752.0
1567412188.828125,-7.5,,,1971995.0
1567412188.84375,-9.04,,,1970133.0
1567412188.859375,-9.72,,,1968802.0
1567412188.875,-9.46,,,1967687.0
1567412188.890625,-8.24,,,1966530.0
1567412188.90625,-6.17,,,1965530.0
1567412188.921875,-3.54,,,1964589.0
1567412188.9375,-0.75,,,1963955.0
1567412188.953125,1.73,,,1963449.0
1567412188.96875,3.6,,,1962959.0
1567412188.984375,4.79,,,1962634.0
1567412189.0,5.48,,,1962721.0
1567412189.015625,6.01,,,1963250.0
1567412189.03125,6.68,,,1963981.0
1567412189.046875,7.6,,,1965432.0
1567412189.0625,8.68,,,1967314.0
1567412189.078125,9.71,,,1969098.0
1567412189.09375,10.48,,,1971871.0
1567412189.109375,10.95,,,1970891.0
1567412189.125,11.2,,,1970728.0
1567412189.140625,11.35,,,1972148.0
1567412189.15625,11.43,,,1972630.0
1567412189.171875,11.26,,,1972688.0
1567412189.1875,10.62,,,1974753.0
1567412189.203125,9.25,,,1977041.0
1567412189.21875,7.06,,,1978972.0
1567412189.234375,4.21,,,1982656.0
1567412189.25,0.99,,,1986788.0
1567412189.265625,-2.23,,,1991282.0
1567412189.28125,-5.15,,,1990381.0
1567412189.296875,-7.7,,,1996420.0
1567412189.3125,-10.02,,,1996420.0
1567412189.328125,-12.55,,,2001015.0
1567412189.34375,-15.85,,,1996008.0
1567412189.359375,-20.38,,,1990239.0
1567412189.375,-26.26,,,1988778.0
1567412189.390625,-33.08,,,1985451.0
1567412189.40625,-39.97,,,1981557.0
1567412189.421875,-45.88,,,1978083.0
1567412189.4375,-50.08,,,1973666.0
1567412189.453125,-52.39,,,1969458.0
1567412189.46875,-53.28,,,1966162.0
1567412189.484375,-53.42,,,1963040.0
1567412189.5,-53.31,,,1960409.0
1567412189.515625,-52.88,,,1958551.0
1567412189.53125,-51.57,,,1956167.0
1567412189.546875,-48.72,,,1954070.0
1567412189.5625,-44.1,,,1952520.0
1567412189.578125,-38.05,,,1950993.0
1567412189.59375,-31.4,,,1950121.0
1567412189.609375,-25.05,,,1949667.0
1567412189.625,-19.58,,,1949100.0
1567412189.640625,-15.04,,,1948791.0
1567412189.65625,-11.15,,,1948909.0
1567412189.671875,-7.58,,,1948464.0
1567412189.6875,-4.12,,,1947385.0
1567412189.703125,-0.84,,,1944531.0
1567412189.71875,2.04,,,1941851.0
1567412189.734375,4.28,,,1939461.0
1567412189.75,5.74,,,1937374.0
1567412189.765625,6.46,,,1935727.0
1567412189.78125,6.58,,,1934549.0
1567412189.796875,6.34,,,1931930.0
1567412189.8125,6.01,,,1933270.0
1567412189.828125,5.93,,,1930725.0
1567412189.84375,6.4,,,1929976.0
1567412189.859375,7.66,,,1929572.0
1567412189.875,9.81,,,1929601.0
1567412189.890625,12.82,,,1929670.0
1567412189.90625,16.45,,,1931118.0
1567412189.921875,20.29,,,1932911.0
1567412189.9375,23.9,,,1929980.0
1567412189.953125,26.88,,,1933874.0
1567412189.96875,29.01,,,1936204.0
1567412189.984375,30.27,,,1937881.0
1567412190.0,30.78,,,1941049.0
1567412190.015625,30.62,,,1938898.0
1567412190.03125,29.82,,,1944027.0
1567412190.046875,28.35,,,1946228.0
1567412190.0625,26.21,,,1942304.0
1567412190.078125,23.6,,,1948727.0
1567412190.09375,20.86,,,1951358.0
1567412190.109375,18.39,,,1953973.0
1567412190.125,16.57,,,1956093.0
1567412190.140625,15.53,,,1958484.0
1567412190.15625,15.13,,,1960280.0
1567412190.171875,15.04,,,1961517.0
1567412190.1875,14.87,,,1963494.0
1567412190.203125,14.33,,,1968765.0
1567412190.21875,13.41,,,1973538.0
1567412190.234375,12.25,,,1980678.0
1567412190.25,11.11,,,1986519.0
1567412190.265625,10.19,,,1985983.0
1567412190.28125,9.63,,,1980340.0
1567412190.296875,9.45,,,1974524.0
1567412190.3125,9.66,,,1969268.0
1567412190.328125,10.32,,,1964078.0
1567412190.34375,11.42,,,1960004.0
1567412190.359375,12.93,,,1957198.0
1567412190.375,14.65,,,1953839.0
1567412190.390625,16.29,,,1951063.0
1567412190.40625,17.51,,,1948691.0
1567412190.421875,18.1,,,1946836.0
1567412190.4375,18.0,,,1945231.0
1567412190.453125,17.38,,,1944092.0
1567412190.46875,16.43,,,1943520.0
1567412190.484375,15.38,,,1942803.0
1567412190.5,14.31,,,1942317.0
1567412190.515625,13.24,,,1941679.0
1567412190.53125,12.1,,,1941062.0
1567412190.546875,10.89,,,1939927.0
1567412190.5625,9.69,,,1938617.0
1567412190.578125,8.59,,,1937396.0
1567412190.59375,7.68,,,1936389.0
1567412190.609375,6.99,,,1935637.0
1567412190.625,6.42,,,1935107.0
1567412190.640625,5.79,,,1934730.0
1567412190.65625,4.97,,,1934406.0
1567412190.671875,3.93,,,1934517.0
1567412190.6875,2.8,,,1934873.0
1567412190.703125,1.84,,,1935043.0
1567412190.71875,1.31,,,1936152.0
1567412190.734375,1.35,,,1936038.0
1567412190.75,1.81,,,1937046.0
1567412190.765625,2.42,,,1937674.0
1567412190.78125,2.79,,,1938521.0
1567412190.796875,2.6,,,1939947.0
1567412190.8125,1.82,,,1941164.0
1567412190.828125,0.63,,,1940999.0
1567412190.84375,-0.62,,,1941050.0
1567412190.859375,-1.64,,,1941303.0
1567412190.875,-2.3,,,1942625.0
1567412190.890625,-2.74,,,1943594.0
1567412190.90625,-3.17,,,1946088.0
1567412190.921875,-3.82,,,1948105.0
1567412190.9375,-4.8,,,1952288.0
1567412190.953125,-6.08,,,1955184.0
1567412190.96875,-7.53,,,1957239.0
1567412190.984375,-9.04,,,1960102.0
1567412191.0,-10.55,,,1963259.0
1567412191.015625,-12.0,,,1966566.0
1567412191.03125,-13.3,,,1969979.0
1567412191.046875,-14.26,,,1973584.0
1567412191.0625,-14.63,,,1977373.0
1567412191.078125,-14.12,,,1980146.0
1567412191.09375,-12.58,,,1981707.0
1567412191.109375,-10.06,,,1980732.0
1567412191.125,-6.79,,,1979127.0
1567412191.140625,-3.19,,,1978458.0
1567412191.15625,0.3,,,1978811.0
1567412191.171875,3.3,,,1979312.0
1567412191.1875,5.68,,,1980609.0
1567412191.203125,7.43,,,1982393.0
1567412191.21875,8.69,,,1983387.0
1567412191.234375,9.68,,,1984292.0
1567412191.25,10.48,,,1985884.0
1567412191.265625,11.17,,,1988946.0
1567412191.28125,11.67,,,1992767.0
1567412191.296875,11.87,,,1994928.0
1567412191.3125,11.65,,,2002229.0
1567412191.328125,11.0,,,2008067.0
1567412191.34375,9.98,,,2008131.0
1567412191.359375,8.81,,,2003820.0
1567412191.375,7.78,,,2002552.0
1567412191.390625,7.18,,,1999069.0
1567412191.40625,7.08,,,1994797.0
1567412191.421875,7.33,,,1992773.0
1567412191.4375,7.61,,,1989924.0
1567412191.453125,7.56,,,1987463.0
1567412191.46875,7.04,,,1986398.0
1567412191.484375,6.22,,,1984771.0
1567412191.5,5.49,,,1983774.0
1567412191.515625,5.23,,,1982695.0
1567412191.53125,5.57,,,1981133.0
1567412191.546875,6.28,,,1980558.0
1567412191.5625,6.85,,,1980172.0
1567412191.578125,6.76,,,1979707.0
1567412191.59375,5.71,,,1979678.0
1567412191.609375,3.81,,,1979812.0
1567412191.625,1.45,,,1979865.0
1567412191.640625,-0.88,,,1980043.0
1567412191.65625,-2.88,,,1980274.0
1567412191.671875,-4.52,,,1979533.0
1567412191.6875,-5.98,,,1977633.0
1567412191.703125,-7.53,,,1973174.0
1567412191.71875,-9.32,,,1975365.0
1567412191.734375,-11.29,,,1971275.0
1567412191.75,-13.36,,,1969917.0
1567412191.765625,-15.44,,,1968833.0
1567412191.78125,-17.53,,,1968034.0
1567412191.796875,-19.66,,,1965693.0
1567412191.8125,-21.73,,,1966669.0
1567412191.828125,-23.43,,,1965364.0
1567412191.84375,-24.32,,,1964752.0
1567412191.859375,-24.02,,,1964938.0
1567412191.875,-22.45,,,1964746.0
1567412191.890625,-19.93,,,1965209.0
1567412191.90625,-17.11,,,1965346.0
1567412191.921875,-14.67,,,1966356.0
1567412191.9375,-13.03,,,1966451.0
1567412191.953125,-12.2,,,1966238.0
1567412191.96875,-11.84,,,1965284.0
1567412191.984375,-11.46,,,1963575.0
1567412192.0,-10.68,,,1963287.0
1567412192.015625,-9.34,,,1963711.0
1567412192.03125,-7.5,,,1964551.0
1567412192.046875,-5.39,,,1966362.0
1567412192.0625,-3.28,,,1968173.0
1567412192.078125,-1.45,,,1970375.0
1567412192.09375,-0.12,,,1973826.0
1567412192.109375,0.62,,,1976034.0
1567412192.125,0.81,,,1980467.0
1567412192.140625,0.67,,,1983915.0
1567412192.15625,0.53,,,1987389.0
1567412192.171875,0.69,,,1990982.0
1567412192.1875,1.31,,,1994841.0
1567412192.203125,2.31,,,1997855.0
1567412192.21875,3.49,,,2001642.0
1567412192.234375,4.61,,,2005515.0
1567412192.25,5.58,,,2008703.0
1567412192.265625,6.45,,,2010723.0
1567412192.28125,7.36,,,2012372.0
