timestamp,bvp,eda,temp,PPG GREEN
1549375375.84375,34.36,0.160118,33.43,2160295.0
1549375375.859375,35.82,0.188299,33.41,2160474.0
1549375375.875,35.32,0.178051,33.41,2160564.0
1549375375.890625,33.11,0.172928,33.41,2161489.0
1549375375.90625,29.86,0.171647,33.41,2162747.0
1549375375.921875,26.44,0.169085,33.43,2164303.0
1549375375.9375,23.75,0.165242,33.43,2166041.0
1549375375.953125,22.69,0.166523,33.43,2167935.0
1549375375.96875,24.14,0.163961,33.43,2169968.0
1549375375.984375,28.99,0.166523,33.41,2172042.0
1549375376.0,37.73,0.167804,33.41,2174421.0
1549375376.015625,50.07,0.167804,33.41,2177142.0
1549375376.03125,64.39,0.167804,33.41,2179463.0
1549375376.046875,77.77,0.166523,33.41,2180518.0
1549375376.0625,86.63,0.163961,33.41,2177580.0
1549375376.078125,87.89,0.165242,33.41,2174360.0
1549375376.09375,80.04,0.16268,33.41,2172243.0
1549375376.109375,63.77,0.166523,33.39,2170198.0
1549375376.125,41.54,0.167804,33.39,2168378.0
1549375376.140625,16.61,0.169085,33.39,2167247.0
1549375376.15625,-8.09,0.171647,33.39,2167402.0
1549375376.171875,-30.6,0.174209,33.37,2167829.0
1549375376.1875,-49.94,0.174209,33.37,2167961.0
1549375376.203125,-65.68,0.167804,33.37,2168228.0
1549375376.21875,-77.65,0.166523,33.37,2169290.0
1549375376.234375,-85.91,0.172928,33.39,2170458.0
1549375376.25,-90.95,0.172928,33.39,2172220.0
1549375376.265625,-93.72,0.171647,33.39,2174045.0
1549375376.28125,-95.43,0.174209,33.39,2175354.0
1549375376.296875,-96.9,0.188299,33.39,2175473.0
1549375376.3125,-98.24,0.172928,33.39,2176249.0
1549375376.328125,-98.78,0.171647,33.39,2177299.0
1549375376.34375,-97.52,0.170366,33.39,2179221.0
1549375376.359375,-93.73,0.170366,33.37,2181876.0
1549375376.375,-87.38,0.170366,33.37,2183988.0
1549375376.390625,-79.15,0.169085,33.37,2184206.0
1549375376.40625,-70.16,0.172928,33.37,2183817.0
1549375376.421875,-61.54,0.172928,33.37,2183074.0
1549375376.4375,-54.11,0.172928,33.37,2182642.0
1549375376.453125,-48.29,0.172928,33.37,2182745.0
1549375376.46875,-44.11,0.170366,33.37,2183815.0
1549375376.484375,-41.36,0.167804,33.37,2186676.0
1549375376.5,-39.62,0.170366,33.37,2188525.0
1549375376.515625,-38.43,0.170366,33.37,2190230.0
1549375376.53125,-37.33,0.172928,33.37,2192271.0
1549375376.546875,-35.95,0.175489,33.34,2194165.0
1549375376.5625,-34.13,0.174209,33.34,2195421.0
1549375376.578125,-31.92,0.175489,33.34,2196728.0
1549375376.59375,-29.55,0.174209,33.34,2198551.0
1549375376.609375,-27.34,0.174209,33.34,2199140.0
1549375376.625,-25.64,0.172928,33.34,2199830.0
1549375376.640625,-24.76,0.172928,33.34,2200631.0
1549375376.65625,-24.91,0.172928,33.34,2201500.0
1549375376.671875,-26.29,0.175489,33.33,2202428.0
1549375376.6875,-28.94,0.178051,33.33,2203557.0
1549375376.703125,-32.81,0.178051,33.33,2203294.0
1549375376.71875,-37.62,0.17677,33.33,2198586.0
1549375376.734375,-42.88,0.17677,33.34,2193252.0
1549375376.75,-47.92,0.174209,33.34,2189211.0
1549375376.765625,-52.05,0.174209,33.34,2186124.0
1549375376.78125,-54.87,0.174209,33.34,2181864.0
1549375376.796875,-56.34,0.17677,33.31,2178881.0
1549375376.8125,-56.93,0.175489,33.31,2178128.0
1549375376.828125,-57.38,0.178051,33.31,2176968.0
1549375376.84375,-58.25,0.179332,33.31,2175360.0
1549375376.859375,-59.52,0.181894,33.29,2173751.0
1549375376.875,-60.38,0.180613,33.29,2172926.0
1549375376.890625,-59.39,0.179332,33.29,2172133.0
1549375376.90625,-54.93,0.17677,33.29,2172461.0
1549375376.921875,-45.84,0.17677,33.29,2175064.0
1549375376.9375,-31.71,0.175489,33.29,2177955.0
1549375376.953125,-13.03,0.178051,33.29,2184469.0
1549375376.96875,9.12,0.179332,33.29,2190845.0
1549375376.984375,33.69,0.179332,33.33,2193706.0
1549375377.0,60.05,0.179332,33.33,2195176.0
1549375377.015625,88.19,0.181894,33.33,2194267.0
1549375377.03125,118.3,0.179332,33.33,2189966.0
1549375377.046875,150.24,0.178051,33.31,2178661.0
1549375377.0625,182.83,0.17677,33.31,2183709.0
1549375377.078125,213.5,0.179332,33.31,2174866.0
1549375377.09375,238.47,0.180613,33.31,2171082.0
1549375377.109375,253.58,0.181894,33.31,2167334.0
1549375377.125,255.15,0.180613,33.31,2164758.0
1549375377.140625,240.91,0.183175,33.31,2163066.0
1549375377.15625,210.51,0.180613,33.31,2160711.0
1549375377.171875,165.79,0.180613,33.31,2158835.0
1549375377.1875,110.83,0.178051,33.31,2157393.0
1549375377.203125,51.64,0.179332,33.31,2156402.0
1549375377.21875,-4.54,0.178051,33.31,2155861.0
1549375377.234375,-50.7,0.180613,33.29,2155432.0
1549375377.25,-81.68,0.181894,33.29,2155428.0
1549375377.265625,-95.63,0.183175,33.29,2155656.0
1549375377.28125,-94.56,0.183175,33.29,2156283.0
1549375377.296875,-83.3,0.181894,33.27,2156106.0
1549375377.3125,-67.71,0.179332,33.27,2156079.0
1549375377.328125,-52.59,0.179332,33.27,2154335.0
1549375377.34375,-40.47,0.179332,33.27,2149893.0
1549375377.359375,-31.76,0.178051,33.29,2145547.0
1549375377.375,-25.66,0.181894,33.29,2142234.0
1549375377.390625,-21.3,0.181894,33.29,2138775.0
1549375377.40625,-18.36,0.183175,33.29,2135525.0
1549375377.421875,-16.9,0.181894,33.29,2132979.0
1549375377.4375,-16.85,0.183175,33.29,2131644.0
1549375377.453125,-17.68,0.180613,33.29,2130537.0
1549375377.46875,-18.55,0.180613,33.29,2129117.0
1549375377.484375,-18.74,0.180613,33.27,2127674.0
1549375377.5,-18.09,0.180613,33.27,2126785.0
1549375377.515625,-16.88,0.184456,33.27,2126228.0
1549375377.53125,-15.68,0.185737,33.27,2126742.0
1549375377.546875,-14.9,0.185737,33.27,2126808.0
1549375377.5625,-14.55,0.185737,33.27,2126467.0
1549375377.578125,-14.37,0.185737,33.27,2127125.0
1549375377.59375,-14.11,0.188299,33.27,2127856.0
1549375377.609375,-13.76,0.183175,33.25,2127803.0
1549375377.625,-13.61,0.181894,33.25,2127799.0
1549375377.640625,-14.01,0.181894,33.25,2125902.0
1549375377.65625,-15.07,0.184456,33.25,2121840.0
1549375377.671875,-16.49,0.18958,33.27,2117994.0
1549375377.6875,-17.72,0.18958,33.27,2114961.0
1549375377.703125,-18.2,0.18958,33.27,2113011.0
1549375377.71875,-17.78,0.188299,33.27,2111783.0
1549375377.734375,-16.85,0.184456,33.27,2110978.0
1549375377.75,-16.32,0.184456,33.27,2111608.0
1549375377.765625,-17.27,0.185737,33.27,2112543.0
1549375377.78125,-20.78,0.185737,33.27,2113298.0
1549375377.796875,-27.66,0.187018,33.25,2115003.0
1549375377.8125,-38.19,0.185737,33.25,2117196.0
1549375377.828125,-51.76,0.190861,33.25,2119447.0
1549375377.84375,-66.31,0.18958,33.25,2121698.0
1549375377.859375,-78.38,0.190861,33.27,2124540.0
1549375377.875,-83.72,0.185737,33.27,2127747.0
1549375377.890625,-78.76,0.188299,33.27,2129225.0
1549375377.90625,-62.24,0.187018,33.27,2130678.0
1549375377.921875,-36.14,0.18958,33.25,2131176.0
1549375377.9375,-5.29,0.190861,33.25,2129438.0
1549375377.953125,24.36,0.18958,33.25,2128243.0
1549375377.96875,47.88,0.190861,33.25,2125200.0
1549375377.984375,63.03,0.190861,33.27,2120975.0
1549375378.0,70.5,0.187018,33.27,2118096.0
1549375378.015625,72.75,0.187018,33.27,2116107.0
1549375378.03125,72.41,0.188299,33.27,2113563.0
1549375378.046875,70.93,0.18958,33.25,2110642.0
1549375378.0625,68.42,0.18958,33.25,2109382.0
1549375378.078125,64.26,0.18958,33.25,2107784.0
1549375378.09375,58.1,0.190861,33.25,2106128.0
1549375378.109375,50.49,0.190861,33.23,2104826.0
1549375378.125,42.68,0.192142,33.23,2104021.0
1549375378.140625,35.97,0.188299,33.23,2103693.0
1549375378.15625,30.97,0.188299,33.23,2104037.0
1549375378.171875,27.22,0.188299,33.27,2104923.0
1549375378.1875,23.4,0.188299,33.27,2106770.0
1549375378.203125,18.09,0.190861,33.27,2109577.0
1549375378.21875,10.51,0.192142,33.27,2112443.0
1549375378.234375,0.95,0.192142,33.23,2115694.0
1549375378.25,-9.36,0.193423,33.23,2119016.0
1549375378.265625,-18.92,0.190861,33.23,2122183.0
1549375378.28125,-26.73,0.18958,33.23,2124491.0
1549375378.296875,-32.77,0.18958,33.25,2129162.0
1549375378.3125,-37.91,0.18958,33.25,2137723.0
1549375378.328125,-43.43,0.190861,33.25,2149023.0
1549375378.34375,-50.25,0.190861,33.25,2161533.0
1549375378.359375,-58.58,0.193423,33.23,2173170.0
1549375378.375,-67.88,0.194704,33.23,2185038.0
1549375378.390625,-77.26,0.194704,33.23,2197175.0
1549375378.40625,-86.01,0.192142,33.23,2211533.0
1549375378.421875,-93.82,0.190861,33.23,2226393.0
1549375378.4375,-100.72,0.190861,33.23,2239837.0
1549375378.453125,-106.82,0.194704,33.23,2253899.0
1549375378.46875,-112.0,0.195985,33.23,2266612.0
1549375378.484375,-115.87,0.197266,33.25,2276227.0
1549375378.5,-117.85,0.194704,33.25,2279930.0
1549375378.515625,-117.4,0.195985,33.25,2278450.0
1549375378.53125,-114.22,0.195985,33.25,2275137.0
1549375378.546875,-108.41,0.190861,33.27,2272665.0
1549375378.5625,-100.44,0.190861,33.27,2271975.0
1549375378.578125,-91.17,0.190861,33.27,2270972.0
1549375378.59375,-81.75,0.194704,33.27,2267607.0
1549375378.609375,-73.51,0.195985,33.23,2248435.0
1549375378.625,-67.65,0.194704,33.23,2251903.0
1549375378.640625,-64.9,0.194704,33.23,2244929.0
1549375378.65625,-65.18,0.193423,33.23,2255927.0
1549375378.671875,-67.4,0.192142,33.23,2263595.0
1549375378.6875,-69.72,0.192142,33.23,2259265.0
1549375378.703125,-70.18,0.190861,33.23,2243093.0
1549375378.71875,-67.44,0.192142,33.23,2237224.0
1549375378.734375,-61.45,0.193423,33.23,2237768.0
1549375378.75,-53.4,0.195985,33.23,2239967.0
1549375378.765625,-45.29,0.195985,33.23,2239126.0
1549375378.78125,-39.02,0.195985,33.23,2235588.0
1549375378.796875,-35.53,0.192142,33.23,2236761.0
1549375378.8125,-34.5,0.192142,33.23,2234971.0
1549375378.828125,-34.53,0.192142,33.23,2233687.0
1549375378.84375,-33.81,0.192142,33.23,2232716.0
1549375378.859375,-30.96,0.195985,33.25,2241502.0
1549375378.875,-25.54,0.197266,33.25,2230007.0
1549375378.890625,-18.1,0.195985,33.25,2225535.0
1549375378.90625,-9.91,0.197266,33.25,2222870.0
1549375378.921875,-2.41,0.197266,33.23,2220431.0
1549375378.9375,3.27,0.193423,33.23,2218287.0
1549375378.953125,6.71,0.194704,33.23,2216238.0
1549375378.96875,8.26,0.193423,33.23,2216616.0
1549375378.984375,9.02,0.197266,33.25,2218932.0
1549375379.0,10.44,0.198546,33.25,2220342.0
1549375379.015625,13.92,0.198546,33.25,2219919.0
1549375379.03125,20.38,0.197266,33.25,2219064.0
1549375379.046875,29.98,0.198546,33.25,2218998.0
1549375379.0625,42.14,0.195985,33.25,2218811.0
1549375379.078125,55.81,0.194704,33.25,2218902.0
1549375379.09375,69.78,0.195985,33.25,2218416.0
1549375379.109375,83.01,0.194704,33.23,2218339.0
1549375379.125,94.68,0.197266,33.23,2219633.0
1549375379.140625,104.23,0.199827,33.23,2221407.0
1549375379.15625,111.16,0.201108,33.23,2223493.0
1549375379.171875,115.06,0.198546,33.25,2224458.0
1549375379.1875,115.74,0.199827,33.25,2244924.0
1549375379.203125,113.34,0.199827,33.25,2245175.0
1549375379.21875,108.5,0.195985,33.25,2236307.0
1549375379.234375,102.2,0.199827,33.23,2242056.0
1549375379.25,95.52,0.195985,33.23,2237888.0
1549375379.265625,89.24,0.199827,33.23,2233651.0
1549375379.28125,83.63,0.201108,33.23,2230300.0
1549375379.296875,78.52,0.201108,33.21,2227014.0
1549375379.3125,73.47,0.199827,33.21,2224646.0
1549375379.328125,68.07,0.199827,33.21,2223102.0
1549375379.34375,62.16,0.197266,33.21,2222438.0
1549375379.359375,55.85,0.197266,33.23,2222202.0
1549375379.375,49.32,0.198546,33.23,2221925.0
1549375379.390625,42.57,0.199827,33.23,2221654.0
1549375379.40625,35.3,0.204951,33.23,2221660.0
1549375379.421875,26.92,0.20367,33.21,2222442.0
1549375379.4375,16.73,0.202389,33.21,2223262.0
1549375379.453125,4.29,0.20367,33.21,2221952.0
1549375379.46875,-10.21,0.202389,33.21,2218866.0
1549375379.484375,-25.75,0.202389,33.23,2216427.0
1549375379.5,-40.52,0.201108,33.23,2214631.0
1549375379.515625,-52.33,0.201108,33.23,2212538.0
1549375379.53125,-59.23,0.199827,33.23,2208757.0
1549375379.546875,-60.2,0.202389,33.21,2209709.0
1549375379.5625,-55.47,0.202389,33.21,2208217.0
1549375379.578125,-46.5,0.204951,33.21,2207751.0
1549375379.59375,-35.42,0.204951,33.21,2211177.0
1549375379.609375,-24.41,0.204951,33.21,2210233.0
1549375379.625,-15.02,0.20367,33.21,2207596.0
1549375379.640625,-7.85,0.201108,33.21,2207735.0
1549375379.65625,-2.68,0.201108,33.21,2208062.0
1549375379.671875,1.25,0.201108,33.23,2208589.0
1549375379.6875,4.73,0.20367,33.23,2207695.0
1549375379.703125,8.29,0.204951,33.23,2209190.0
1549375379.71875,12.03,0.206232,33.23,2209105.0
1549375379.734375,15.71,0.204951,33.21,2206311.0
1549375379.75,18.96,0.206232,33.21,2202668.0
1549375379.765625,21.45,0.202389,33.21,2199507.0
1549375379.78125,23.07,0.202389,33.21,2197128.0
1549375379.796875,23.97,0.202389,33.23,2194654.0
1549375379.8125,24.44,0.202389,33.23,2193100.0
1549375379.828125,24.87,0.20367,33.23,2191990.0
1549375379.84375,25.55,0.204951,33.23,2191194.0
1549375379.859375,26.68,0.207513,33.23,2189200.0
1549375379.875,28.33,0.206232,33.23,2187226.0
1549375379.890625,30.48,0.207513,33.23,2185317.0
1549375379.90625,33.02,0.207513,33.23,2184334.0
1549375379.921875,35.75,0.207513,33.21,2183130.0
1549375379.9375,38.39,0.206232,33.21,2181553.0
1549375379.953125,40.51,0.206232,33.21,2180146.0
1549375379.96875,41.69,0.206232,33.21,2178832.0
1549375379.984375,41.55,0.210075,33.23,2178328.0
1549375380.0,39.85,0.213918,33.23,2176293.0
1549375380.015625,36.59,0.213918,33.23,2172193.0
1549375380.03125,32.02,0.222884,33.23,2168122.0
1549375380.046875,26.61,0.221603,33.23,2166326.0
1549375380.0625,20.93,0.217761,33.23,2164754.0
1549375380.078125,15.56,0.219042,33.23,2163337.0
1549375380.09375,10.93,0.219042,33.23,2163406.0
1549375380.109375,7.21,0.219042,33.23,2164103.0
1549375380.125,4.28,0.221603,33.23,2164114.0
1549375380.140625,1.75,0.224165,33.23,2163182.0
1549375380.15625,-0.96,0.224165,33.23,2161632.0
1549375380.171875,-4.47,0.224165,33.23,2158681.0
1549375380.1875,-9.33,0.225446,33.23,2155433.0
1549375380.203125,-15.86,0.221603,33.23,2152808.0
1549375380.21875,-24.19,0.221603,33.23,2152502.0
1549375380.234375,-34.11,0.224165,33.23,2155637.0
1549375380.25,-45.0,0.221603,33.23,2158937.0
1549375380.265625,-55.68,0.225446,33.23,2163672.0
1549375380.28125,-64.44,0.224165,33.23,2168297.0
1549375380.296875,-69.29,0.228008,33.23,2179157.0
1549375380.3125,-68.55,0.226727,33.23,2187662.0
1549375380.328125,-61.48,0.226727,33.23,2185657.0
1549375380.34375,-48.73,0.222884,33.23,2179841.0
1549375380.359375,-32.22,0.222884,33.25,2173058.0
1549375380.375,-14.62,0.222884,33.25,2168881.0
1549375380.390625,1.67,0.224165,33.25,2166847.0
1549375380.40625,15.17,0.225446,33.25,2164604.0
1549375380.421875,25.69,0.228008,33.21,2163014.0
1549375380.4375,33.99,0.228008,33.21,2161262.0
1549375380.453125,41.2,0.228008,33.21,2160429.0
1549375380.46875,48.17,0.228008,33.21,2160229.0
1549375380.484375,55.17,0.224165,33.23,2160368.0
1549375380.5,61.87,0.224165,33.23,2161432.0
1549375380.515625,67.72,0.225446,33.23,2163206.0
1549375380.53125,72.25,0.226727,33.23,2166548.0
1549375380.546875,75.28,0.228008,33.23,2170797.0
1549375380.5625,76.95,0.229289,33.23,2173180.0
1549375380.578125,77.61,0.229289,33.23,2171810.0
1549375380.59375,77.72,0.228008,33.23,2168627.0
1549375380.609375,77.63,0.226727,33.21,2165895.0
1549375380.625,77.58,0.225446,33.21,2162763.0
1549375380.640625,77.62,0.225446,33.21,2159405.0
1549375380.65625,77.64,0.226727,33.21,2157228.0
1549375380.671875,77.47,0.224165,33.23,2155653.0
1549375380.6875,76.94,0.226727,33.23,2153763.0
1549375380.703125,75.94,0.228008,33.23,2152085.0
1549375380.71875,74.42,0.229289,33.23,2150684.0
1549375380.734375,72.31,0.229289,33.25,2149567.0
1549375380.75,69.42,0.229289,33.25,2149646.0
1549375380.765625,65.43,0.228008,33.25,2149436.0
1549375380.78125,59.88,0.228008,33.25,2149192.0
1549375380.796875,52.41,0.225446,33.25,2149391.0
1549375380.8125,42.91,0.225446,33.25,2150068.0
1549375380.828125,31.73,0.228008,33.25,2149992.0
1549375380.84375,19.64,0.228008,33.25,2149752.0
1549375380.859375,7.63,0.229289,33.23,2145826.0
1549375380.875,-3.45,0.229289,33.23,2140429.0
1549375380.890625,-13.23,0.229289,33.23,2136014.0
1549375380.90625,-21.84,0.226727,33.23,2130870.0
1549375380.921875,-29.77,0.228008,33.23,2125348.0
1549375380.9375,-37.63,0.226727,33.23,2119000.0
1549375380.953125,-45.8,0.225446,33.23,2113853.0
1549375380.96875,-54.34,0.228008,33.23,2109065.0
1549375380.984375,-63.02,0.229289,33.21,2103317.0
1549375381.0,-71.36,0.229289,33.21,2099069.0
1549375381.015625,-78.64,0.229289,33.21,2095379.0
1549375381.03125,-83.9,0.229289,33.21,2092288.0
1549375381.046875,-86.0,0.228008,33.21,2089357.0
1549375381.0625,-83.93,0.226727,33.21,2087173.0
1549375381.078125,-77.12,0.226727,33.21,2086198.0
1549375381.09375,-66.03,0.226727,33.21,2085949.0
1549375381.109375,-52.14,0.23057,33.23,2087084.0
1549375381.125,-37.64,0.23057,33.23,2089464.0
1549375381.140625,-24.6,0.231851,33.23,2090263.0
1549375381.15625,-14.21,0.231851,33.23,2087306.0
1549375381.171875,-6.3,0.229289,33.21,2083398.0
1549375381.1875,0.38,0.226727,33.21,2079697.0
1549375381.203125,7.52,0.228008,33.21,2080716.0
1549375381.21875,16.46,0.226727,33.21,2091943.0
1549375381.234375,27.72,0.228008,33.23,2103605.0
1549375381.25,40.97,0.228008,33.23,2108431.0
1549375381.265625,55.32,0.229289,33.23,2102800.0
1549375381.28125,69.62,0.244661,33.23,2100339.0
1549375381.296875,82.72,0.23057,33.25,2099044.0
1549375381.3125,93.54,0.23057,33.25,2097856.0
1549375381.328125,101.24,0.226727,33.25,2098757.0
1549375381.34375,105.4,0.228008,33.25,2101318.0
1549375381.359375,106.3,0.226727,33.23,2105610.0
1549375381.375,104.86,0.225446,33.23,2111170.0
1549375381.390625,102.39,0.228008,33.23,2118686.0
1549375381.40625,100.09,0.23057,33.23,2126754.0
1549375381.421875,98.64,0.233132,33.25,2132711.0
1549375381.4375,98.04,0.23057,33.25,2137487.0
1549375381.453125,97.86,0.24338,33.25,2138516.0
1549375381.46875,97.61,0.226727,33.25,2138253.0
1549375381.484375,97.05,0.226727,33.25,2147012.0
1549375381.5,96.22,0.226727,33.25,2151181.0
1549375381.515625,95.21,0.225446,33.25,2151074.0
1549375381.53125,93.86,0.226727,33.25,2148117.0
1549375381.546875,91.71,0.226727,33.25,2141876.0
1549375381.5625,88.17,0.229289,33.25,2135788.0
1549375381.578125,82.85,0.228008,33.25,2132198.0
1549375381.59375,75.99,0.229289,33.25,2128749.0
1549375381.609375,68.53,0.226727,33.25,2124321.0
1549375381.625,61.84,0.225446,33.25,2119697.0
1549375381.640625,57.26,0.228008,33.25,2114169.0
1549375381.65625,55.53,0.225446,33.25,2110291.0
1549375381.671875,56.37,0.228008,33.25,2107649.0
1549375381.6875,58.58,0.229289,33.25,2104709.0
1549375381.703125,60.37,0.23057,33.25,2102616.0
1549375381.71875,59.97,0.23057,33.25,2101515.0
1549375381.734375,56.15,0.23057,33.23,2100216.0
1549375381.75,48.54,0.226727,33.23,2097448.0
1549375381.765625,37.55,0.226727,33.23,2091079.0
1549375381.78125,24.2,0.226727,33.23,2084002.0
1549375381.796875,9.86,0.226727,33.23,2078158.0
1549375381.8125,-3.95,0.229289,33.23,2072269.0
1549375381.828125,-15.73,0.229289,33.23,2066522.0
1549375381.84375,-24.22,0.229289,33.23,2062309.0
1549375381.859375,-28.63,0.231851,33.23,2059450.0
1549375381.875,-28.78,0.231851,33.23,2057128.0
1549375381.890625,-25.19,0.231851,33.23,2054740.0
1549375381.90625,-18.89,0.229289,33.23,2052928.0
1549375381.921875,-11.24,0.226727,33.23,2052029.0
1549375381.9375,-3.58,0.226727,33.23,2051764.0
1549375381.953125,2.95,0.226727,33.23,2051351.0
1549375381.96875,7.5,0.226727,33.23,2051021.0
1549375381.984375,9.54,0.228008,33.23,2051568.0
1549375382.0,8.84,0.231851,33.23,2051949.0
1549375382.015625,5.42,0.231851,33.23,2052917.0
1549375382.03125,-0.54,0.231851,33.23,2054149.0
1549375382.046875,-8.65,0.231851,33.21,2055061.0
1549375382.0625,-18.35,0.23057,33.21,2053473.0
1549375382.078125,-28.89,0.228008,33.21,2048483.0
1549375382.09375,-39.29,0.229289,33.21,2043651.0
1549375382.109375,-48.48,0.23057,33.21,2039727.0
1549375382.125,-55.32,0.228008,33.21,2036026.0
1549375382.140625,-58.9,0.231851,33.21,2032695.0
1549375382.15625,-58.64,0.233132,33.21,2030534.0
1549375382.171875,-54.34,0.231851,33.21,2029081.0
1549375382.1875,-46.01,0.233132,33.21,2027168.0
1549375382.203125,-33.6,0.233132,33.21,2025796.0
1549375382.21875,-16.87,0.235694,33.21,2025022.0
1549375382.234375,4.56,0.229289,33.23,2025330.0
1549375382.25,30.66,0.229289,33.23,2026427.0
1549375382.265625,60.49,0.229289,33.23,2028941.0
1549375382.28125,91.69,0.23057,33.23,2031745.0
1549375382.296875,120.42,0.231851,33.23,2034045.0
1549375382.3125,142.0,0.233132,33.23,2036780.0
1549375382.328125,151.99,0.231851,33.23,2039850.0
1549375382.34375,147.27,0.233132,33.23,2044420.0
1549375382.359375,126.76,0.234413,33.23,2048989.0
1549375382.375,91.43,0.233132,33.23,2050936.0
1549375382.390625,43.9,0.23057,33.23,2049627.0
1549375382.40625,-12.12,0.23057,33.23,2049054.0
1549375382.421875,-72.14,0.23057,33.21,2047912.0
1549375382.4375,-131.08,0.229289,33.21,2046174.0
1549375382.453125,-183.54,0.231851,33.21,2044057.0
1549375382.46875,-224.52,0.234413,33.21,2042910.0
1549375382.484375,-250.5,0.234413,33.23,2042813.0
1549375382.5,-260.42,0.233132,33.23,2042156.0
1549375382.515625,-256.04,0.233132,33.23,2041355.0
1549375382.53125,-241.31,0.233132,33.23,2041596.0
1549375382.546875,-221.02,0.229289,33.23,2043981.0
1549375382.5625,-199.2,0.229289,33.23,2046288.0
1549375382.578125,-178.3,0.229289,33.23,2048305.0
1549375382.59375,-159.07,0.229289,33.23,2049488.0
1549375382.609375,-141.23,0.231851,33.21,2050231.0
1549375382.625,-124.35,0.234413,33.21,2050065.0
1549375382.640625,-108.4,0.234413,33.21,2049575.0
1549375382.65625,-93.89,0.233132,33.21,2049989.0
1549375382.671875,-81.75,0.233132,33.21,2050143.0
1549375382.6875,-73.06,0.229289,33.21,2050232.0
1549375382.703125,-68.47,0.229289,33.21,2046224.0
1549375382.71875,-67.65,0.231851,33.21,2039603.0
1549375382.734375,-68.67,0.229289,33.25,2034100.0
1549375382.75,-68.0,0.23057,33.25,2028877.0
1549375382.765625,-61.45,0.234413,33.25,2023914.0
1549375382.78125,-45.61,0.234413,33.25,2019748.0
1549375382.796875,-19.66,0.234413,33.23,2017439.0
1549375382.8125,13.8,0.234413,33.23,2016216.0
1549375382.828125,49.18,0.231851,33.23,2015372.0
1549375382.84375,79.9,0.229289,33.23,2015184.0
1549375382.859375,100.75,0.231851,33.23,2016101.0
1549375382.875,109.85,0.229289,33.23,2017249.0
1549375382.890625,108.92,0.229289,33.23,2019330.0
1549375382.90625,102.12,0.231851,33.23,2022207.0
1549375382.921875,94.03,0.23057,33.23,2026439.0
1549375382.9375,87.82,0.234413,33.23,2030649.0
1549375382.953125,84.46,0.233132,33.23,2032051.0
1549375382.96875,83.09,0.231851,33.23,2034025.0
1549375382.984375,82.32,0.229289,33.23,2037779.0
1549375383.0,81.2,0.229289,33.23,2049151.0
1549375383.015625,79.78,0.231851,33.23,2060677.0
1549375383.03125,78.7,0.229289,33.23,2062527.0
1549375383.046875,78.47,0.233132,33.21,2061137.0
1549375383.0625,78.8,0.234413,33.21,2057834.0
1549375383.078125,78.59,0.235694,33.21,2053540.0
1549375383.09375,76.59,0.234413,33.21,2050070.0
1549375383.109375,72.31,0.234413,33.21,2048323.0
1549375383.125,66.37,0.234413,33.21,2048285.0
1549375383.140625,60.06,0.231851,33.21,2049474.0
1549375383.15625,54.13,0.23057,33.21,2050571.0
1549375383.171875,47.62,0.23057,33.21,2052423.0
1549375383.1875,37.8,0.23057,33.21,2054767.0
1549375383.203125,21.5,0.231851,33.21,2057158.0
1549375383.21875,-2.86,0.234413,33.21,2059032.0
1549375383.234375,-33.67,0.234413,33.23,2061040.0
1549375383.25,-66.31,0.233132,33.23,2062299.0
1549375383.265625,-95.19,0.233132,33.23,2064434.0
1549375383.28125,-116.58,0.233132,33.23,2072081.0
1549375383.296875,-130.49,0.23057,33.21,2071681.0
1549375383.3125,-140.28,0.23057,33.21,2067585.0
1549375383.328125,-150.46,0.23057,33.21,2064426.0
1549375383.34375,-163.88,0.233132,33.21,2069644.0
1549375383.359375,-180.41,0.235694,33.21,2060813.0
1549375383.375,-197.52,0.235694,33.21,2066818.0
1549375383.390625,-212.5,0.234413,33.21,2057204.0
1549375383.40625,-224.58,0.235694,33.21,2054448.0
1549375383.421875,-235.42,0.231851,33.23,2051854.0
1549375383.4375,-247.62,0.231851,33.23,2051002.0
1549375383.453125,-262.28,0.233132,33.23,2049722.0
1549375383.46875,-277.34,0.231851,33.23,2048751.0
1549375383.484375,-287.79,0.231851,33.23,2048117.0
1549375383.5,-287.74,0.235694,33.23,2047896.0
1549375383.515625,-273.22,0.234413,33.23,2047860.0
1549375383.53125,-244.09,0.235694,33.23,2048989.0
1549375383.546875,-204.19,0.235694,33.23,2050949.0
1549375383.5625,-159.76,0.235694,33.23,2052199.0
1549375383.578125,-117.05,0.231851,33.23,2054280.0
1549375383.59375,-80.43,0.231851,33.23,2058538.0
1549375383.609375,-51.52,0.231851,33.23,2056473.0
1549375383.625,-29.59,0.231851,33.23,2060288.0
1549375383.640625,-12.74,0.236975,33.23,2057742.0
1549375383.65625,0.83,0.238256,33.23,2054693.0
1549375383.671875,12.22,0.236975,33.21,2052309.0
1549375383.6875,21.71,0.236975,33.21,2049495.0
1549375383.703125,29.34,0.236975,33.21,2046797.0
1549375383.71875,35.47,0.235694,33.21,2045438.0
1549375383.734375,41.06,0.233132,33.21,2044361.0
1549375383.75,47.24,0.233132,33.21,2042983.0
1549375383.765625,54.92,0.231851,33.21,2042062.0
1549375383.78125,64.14,0.233132,33.21,2041937.0
1549375383.796875,73.9,0.234413,33.23,2042575.0
1549375383.8125,82.48,0.236975,33.23,2043249.0
1549375383.828125,88.12,0.235694,33.23,2043656.0
1549375383.84375,89.71,0.235694,33.23,2044150.0
1549375383.859375,87.29,0.235694,33.23,2046163.0
1549375383.875,81.9,0.235694,33.23,2049196.0
1549375383.890625,75.13,0.233132,33.23,2051411.0
1549375383.90625,68.38,0.233132,33.23,2053306.0
1549375383.921875,62.42,0.234413,33.23,2050559.0
1549375383.9375,57.24,0.233132,33.23,2048554.0
1549375383.953125,52.24,0.233132,33.23,2046568.0
1549375383.96875,46.66,0.236975,33.23,2053508.0
1549375383.984375,40.03,0.236975,33.21,2044377.0
1549375384.0,32.31,0.236975,33.21,2041847.0
1549375384.015625,24.01,0.235694,33.21,2040450.0
1549375384.03125,15.9,0.235694,33.21,2039560.0
1549375384.046875,8.84,0.233132,33.23,2038481.0
1549375384.0625,3.35,0.233132,33.23,2038125.0
1549375384.078125,-0.53,0.235694,33.23,2038189.0
1549375384.09375,-3.22,0.235694,33.23,2038509.0
1549375384.109375,-5.39,0.235694,33.21,2039351.0
1549375384.125,-7.59,0.236975,33.21,2040304.0
1549375384.140625,-9.99,0.236975,33.21,2041938.0
1549375384.15625,-12.19,0.238256,33.21,2043169.0
1549375384.171875,-13.46,0.238256,33.21,2044416.0
1549375384.1875,-12.99,0.234413,33.21,2046369.0
1549375384.203125,-10.24,0.233132,33.21,2049082.0
1549375384.21875,-5.05,0.233132,33.21,2042476.0
1549375384.234375,2.38,0.233132,33.21,2039378.0
1549375384.25,11.62,0.233132,33.21,2046606.0
1549375384.265625,22.21,0.238256,33.21,2048038.0
1549375384.28125,33.53,0.236975,33.21,2036460.0
1549375384.296875,44.91,0.238256,33.21,2033700.0
1549375384.3125,55.48,0.238256,33.21,2031639.0
1549375384.328125,64.26,0.235694,33.21,2030690.0
1549375384.34375,70.38,0.234413,33.21,2030430.0
1549375384.359375,73.2,0.234413,33.21,2030304.0
1549375384.375,72.51,0.234413,33.21,2030541.0
1549375384.390625,68.45,0.234413,33.21,2032613.0
1549375384.40625,61.56,0.234413,33.21,2031463.0
1549375384.421875,52.6,0.236975,33.21,2034043.0
1549375384.4375,42.65,0.236975,33.21,2035787.0
1549375384.453125,32.97,0.239537,33.21,2037668.0
1549375384.46875,24.87,0.238256,33.21,2039833.0
1549375384.484375,19.5,0.238256,33.23,2041976.0
1549375384.5,17.51,0.234413,33.23,2044054.0
1549375384.515625,18.92,0.234413,33.23,2046512.0
1549375384.53125,23.1,0.234413,33.23,2048851.0
1549375384.546875,29.05,0.235694,33.21,2049209.0
1549375384.5625,35.57,0.236975,33.21,2045968.0
1549375384.578125,41.65,0.238256,33.21,2042359.0
1549375384.59375,46.52,0.238256,33.21,2039910.0
1549375384.609375,49.79,0.238256,33.21,2037504.0
1549375384.625,51.34,0.239537,33.21,2035179.0
1549375384.640625,51.36,0.234413,33.21,2033501.0
1549375384.65625,50.21,0.234413,33.21,2032399.0
1549375384.671875,48.37,0.236975,33.23,2031645.0
1549375384.6875,46.27,0.234413,33.23,2030655.0
1549375384.703125,44.15,0.238256,33.23,2029604.0
1549375384.71875,42.01,0.238256,33.23,2029620.0
1549375384.734375,39.66,0.239537,33.21,2030317.0
1549375384.75,36.83,0.236975,33.21,2031510.0
1549375384.765625,33.47,0.238256,33.21,2032624.0
1549375384.78125,29.71,0.240818,33.21,2034151.0
1549375384.796875,25.89,0.234413,33.21,2035876.0
1549375384.8125,22.27,0.234413,33.21,2037763.0
1549375384.828125,18.88,0.234413,33.21,2039667.0
1549375384.84375,15.44,0.234413,33.21,2040350.0
1549375384.859375,11.41,0.238256,33.21,2036635.0
1549375384.875,6.2,0.239537,33.21,2031937.0
1549375384.890625,-0.66,0.240818,33.21,2028572.0
1549375384.90625,-9.42,0.239537,33.21,2024919.0
1549375384.921875,-20.0,0.239537,33.21,2021767.0
1549375384.9375,-31.91,0.235694,33.21,2018930.0
1549375384.953125,-44.11,0.235694,33.21,2016283.0
1549375384.96875,-54.91,0.235694,33.21,2013632.0
1549375384.984375,-62.25,0.235694,33.21,2011261.0
1549375385.0,-64.24,0.238256,33.21,2010226.0
1549375385.015625,-59.94,0.239537,33.21,2008790.0
1549375385.03125,-49.89,0.238256,33.21,2009505.0
1549375385.046875,-36.13,0.239537,33.18,2010278.0
1549375385.0625,-21.52,0.240818,33.18,2012827.0
1549375385.078125,-8.81,0.240818,33.18,2016405.0
1549375385.09375,0.31,0.236975,33.18,2020446.0
1549375385.109375,5.54,0.236975,33.21,2021922.0
1549375385.125,7.66,0.235694,33.21,2023659.0
1549375385.140625,7.89,0.238256,33.21,2026779.0
1549375385.15625,7.24,0.239537,33.21,2029348.0
1549375385.171875,6.14,0.240818,33.21,2027555.0
1549375385.1875,4.61,0.240818,33.21,2027064.0
1549375385.203125,2.58,0.240818,33.21,2027822.0
1549375385.21875,0.18,0.240818,33.21,2026448.0
1549375385.234375,-2.2,0.238256,33.21,2023882.0
1549375385.25,-4.13,0.238256,33.21,2022744.0
1549375385.265625,-5.36,0.239537,33.21,2023090.0
1549375385.28125,-6.01,0.238256,33.21,2023866.0
1549375385.296875,-6.45,0.239537,33.21,2023599.0
1549375385.3125,-7.15,0.24338,33.21,2023044.0
1549375385.328125,-8.36,0.240818,33.21,2023685.0
1549375385.34375,-9.97,0.240818,33.21,2023282.0
1549375385.359375,-11.62,0.240818,33.21,2024047.0
1549375385.375,-12.82,0.240818,33.21,2024499.0
1549375385.390625,-13.3,0.238256,33.21,2026926.0
1549375385.40625,-13.06,0.238256,33.21,2028275.0
1549375385.421875,-12.5,0.239537,33.18,2025805.0
1549375385.4375,-12.16,0.238256,33.18,2030116.0
1549375385.453125,-12.58,0.240818,33.18,2032018.0
1549375385.46875,-14.09,0.24338,33.18,2031498.0
1549375385.484375,-16.7,0.242099,33.21,2027390.0
1549375385.5,-20.03,0.242099,33.21,2023312.0
1549375385.515625,-23.47,0.242099,33.21,2020559.0
1549375385.53125,-26.36,0.238256,33.21,2017844.0
1549375385.546875,-28.21,0.238256,33.21,2015461.0
1549375385.5625,-28.95,0.238256,33.21,2014391.0
1549375385.578125,-28.95,0.238256,33.21,2013961.0
1549375385.59375,-28.92,0.242099,33.21,2013409.0
1549375385.609375,-29.62,0.240818,33.21,2013729.0
1549375385.625,-31.57,0.242099,33.21,2013625.0
1549375385.640625,-34.95,0.242099,33.21,2014894.0
1549375385.65625,-39.48,0.242099,33.21,2016116.0
1549375385.671875,-44.51,0.24338,33.21,2017375.0
1549375385.6875,-49.12,0.240818,33.21,2019374.0
1549375385.703125,-52.18,0.240818,33.21,2018402.0
1549375385.71875,-52.57,0.24338,33.21,2017953.0
1549375385.734375,-49.44,0.239537,33.21,2020926.0
1549375385.75,-42.55,0.24338,33.21,2022786.0
1549375385.765625,-32.43,0.244661,33.21,2023148.0
1549375385.78125,-20.34,0.24338,33.21,2013743.0
1549375385.796875,-7.91,0.24338,33.16,2019304.0
1549375385.8125,3.39,0.244661,33.16,2009352.0
1549375385.828125,12.7,0.247222,33.16,2001616.0
1549375385.84375,19.93,0.242099,33.16,2005436.0
1549375385.859375,25.57,0.240818,33.21,1998240.0
1549375385.875,30.34,0.240818,33.21,1996889.0
1549375385.890625,34.72,0.239537,33.21,1994746.0
1549375385.90625,38.85,0.244661,33.21,1995961.0
1549375385.921875,42.57,0.245941,33.21,1991838.0
1549375385.9375,45.6,0.247222,33.21,1993376.0
1549375385.953125,47.79,0.245941,33.21,1989708.0
1549375385.96875,49.19,0.245941,33.21,1990776.0
1549375385.984375,49.93,0.244661,33.21,1989432.0
1549375386.0,50.16,0.242099,33.21,1990397.0
1549375386.015625,49.97,0.244661,33.21,1988881.0
1549375386.03125,49.32,0.242099,33.21,1988590.0
1549375386.046875,48.26,0.244661,33.21,1988506.0
1549375386.0625,46.95,0.244661,33.21,1987205.0
1549375386.078125,45.74,0.245941,33.21,1982263.0
1549375386.09375,44.95,0.258751,33.21,1974377.0
1549375386.109375,44.79,0.244661,33.21,1978047.0
1549375386.125,45.12,0.24338,33.21,1970676.0
1549375386.140625,45.49,0.24338,33.21,1966732.0
1549375386.15625,45.25,0.24338,33.21,1965151.0
1549375386.171875,43.8,0.242099,33.21,1965705.0
1549375386.1875,40.8,0.240818,33.21,1965437.0
1549375386.203125,36.31,0.24338,33.21,1965695.0
1549375386.21875,30.69,0.24338,33.21,1966050.0
1549375386.234375,24.54,0.245941,33.21,1967768.0
1549375386.25,18.45,0.247222,33.21,1970092.0
1549375386.265625,12.87,0.247222,33.21,1973005.0
1549375386.28125,8.03,0.245941,33.21,1976297.0
1549375386.296875,3.89,0.247222,33.18,1980391.0
1549375386.3125,0.21,0.24338,33.18,1985243.0
1549375386.328125,-3.37,0.242099,33.18,1989950.0
1549375386.34375,-7.22,0.242099,33.18,1993871.0
1549375386.359375,-11.67,0.24338,33.21,1993813.0
1549375386.375,-16.81,0.242099,33.21,1991637.0
1549375386.390625,-22.36,0.244661,33.21,1990339.0
1549375386.40625,-27.59,0.247222,33.21,1989033.0
1549375386.421875,-31.3,0.245941,33.18,1988163.0
1549375386.4375,-32.24,0.244661,33.18,1987508.0
1549375386.453125,-29.51,0.244661,33.18,1988321.0
1549375386.46875,-23.05,0.248503,33.18,1988862.0
1549375386.484375,-13.78,0.24338,33.21,1988870.0
1549375386.5,-3.39,0.242099,33.21,1989289.0
1549375386.515625,6.34,0.24338,33.21,1990185.0
1549375386.53125,14.11,0.242099,33.21,1992067.0
1549375386.546875,19.5,0.247222,33.18,1994307.0
1549375386.5625,22.91,0.248503,33.18,1996543.0
1549375386.578125,25.1,0.248503,33.18,1998865.0
1549375386.59375,26.75,0.247222,33.18,2001169.0
1549375386.609375,28.09,0.247222,33.18,2003792.0
1549375386.625,28.94,0.244661,33.18,2005694.0
1549375386.640625,28.96,0.24338,33.18,2004895.0
1549375386.65625,27.96,0.24338,33.18,2000948.0
1549375386.671875,26.11,0.24338,33.18,1997411.0
1549375386.6875,23.82,0.247222,33.18,1995085.0
1549375386.703125,21.62,0.247222,33.18,1993061.0
1549375386.71875,19.84,0.247222,33.18,1991351.0
1549375386.734375,18.55,0.249784,33.21,1990905.0
1549375386.75,17.55,0.247222,33.21,1991010.0
1549375386.765625,16.59,0.247222,33.21,1990876.0
1549375386.78125,15.5,0.262594,33.21,1990772.0
1549375386.796875,14.31,0.244661,33.21,1991458.0
1549375386.8125,13.18,0.24338,33.21,1993220.0
1549375386.828125,12.23,0.244661,33.21,1994927.0
1549375386.84375,11.42,0.24338,33.21,1997638.0
1549375386.859375,10.5,0.245941,33.18,2000454.0
1549375386.875,9.16,0.248503,33.18,2002946.0
1549375386.890625,7.15,0.247222,33.18,2005919.0
1549375386.90625,4.46,0.247222,33.18,2009524.0
1549375386.921875,1.27,0.247222,33.18,2011618.0
1549375386.9375,-2.12,0.245941,33.18,2010152.0
1549375386.953125,-5.42,0.24338,33.18,2006837.0
1549375386.96875,-8.45,0.24338,33.18,2004368.0
1549375386.984375,-11.17,0.24338,33.18,2003304.0
1549375387.0,-13.68,0.24338,33.18,2001846.0
1549375387.015625,-16.19,0.24338,33.18,2001271.0
1549375387.03125,-18.94,0.248503,33.18,2001776.0
1549375387.046875,-22.16,0.247222,33.18,2002262.0
1549375387.0625,-25.96,0.247222,33.18,2002552.0
1549375387.078125,-30.18,0.245941,33.18,2003187.0
1549375387.09375,-34.29,0.245941,33.18,2004166.0
1549375387.109375,-37.4,0.24338,33.21,2006065.0
1549375387.125,-38.42,0.24338,33.21,2008095.0
1549375387.140625,-36.46,0.24338,33.21,2010164.0
1549375387.15625,-31.16,0.245941,33.21,2012513.0
1549375387.171875,-22.91,0.248503,33.18,2015066.0
1549375387.1875,-12.8,0.248503,33.18,2017030.0
1549375387.203125,-2.21,0.248503,33.18,2018018.0
1549375387.21875,7.61,0.247222,33.18,2014833.0
1549375387.234375,15.97,0.247222,33.21,2011634.0
1549375387.25,22.89,0.245941,33.21,2009386.0
1549375387.265625,28.83,0.24338,33.21,2010493.0
1549375387.28125,34.39,0.24338,33.21,2010592.0
1549375387.296875,39.83,0.24338,33.21,2011609.0
1549375387.3125,44.9,0.24338,33.21,2014921.0
1549375387.328125,48.91,0.245941,33.21,2018852.0
1549375387.34375,51.08,0.248503,33.21,2021553.0
1549375387.359375,50.93,0.247222,33.18,2023553.0
1549375387.375,48.63,0.245941,33.18,2027343.0
1549375387.390625,45.03,0.245941,33.18,2030424.0
1549375387.40625,41.36,0.248503,33.18,2032324.0
1549375387.421875,38.76,0.24338,33.18,2034018.0
1549375387.4375,37.82,0.24338,33.18,2035084.0
1549375387.453125,38.41,0.244661,33.18,2035783.0
1549375387.46875,39.79,0.258751,33.18,2036146.0
1549375387.484375,41.03,0.244661,33.18,2034992.0
1549375387.5,41.37,0.244661,33.18,2029171.0
1549375387.515625,40.49,0.247222,33.18,2021831.0
1549375387.53125,38.48,0.245941,33.18,2014945.0
1549375387.546875,35.6,0.248503,33.16,2009043.0
1549375387.5625,32.12,0.245941,33.16,2003619.0
1549375387.578125,28.11,0.249784,33.16,1999034.0
1549375387.59375,23.49,0.24338,33.16,1996354.0
1549375387.609375,17.94,0.245941,33.16,1993988.0
1549375387.625,11.1,0.24338,33.16,1992865.0
1549375387.640625,2.58,0.24338,33.16,1992311.0
1549375387.65625,-7.85,0.244661,33.16,1992931.0
1549375387.671875,-20.16,0.247222,33.18,1994643.0
1549375387.6875,-33.84,0.248503,33.18,1996416.0
1549375387.703125,-48.06,0.248503,33.18,1997775.0
1549375387.71875,-61.77,0.248503,33.18,1999447.0
1549375387.734375,-74.08,0.248503,33.18,2001284.0
1549375387.75,-84.5,0.244661,33.18,2002749.0
1549375387.765625,-92.99,0.244661,33.18,2004510.0
1549375387.78125,-99.87,0.247222,33.18,2006444.0
1549375387.796875,-105.54,0.247222,33.18,2007978.0
1549375387.8125,-110.1,0.247222,33.18,2005794.0
1549375387.828125,-113.07,0.249784,33.18,2002662.0
1549375387.84375,-113.4,0.248503,33.18,2000744.0
1549375387.859375,-109.8,0.248503,33.16,1999209.0
1549375387.875,-101.3,0.247222,33.16,1998255.0
1549375387.890625,-87.94,0.247222,33.16,1997649.0
1549375387.90625,-70.87,0.245941,33.16,1998519.0
1549375387.921875,-52.17,0.245941,33.18,1999478.0
1549375387.9375,-34.12,0.245941,33.18,2001090.0
1549375387.953125,-18.42,0.245941,33.18,2002941.0
1549375387.96875,-5.62,0.247222,33.18,2004938.0
1549375387.984375,4.76,0.248503,33.18,2008033.0
1549375388.0,13.74,0.249784,33.18,2011366.0
1549375388.015625,22.25,0.248503,33.18,2014626.0
1549375388.03125,30.55,0.248503,33.18,2017485.0
1549375388.046875,38.17,0.248503,33.18,2020640.0
1549375388.0625,44.23,0.249784,33.18,2023828.0
1549375388.078125,47.9,0.244661,33.18,2029995.0
1549375388.09375,48.85,0.247222,33.18,2026806.0
1549375388.109375,47.36,0.244661,33.16,2026631.0
1549375388.125,44.25,0.244661,33.16,2023687.0
1549375388.140625,40.52,0.247222,33.16,2029631.0
1549375388.15625,37.01,0.251065,33.16,2017495.0
1549375388.171875,34.15,0.249784,33.18,2020362.0
1549375388.1875,31.94,0.248503,33.18,2015698.0
1549375388.203125,30.2,0.249784,33.18,2015028.0
1549375388.21875,28.76,0.248503,33.18,2015024.0
1549375388.234375,27.71,0.245941,33.18,2033026.0
1549375388.25,27.32,0.245941,33.18,2027312.0
1549375388.265625,27.77,0.245941,33.18,2030857.0
1549375388.28125,28.99,0.247222,33.18,2019402.0
1549375388.296875,30.57,0.247222,33.16,2024553.0
1549375388.3125,31.83,0.249784,33.16,2028071.0
1549375388.328125,32.14,0.262594,33.16,2015187.0
1549375388.34375,31.17,0.248503,33.16,2017592.0
1549375388.359375,28.94,0.245941,33.21,2022756.0
1549375388.375,25.84,0.247222,33.21,2020935.0
1549375388.390625,22.28,0.248503,33.21,2016329.0
1549375388.40625,18.67,0.245941,33.21,2025638.0
1549375388.421875,15.18,0.248503,33.18,2019768.0
1549375388.4375,11.82,0.249784,33.18,2021542.0
1549375388.453125,8.43,0.249784,33.18,2023530.0
1549375388.46875,4.83,0.251065,33.18,2014892.0
1549375388.484375,0.84,0.251065,33.18,2030725.0
1549375388.5,-3.71,0.247222,33.18,2019851.0
1549375388.515625,-8.87,0.247222,33.18,2020294.0
1549375388.53125,-14.49,0.245941,33.18,2021402.0
1549375388.546875,-20.1,0.245941,33.18,2023308.0
1549375388.5625,-24.87,0.245941,33.18,2019875.0
1549375388.578125,-27.79,0.249784,33.18,2019621.0
1549375388.59375,-27.98,0.249784,33.18,2027418.0
1549375388.609375,-25.08,0.249784,33.18,2029736.0
1549375388.625,-19.44,0.249784,33.18,2032058.0
1549375388.640625,-12.04,0.245941,33.18,2025440.0
1549375388.65625,-4.17,0.244661,33.18,2035000.0
1549375388.671875,3.1,0.244661,33.18,2037805.0
1549375388.6875,9.2,0.244661,33.18,2039518.0
1549375388.703125,14.2,0.247222,33.18,2037877.0
1549375388.71875,18.46,0.249784,33.18,2034073.0
1549375388.734375,22.35,0.248503,33.16,2030199.0
1549375388.75,25.96,0.247222,33.16,2028511.0
1549375388.765625,29.11,0.248503,33.16,2027519.0
1549375388.78125,31.49,0.244661,33.16,2027977.0
1549375388.796875,32.91,0.24338,33.18,2032101.0
1549375388.8125,33.4,0.24338,33.18,2028402.0
1549375388.828125,33.13,0.245941,33.18,2029113.0
1549375388.84375,32.26,0.244661,33.18,2032842.0
1549375388.859375,30.83,0.252346,33.21,2029546.0
1549375388.875,28.84,0.247222,33.21,2035110.0
1549375388.890625,26.28,0.248503,33.21,2038107.0
1549375388.90625,23.3,0.248503,33.21,2030872.0
1549375388.921875,20.24,0.244661,33.18,2041198.0
1549375388.9375,17.51,0.24338,33.18,2043718.0
1549375388.953125,15.42,0.24338,33.18,2046203.0
1549375388.96875,14.05,0.244661,33.18,2048448.0
1549375388.984375,13.21,0.245941,33.18,2050674.0
1549375389.0,12.49,0.249784,33.18,2051290.0
1549375389.015625,11.44,0.247222,33.18,2048477.0
1549375389.03125,9.69,0.248503,33.18,2045449.0
1549375389.046875,7.01,0.247222,33.18,2043408.0
1549375389.0625,3.32,0.244661,33.18,2041996.0
1549375389.078125,-1.34,0.24338,33.18,2040293.0
1549375389.09375,-6.71,0.244661,33.18,2040744.0
1549375389.109375,-12.39,0.24338,33.16,2040818.0
1549375389.125,-17.85,0.24338,33.16,2041518.0
1549375389.140625,-22.55,0.249784,33.16,2040813.0
1549375389.15625,-26.21,0.248503,33.16,2040470.0
1549375389.171875,-28.83,0.248503,33.18,2042604.0
1549375389.1875,-30.84,0.249784,33.18,2043963.0
1549375389.203125,-32.85,0.249784,33.18,2045808.0
1549375389.21875,-35.52,0.245941,33.18,2047662.0
1549375389.234375,-39.31,0.245941,33.18,2051126.0
1549375389.25,-44.3,0.244661,33.18,2049358.0
1549375389.265625,-50.14,0.244661,33.18,2052916.0
1549375389.28125,-56.05,0.248503,33.18,2055002.0
1549375389.296875,-60.9,0.249784,33.18,2056254.0
1549375389.3125,-63.49,0.249784,33.18,2054060.0
1549375389.328125,-62.8,0.248503,33.18,2049905.0
1549375389.34375,-58.37,0.248503,33.18,2046864.0
1549375389.359375,-50.45,0.248503,33.16,2044653.0
1549375389.375,-40.08,0.245941,33.16,2042819.0
1549375389.390625,-28.72,0.244661,33.16,2041389.0
1549375389.40625,-17.88,0.244661,33.16,2041306.0
1549375389.421875,-8.6,0.248503,33.16,2041547.0
1549375389.4375,-1.28,0.247222,33.16,2041981.0
1549375389.453125,4.33,0.249784,33.16,2041949.0
1549375389.46875,8.82,0.249784,33.16,2042605.0
1549375389.484375,12.77,0.247222,33.16,2043131.0
1549375389.5,16.47,0.248503,33.16,2043957.0
1549375389.515625,19.84,0.245941,33.16,2045049.0
1549375389.53125,22.54,0.247222,33.16,2046101.0
1549375389.546875,24.23,0.244661,33.16,2047379.0
1549375389.5625,24.77,0.244661,33.16,2048639.0
1549375389.578125,24.38,0.247222,33.16,2050090.0
1549375389.59375,23.48,0.249784,33.16,2051565.0
1549375389.609375,22.57,0.248503,33.16,2051099.0
1549375389.625,21.94,0.248503,33.16,2047314.0
1549375389.640625,21.57,0.248503,33.16,2043610.0
1549375389.65625,21.2,0.248503,33.16,2040972.0
1549375389.671875,20.5,0.245941,33.18,2038501.0
1549375389.6875,19.37,0.244661,33.18,2036023.0
1549375389.703125,18.04,0.244661,33.18,2034969.0
1549375389.71875,17.07,0.247222,33.18,2034320.0
1549375389.734375,17.02,0.249784,33.18,2032977.0
1549375389.75,18.23,0.251065,33.18,2031936.0
1549375389.765625,20.53,0.249784,33.18,2031884.0
1549375389.78125,23.37,0.249784,33.18,2032078.0
1549375389.796875,25.94,0.247222,33.18,2032533.0
1549375389.8125,27.5,0.245941,33.18,2033325.0
1549375389.828125,27.53,0.245941,33.18,2033944.0
1549375389.84375,25.87,0.247222,33.18,2034412.0
1549375389.859375,22.58,0.248503,33.18,2036918.0
1549375389.875,17.95,0.251065,33.18,2052412.0
1549375389.890625,12.33,0.247222,33.18,2065808.0
1549375389.90625,6.06,0.249784,33.18,2069047.0
1549375389.921875,-0.54,0.248503,33.21,2069555.0
1549375389.9375,-7.31,0.245941,33.21,2066072.0
1549375389.953125,-14.25,0.245941,33.21,2060342.0
1549375389.96875,-21.56,0.245941,33.21,2056624.0
1549375389.984375,-29.56,0.245941,33.16,2052244.0
1549375390.0,-38.38,0.247222,33.16,2048404.0
1549375390.015625,-47.71,0.249784,33.16,2044745.0
1549375390.03125,-56.69,0.251065,33.16,2043240.0
1549375390.046875,-63.89,0.265156,33.16,2041452.0
1549375390.0625,-67.74,0.249784,33.16,2039863.0
1549375390.078125,-66.97,0.248503,33.16,2038554.0
1549375390.09375,-61.2,0.247222,33.16,2038012.0
1549375390.109375,-51.05,0.245941,33.18,2038005.0
1549375390.125,-38.08,0.245941,33.18,2038094.0
1549375390.140625,-24.3,0.251065,33.18,2038858.0
1549375390.15625,-11.52,0.251065,33.18,2039803.0
1549375390.171875,-0.83,0.251065,33.18,2040710.0
1549375390.1875,7.59,0.249784,33.18,2041967.0
1549375390.203125,14.39,0.251065,33.18,2042865.0
1549375390.21875,20.57,0.247222,33.18,2044849.0
1549375390.234375,27.07,0.247222,33.18,2046916.0
1549375390.25,34.39,0.247222,33.18,2046299.0
1549375390.265625,42.53,0.247222,33.18,2042305.0
1549375390.28125,51.1,0.249784,33.18,2038031.0
1549375390.296875,59.56,0.249784,33.18,2035115.0
1549375390.3125,67.38,0.251065,33.18,2032509.0
1549375390.328125,74.2,0.251065,33.18,2029540.0
1549375390.34375,79.74,0.251065,33.18,2028101.0
1549375390.359375,83.79,0.247222,33.18,2026976.0
1549375390.375,86.12,0.247222,33.18,2025551.0
1549375390.390625,86.53,0.248503,33.18,2024248.0
1549375390.40625,84.94,0.247222,33.18,2023598.0
1549375390.421875,81.48,0.249784,33.16,2023155.0
1549375390.4375,76.59,0.252346,33.16,2023401.0
1549375390.453125,70.92,0.252346,33.16,2024268.0
1549375390.46875,65.17,0.252346,33.16,2024788.0
1549375390.484375,59.89,0.252346,33.18,2026113.0
1549375390.5,55.24,0.248503,33.18,2026857.0
1549375390.515625,50.99,0.247222,33.18,2027797.0
1549375390.53125,46.58,0.245941,33.18,2029371.0
1549375390.546875,41.31,0.248503,33.21,2030524.0
1549375390.5625,34.6,0.249784,33.21,2028175.0
1549375390.578125,26.19,0.252346,33.21,2022926.0
1549375390.59375,16.28,0.251065,33.21,2018560.0
1549375390.609375,5.47,0.252346,33.16,2016087.0
1549375390.625,-5.39,0.252346,33.16,2015158.0
1549375390.640625,-15.6,0.248503,33.16,2014425.0
1549375390.65625,-24.85,0.249784,33.16,2014954.0
1549375390.671875,-33.39,0.247222,33.16,2015765.0
1549375390.6875,-41.9,0.251065,33.16,2016121.0
1549375390.703125,-51.16,0.252346,33.16,2016194.0
1549375390.71875,-61.58,0.252346,33.16,2015428.0
1549375390.734375,-73.09,0.252346,33.16,2015608.0
1549375390.75,-85.11,0.252346,33.16,2015927.0
1549375390.765625,-96.81,0.251065,33.16,2015770.0
1549375390.78125,-107.31,0.248503,33.16,2016435.0
1549375390.796875,-115.64,0.248503,33.16,2017619.0
1549375390.8125,-120.66,0.247222,33.16,2018706.0
1549375390.828125,-121.13,0.249784,33.16,2019764.0
1549375390.84375,-115.94,0.251065,33.16,2020865.0
1549375390.859375,-104.74,0.251065,33.16,2020882.0
1549375390.875,-88.37,0.251065,33.16,2016444.0
1549375390.890625,-68.95,0.248503,33.16,2012362.0
1549375390.90625,-49.27,0.248503,33.16,2009602.0
1549375390.921875,-31.97,0.248503,33.18,2007132.0
1549375390.9375,-18.62,0.247222,33.18,2004458.0
1549375390.953125,-9.43,0.254908,33.18,2002814.0
1549375390.96875,-3.47,0.253627,33.18,2002311.0
1549375390.984375,0.7,0.254908,33.16,2000509.0
1549375391.0,4.37,0.252346,33.16,1997048.0
1549375391.015625,8.25,0.251065,33.16,1995203.0
1549375391.03125,12.44,0.249784,33.16,1992908.0
1549375391.046875,16.69,0.251065,33.18,1990187.0
1549375391.0625,20.59,0.249784,33.18,1988641.0
1549375391.078125,23.82,0.254908,33.18,1988169.0
1549375391.09375,26.2,0.253627,33.18,1988217.0
1549375391.109375,27.68,0.254908,33.21,1991504.0
1549375391.125,28.37,0.254908,33.21,1997177.0
1549375391.140625,28.36,0.251065,33.21,2004089.0
1549375391.15625,27.73,0.251065,33.21,2008932.0
1549375391.171875,26.56,0.249784,33.18,2013971.0
1549375391.1875,24.91,0.249784,33.18,2015755.0
1549375391.203125,22.88,0.252346,33.18,2013415.0
1549375391.21875,20.7,0.254908,33.18,2010648.0
1549375391.234375,18.67,0.253627,33.16,2007645.0
1549375391.25,17.04,0.253627,33.16,2002952.0
1549375391.265625,15.96,0.251065,33.16,2000251.0
1549375391.28125,15.41,0.249784,33.16,1998182.0
1549375391.296875,15.16,0.249784,33.16,1996122.0
1549375391.3125,14.89,0.249784,33.16,1993668.0
1549375391.328125,14.29,0.252346,33.16,1991246.0
1549375391.34375,13.08,0.253627,33.16,1990210.0
1549375391.359375,11.11,0.253627,33.18,1990026.0
1549375391.375,8.36,0.254908,33.18,1990121.0
1549375391.390625,4.91,0.251065,33.18,1991148.0
1549375391.40625,0.9,0.249784,33.18,1992410.0
1549375391.421875,-3.43,0.266437,33.15,1993667.0
1549375391.4375,-7.82,0.251065,33.15,1995155.0
1549375391.453125,-11.96,0.254908,33.15,1996648.0
1549375391.46875,-15.6,0.256189,33.15,1998463.0
1549375391.484375,-18.62,0.256189,33.16,1998293.0
1549375391.5,-21.12,0.254908,33.16,1994108.0
1549375391.515625,-23.52,0.254908,33.16,1990130.0
1549375391.53125,-26.47,0.251065,33.16,1987029.0
1549375391.546875,-30.72,0.249784,33.16,1983931.0
1549375391.5625,-36.69,0.249784,33.16,1981365.0
1549375391.578125,-44.16,0.249784,33.16,1980049.0
1549375391.59375,-52.04,0.253627,33.16,1980041.0
1549375391.609375,-58.57,0.252346,33.16,1979663.0
1549375391.625,-61.83,0.254908,33.16,1979347.0
1549375391.640625,-60.43,0.254908,33.16,1979599.0
1549375391.65625,-54.06,0.254908,33.16,1980006.0
1549375391.671875,-43.62,0.251065,33.18,1981160.0
1549375391.6875,-30.86,0.249784,33.18,1982830.0
1549375391.703125,-17.78,0.249784,33.18,1984914.0
1549375391.71875,-5.92,0.252346,33.18,1986700.0
1549375391.734375,3.99,0.256189,33.18,1988568.0
1549375391.75,11.96,0.256189,33.18,1990132.0
1549375391.765625,18.46,0.254908,33.18,1991769.0
1549375391.78125,24.01,0.254908,33.18,1987812.0
1549375391.796875,28.94,0.253627,33.16,1982453.0
1549375391.8125,33.38,0.251065,33.16,1977974.0
1549375391.828125,37.3,0.251065,33.16,1974034.0
1549375391.84375,40.59,0.252346,33.16,1970023.0
1549375391.859375,43.11,0.251065,33.16,1966716.0
1549375391.875,44.73,0.253627,33.16,1965253.0
1549375391.890625,45.32,0.254908,33.16,1964611.0
1549375391.90625,44.82,0.256189,33.16,1963649.0
1549375391.921875,43.35,0.254908,33.18,1962458.0
1549375391.9375,41.19,0.251065,33.18,1962078.0
1549375391.953125,38.74,0.251065,33.18,1961962.0
1549375391.96875,36.47,0.253627,33.18,1961910.0
1549375391.984375,34.71,0.253627,33.16,1962477.0
1549375392.0,33.59,0.252346,33.16,1962899.0
1549375392.015625,33.0,0.253627,33.16,1963497.0
1549375392.03125,32.63,0.254908,33.16,1964226.0
1549375392.046875,32.1,0.256189,33.16,1965117.0
1549375392.0625,31.07,0.254908,33.16,1966381.0
1549375392.078125,29.35,0.251065,33.16,1964613.0
1549375392.09375,26.89,0.253627,33.16,1960215.0
1549375392.109375,23.76,0.253627,33.16,1957816.0
1549375392.125,20.03,0.253627,33.16,1955545.0
1549375392.140625,15.78,0.253627,33.16,1953473.0
1549375392.15625,11.12,0.254908,33.16,1950134.0
1549375392.171875,6.29,0.253627,33.16,1947717.0
1549375392.1875,1.58,0.253627,33.16,1946914.0
1549375392.203125,-2.66,0.25747,33.16,1945900.0
1549375392.21875,-6.2,0.252346,33.16,1945368.0
1549375392.234375,-9.02,0.254908,33.16,1945892.0
1549375392.25,-11.33,0.252346,33.16,1948586.0
1549375392.265625,-13.5,0.253627,33.16,1952702.0
1549375392.28125,-15.85,0.253627,33.16,1959138.0
1549375392.296875,-18.65,0.256189,33.18,1965728.0
1549375392.3125,-22.08,0.25747,33.18,1971524.0
1549375392.328125,-26.32,0.256189,33.18,1977165.0
1549375392.34375,-31.53,0.256189,33.18,1981833.0
1549375392.359375,-37.71,0.253627,33.18,1986748.0
1549375392.375,-44.43,0.253627,33.18,1991660.0
1549375392.390625,-50.66,0.254908,33.18,1995160.0
1549375392.40625,-54.93,0.252346,33.18,1994178.0
1549375392.421875,-55.79,0.256189,33.18,1992650.0
1549375392.4375,-52.41,0.258751,33.18,1992711.0
1549375392.453125,-44.97,0.261313,33.18,1992587.0
1549375392.46875,-34.71,0.25747,33.18,1991214.0
1549375392.484375,-23.42,0.256189,33.18,1990720.0
1549375392.5,-12.75,0.253627,33.18,1991309.0
1549375392.515625,-3.73,0.253627,33.18,1992239.0
1549375392.53125,3.5,0.252346,33.18,1993394.0
1549375392.546875,9.35,0.254908,33.16,1996581.0
1549375392.5625,14.4,0.25747,33.16,2000169.0
1549375392.578125,19.02,0.256189,33.16,2004866.0
1549375392.59375,23.2,0.25747,33.16,2008427.0
1549375392.609375,26.73,0.256189,33.16,2010754.0
1549375392.625,29.36,0.267718,33.16,2012432.0
1549375392.640625,31.02,0.253627,33.16,2014398.0
1549375392.65625,31.76,0.256189,33.16,2016412.0
1549375392.671875,31.73,0.260032,33.16,2018661.0
1549375392.6875,31.14,0.25747,33.16,2021317.0
1549375392.703125,30.22,0.258751,33.16,2023630.0
1549375392.71875,29.22,0.25747,33.16,2023664.0
1549375392.734375,28.42,0.256189,33.16,2018762.0
1549375392.75,28.05,0.254908,33.16,2014095.0
1549375392.765625,28.17,0.253627,33.16,2010139.0
1549375392.78125,28.67,0.256189,33.16,2006560.0
1549375392.796875,29.24,0.253627,33.18,2003304.0
1549375392.8125,29.49,0.25747,33.18,2001514.0
1549375392.828125,29.12,0.258751,33.18,2000879.0
1549375392.84375,27.95,0.258751,33.18,2000685.0
1549375392.859375,26.04,0.25747,33.16,1999753.0
1549375392.875,23.57,0.258751,33.16,1999991.0
1549375392.890625,20.72,0.254908,33.16,2002627.0
1549375392.90625,17.62,0.256189,33.16,2001164.0
1549375392.921875,14.29,0.253627,33.16,2004133.0
1549375392.9375,10.73,0.253627,33.16,2006501.0
1549375392.953125,6.98,0.254908,33.16,2008981.0
1549375392.96875,3.13,0.258751,33.16,2011147.0
1549375392.984375,-0.57,0.25747,33.16,2013451.0
1549375393.0,-3.9,0.260032,33.16,2016371.0
1549375393.015625,-6.68,0.258751,33.16,2018983.0
1549375393.03125,-8.83,0.256189,33.16,2021911.0
1549375393.046875,-10.4,0.254908,33.15,2023162.0
1549375393.0625,-11.6,0.254908,33.15,2020093.0
1549375393.078125,-12.78,0.254908,33.15,2016238.0
1549375393.09375,-14.53,0.258751,33.15,2013712.0
1549375393.109375,-17.64,0.25747,33.18,2011776.0
1549375393.125,-22.93,0.260032,33.18,2010052.0
1549375393.140625,-30.92,0.260032,33.18,2009139.0
1549375393.15625,-41.44,0.258751,33.18,2009553.0
1549375393.171875,-53.38,0.25747,33.18,2009501.0
1549375393.1875,-64.66,0.256189,33.18,2010950.0
1549375393.203125,-72.84,0.254908,33.18,2012577.0
1549375393.21875,-75.85,0.254908,33.18,2014438.0
1549375393.234375,-72.7,0.260032,33.16,2010010.0
1549375393.25,-63.93,0.260032,33.16,2009333.0
1549375393.265625,-51.31,0.260032,33.16,2018968.0
1549375393.28125,-37.16,0.260032,33.16,2016481.0
1549375393.296875,-23.57,0.260032,33.16,2026807.0
1549375393.3125,-11.79,0.256189,33.16,2029540.0
1549375393.328125,-2.11,0.256189,33.16,2032121.0
1549375393.34375,5.8,0.25747,33.16,2031389.0
1549375393.359375,12.51,0.254908,33.16,2023985.0
1549375393.375,18.48,0.256189,33.16,2027124.0
1549375393.390625,23.93,0.258751,33.16,2023400.0
1549375393.40625,28.96,0.260032,33.16,2020373.0
1549375393.421875,33.62,0.25747,33.16,2017884.0
1549375393.4375,38.0,0.254908,33.16,2015589.0
1549375393.453125,42.16,0.249784,33.16,2014481.0
1549375393.46875,46.04,0.249784,33.16,2014156.0
1549375393.484375,49.48,0.253627,33.16,2013777.0
1549375393.5,52.29,0.252346,33.16,2013196.0
1549375393.515625,54.36,0.254908,33.16,2013023.0
1549375393.53125,55.78,0.25747,33.16,2014005.0
1549375393.546875,56.75,0.260032,33.16,2015301.0
1549375393.5625,57.53,0.254908,33.16,2016924.0
1549375393.578125,58.32,0.253627,33.16,2018846.0
1549375393.59375,59.14,0.249784,33.16,2020727.0
1549375393.609375,59.9,0.248503,33.16,2022904.0
1549375393.625,60.41,0.248503,33.16,2027392.0
1549375393.640625,60.46,0.253627,33.16,2030183.0
1549375393.65625,59.89,0.253627,33.16,2024982.0
1549375393.671875,58.58,0.252346,33.18,2033035.0
1549375393.6875,56.52,0.253627,33.18,2033093.0
1549375393.703125,53.84,0.253627,33.18,2028846.0
1549375393.71875,50.7,0.249784,33.18,2021396.0
1549375393.734375,47.26,0.249784,33.16,2024731.0
1549375393.75,43.53,0.248503,33.16,2021895.0
1549375393.765625,39.28,0.247222,33.16,2019248.0
1549375393.78125,34.18,0.251065,33.16,2016238.0
1549375393.796875,28.03,0.252346,33.13,2014780.0
1549375393.8125,21.16,0.252346,33.13,2014269.0
1549375393.828125,14.43,0.252346,33.13,2013053.0
1549375393.84375,9.05,0.252346,33.13,2012009.0
1549375393.859375,6.04,0.251065,33.15,2011901.0
1549375393.875,5.68,0.248503,33.15,2012213.0
1549375393.890625,7.16,0.249784,33.15,2013762.0
1549375393.90625,8.81,,,2016247.0
1549375393.921875,8.58,,,2019840.0
1549375393.9375,4.68,,,2024896.0
1549375393.953125,-3.86,,,2027109.0
1549375393.96875,-17.02,,,2022535.0
1549375393.984375,-33.84,,,2033448.0
1549375394.0,-52.7,,,2030640.0
1549375394.015625,-71.59,,,2025827.0
1549375394.03125,-88.44,,,2021978.0
1549375394.046875,-101.55,,,2019881.0
1549375394.0625,-109.92,,,2031513.0
1549375394.078125,-113.49,,,2029473.0
1549375394.09375,-113.16,,,2017553.0
1549375394.109375,-110.5,,,2015628.0
1549375394.125,-107.21,,,2015508.0
1549375394.140625,-104.57,,,2015111.0
1549375394.15625,-103.09,,,2014320.0
1549375394.171875,-102.42,,,2014273.0
1549375394.1875,-101.62,,,2014702.0
1549375394.203125,-99.44,,,2015994.0
1549375394.21875,-94.86,,,2017034.0
1549375394.234375,-87.36,,,2018549.0
1549375394.25,-77.12,,,2020201.0
1549375394.265625,-64.88,,,2021730.0
1549375394.28125,-51.67,,,2023651.0
1549375394.296875,-38.49,,,2026395.0
1549375394.3125,-26.06,,,2028297.0
1549375394.328125,-14.71,,,2030238.0
1549375394.34375,-4.44,,,2028462.0
1549375394.359375,4.91,,,2023043.0
1549375394.375,13.59,,,2018160.0
1549375394.390625,21.75,,,2014399.0
1549375394.40625,29.43,,,2010355.0
1549375394.421875,36.48,,,2007053.0
1549375394.4375,42.6,,,2004612.0
1549375394.453125,47.31,,,2004289.0
1549375394.46875,50.19,,,2005337.0
1549375394.484375,50.98,,,2008335.0
1549375394.5,49.79,,,2011385.0
1549375394.515625,47.07,,,2014988.0
1549375394.53125,43.47,,,2018589.0
1549375394.546875,39.62,,,2022444.0
1549375394.5625,35.87,,,2024507.0
1549375394.578125,32.3,,,2025000.0
1549375394.59375,28.72,,,2025899.0
1549375394.609375,24.91,,,2027352.0
1549375394.625,20.75,,,2030186.0
1549375394.640625,16.21,,,2033110.0
1549375394.65625,11.4,,,2035594.0
1549375394.671875,6.45,,,2034602.0
1549375394.6875,1.49,,,2030576.0
1549375394.703125,-3.36,,,2026988.0
1549375394.71875,-7.96,,,2023911.0
1549375394.734375,-12.25,,,2020668.0
1549375394.75,-16.18,,,2017919.0
1549375394.765625,-19.85,,,2016788.0
1549375394.78125,-23.32,,,2016262.0
1549375394.796875,-26.53,,,2015643.0
1549375394.8125,-29.11,,,2015277.0
1549375394.828125,-30.33,,,2015494.0
1549375394.84375,-29.33,,,2016272.0
1549375394.859375,-25.42,,,2017151.0
1549375394.875,-18.46,,,2019006.0
1549375394.890625,-9.08,,,2020695.0
1549375394.90625,1.48,,,2022286.0
1549375394.921875,11.65,,,2024036.0
1549375394.9375,20.11,,,2026124.0
1549375394.953125,26.07,,,2028445.0
1549375394.96875,29.44,,,2030737.0
1549375394.984375,30.66,,,2031671.0
1549375395.0,30.42,,,2028475.0
1549375395.015625,29.34,,,2024243.0
1549375395.03125,27.84,,,2021384.0
1549375395.046875,26.16,,,2019181.0
1549375395.0625,24.42,,,2017039.0
1549375395.078125,22.79,,,2016274.0
1549375395.09375,21.49,,,2016058.0
1549375395.109375,20.71,,,2015657.0
1549375395.125,20.61,,,2015393.0
1549375395.140625,21.14,,,2015582.0
1549375395.15625,22.09,,,2016430.0
1549375395.171875,23.19,,,2017551.0
1549375395.1875,24.22,,,2019530.0
1549375395.203125,25.08,,,2021794.0
1549375395.21875,25.81,,,2023846.0
1549375395.234375,26.47,,,2026020.0
1549375395.25,27.01,,,2027932.0
1549375395.265625,27.19,,,2030066.0
1549375395.28125,26.69,,,2032351.0
1549375395.296875,25.29,,,2030894.0
1549375395.3125,23.08,,,2026286.0
1549375395.328125,20.47,,,2022086.0
1549375395.34375,18.08,,,2019340.0
1549375395.359375,16.32,,,2016865.0
1549375395.375,15.16,,,2013829.0
1549375395.390625,14.12,,,2012874.0
1549375395.40625,12.54,,,2012091.0
1549375395.421875,9.92,,,2010094.0
1549375395.4375,6.32,,,2008308.0
1549375395.453125,2.35,,,2006013.0
1549375395.46875,-1.17,,,2004799.0
1549375395.484375,-3.6,,,2004122.0
1549375395.5,-4.88,,,2003524.0
1549375395.515625,-5.5,,,2004278.0
1549375395.53125,-6.24,,,2005323.0
1549375395.546875,-7.88,,,2007056.0
1549375395.5625,-10.93,,,2009106.0
1549375395.578125,-15.56,,,2010122.0
1549375395.59375,-21.63,,,2008667.0
1549375395.609375,-28.67,,,2007230.0
1549375395.625,-35.75,,,2004927.0
1549375395.640625,-41.51,,,2002229.0
1549375395.65625,-44.31,,,1999289.0
1549375395.671875,-42.81,,,1998258.0
1549375395.6875,-36.45,,,1998644.0
1549375395.703125,-25.91,,,1998304.0
1549375395.71875,-12.92,,,1998113.0
1549375395.734375,0.35,,,1998742.0
1549375395.75,11.97,,,1999688.0
1549375395.765625,20.97,,,2000910.0
1549375395.78125,27.33,,,2002759.0
1549375395.796875,31.8,,,2005095.0
1549375395.8125,35.24,,,2007000.0
1549375395.828125,38.25,,,2009298.0
1549375395.84375,40.98,,,2012287.0
1549375395.859375,43.2,,,2015064.0
1549375395.875,44.49,,,2017450.0
1549375395.890625,44.43,,,2014797.0
1549375395.90625,42.61,,,2010289.0
1549375395.921875,38.73,,,2006463.0
1549375395.9375,32.67,,,2002913.0
1549375395.953125,24.59,,,1999728.0
1549375395.96875,15.09,,,1996567.0
1549375395.984375,5.15,,,1995625.0
1549375396.0,-4.11,,,1995260.0
1549375396.015625,-11.71,,,1994777.0
1549375396.03125,-17.14,,,1994639.0
1549375396.046875,-20.48,,,1995410.0
1549375396.0625,-22.32,,,1996200.0
1549375396.078125,-23.41,,,1997515.0
1549375396.09375,-24.41,,,1999279.0
1549375396.109375,-25.52,,,2001089.0
1549375396.125,-26.55,,,2003075.0
1549375396.140625,-27.06,,,2005520.0
1549375396.15625,-26.66,,,2007827.0
1549375396.171875,-25.18,,,2010537.0
1549375396.1875,-22.74,,,2012785.0
1549375396.203125,-19.64,,,2012077.0
1549375396.21875,-16.22,,,2007386.0
1549375396.234375,-12.81,,,2002796.0
1549375396.25,-9.67,,,1998988.0
1549375396.265625,-7.11,,,1995232.0
1549375396.28125,-5.47,,,1991645.0
1549375396.296875,-5.07,,,1989272.0
1549375396.3125,-6.11,,,1988877.0
1549375396.328125,-8.63,,,1988450.0
1549375396.34375,-12.55,,,1987866.0
1549375396.359375,-17.8,,,1987950.0
1549375396.375,-24.35,,,1988658.0
1549375396.390625,-32.1,,,1989991.0
1549375396.40625,-40.58,,,1991408.0
1549375396.421875,-48.67,,,1993495.0
1549375396.4375,-54.62,,,1995643.0
1549375396.453125,-56.52,,,1997673.0
1549375396.46875,-53.03,,,1999583.0
1549375396.484375,-44.08,,,2002094.0
1549375396.5,-31.02,,,2004759.0
1549375396.515625,-16.27,,,2007631.0
1549375396.53125,-2.4,,,2009462.0
1549375396.546875,8.74,,,2007349.0
1549375396.5625,16.6,,,2002592.0
1549375396.578125,21.69,,,1998758.0
1549375396.59375,25.09,,,1995268.0
1549375396.609375,27.7,,,1992110.0
1549375396.625,29.88,,,1989477.0
1549375396.640625,31.5,,,1988394.0
1549375396.65625,32.29,,,1988041.0
1549375396.671875,32.16,,,1987616.0
1549375396.6875,31.4,,,1987277.0
1549375396.703125,30.56,,,1987659.0
1549375396.71875,30.09,,,1988487.0
1549375396.734375,30.15,,,1990047.0
1549375396.75,30.54,,,1991846.0
1549375396.765625,30.87,,,1993565.0
1549375396.78125,30.82,,,1995623.0
1549375396.796875,30.27,,,1997646.0
1549375396.8125,29.37,,,1999414.0
1549375396.828125,28.4,,,2002037.0
1549375396.84375,27.54,,,2004628.0
1549375396.859375,26.82,,,2007148.0
1549375396.875,26.09,,,2008999.0
1549375396.890625,25.09,,,2005958.0
1549375396.90625,23.64,,,2001433.0
1549375396.921875,21.67,,,1998271.0
1549375396.9375,19.21,,,1995886.0
1549375396.953125,16.36,,,1993345.0
1549375396.96875,13.18,,,1991562.0
1549375396.984375,9.7,,,1991677.0
1549375397.0,5.94,,,1991541.0
1549375397.015625,1.99,,,1991247.0
1549375397.03125,-1.98,,,1991289.0
1549375397.046875,-5.72,,,1992129.0
1549375397.0625,-8.92,,,1993693.0
1549375397.078125,-11.31,,,1995719.0
1549375397.09375,-12.82,,,1997423.0
1549375397.109375,-13.64,,,1999663.0
1549375397.125,-14.32,,,2001709.0
1549375397.140625,-15.69,,,2003980.0
1549375397.15625,-18.51,,,2006071.0
1549375397.171875,-23.08,,,2008741.0
1549375397.1875,-28.69,,,2011523.0
1549375397.203125,-33.62,,,2013568.0
1549375397.21875,-35.45,,,2011090.0
1549375397.234375,-31.91,,,2006331.0
1549375397.25,-21.85,,,2002348.0
1549375397.265625,-5.8,,,1999406.0
1549375397.28125,14.08,,,1996346.0
1549375397.296875,34.75,,,1993274.0
1549375397.3125,53.31,,,1992522.0
1549375397.328125,67.82,,,1992179.0
1549375397.34375,77.79,,,1991358.0
1549375397.359375,83.9,,,1991197.0
1549375397.375,87.55,,,1991711.0
1549375397.390625,90.13,,,1992766.0
1549375397.40625,92.55,,,1995513.0
1549375397.421875,94.89,,,1997663.0
1549375397.4375,96.52,,,1999415.0
1549375397.453125,96.25,,,2001342.0
1549375397.46875,92.76,,,2003326.0
1549375397.484375,85.05,,,1994045.0
1549375397.5,73.02,,,2005699.0
1549375397.515625,57.73,,,2008202.0
1549375397.53125,41.48,,,2010874.0
1549375397.546875,27.36,,,2013234.0
1549375397.5625,18.36,,,2011106.0
1549375397.578125,16.18,,,2005969.0
1549375397.59375,20.29,,,2001987.0
1549375397.609375,27.68,,,1999013.0
1549375397.625,33.6,,,1996071.0
1549375397.640625,33.17,,,1993454.0
1549375397.65625,23.1,,,1992538.0
1549375397.671875,3.0,,,1991595.0
1549375397.6875,-24.62,,,1991399.0
1549375397.703125,-55.44,,,1991447.0
1549375397.71875,-85.09,,,1992296.0
1549375397.734375,-110.51,,,1992361.0
1549375397.75,-130.51,,,1993494.0
1549375397.765625,-145.29,,,1994804.0
1549375397.78125,-155.5,,,2005215.0
1549375397.796875,-161.47,,,2000415.0
1549375397.8125,-163.11,,,2009974.0
1549375397.828125,-160.47,,,2011438.0
1549375397.84375,-154.17,,,1998314.0
1549375397.859375,-145.85,,,2008371.0
1549375397.875,-137.71,,,2007781.0
1549375397.890625,-131.79,,,2002654.0
1549375397.90625,-129.32,,,1996345.0
1549375397.921875,-130.43,,,2004058.0
1549375397.9375,-134.32,,,2001400.0
1549375397.953125,-139.45,,,1999673.0
1549375397.96875,-143.88,,,1997644.0
1549375397.984375,-145.45,,,1998617.0
1549375398.0,-142.03,,,1998867.0
1549375398.015625,-132.08,,,1998568.0
1549375398.03125,-115.27,,,1997915.0
1549375398.046875,-92.86,,,1998085.0
1549375398.0625,-67.46,,,2002888.0
1549375398.078125,-42.23,,,2000926.0
1549375398.09375,-19.79,,,1999198.0
1549375398.109375,-1.45,,,2005056.0
1549375398.125,12.84,,,2006931.0
1549375398.140625,23.97,,,2008850.0
1549375398.15625,32.91,,,2010516.0
1549375398.171875,40.27,,,2012757.0
1549375398.1875,46.25,,,2014494.0
1549375398.203125,50.94,,,2016978.0
1549375398.21875,54.61,,,2020142.0
1549375398.234375,57.69,,,2016532.0
1549375398.25,60.52,,,2010854.0
1549375398.265625,63.05,,,2006649.0
1549375398.28125,64.85,,,2003202.0
1549375398.296875,65.32,,,1999890.0
1549375398.3125,64.04,,,2019321.0
1549375398.328125,61.07,,,1996970.0
1549375398.34375,57.0,,,1994499.0
1549375398.359375,52.75,,,1992717.0
1549375398.375,49.18,,,1993460.0
1549375398.390625,46.77,,,1995390.0
1549375398.40625,45.42,,,1992891.0
1549375398.421875,44.51,,,1993442.0
1549375398.4375,43.19,,,1994045.0
1549375398.453125,40.74,,,1995296.0
1549375398.46875,36.86,,,1996666.0
1549375398.484375,31.76,,,2000373.0
1549375398.5,26.04,,,1998369.0
1549375398.515625,20.32,,,2003121.0
1549375398.53125,15.05,,,2008961.0
1549375398.546875,10.32,,,2012161.0
1549375398.5625,5.89,,,2013270.0
1549375398.578125,1.41,,,2006019.0
1549375398.59375,-3.43,,,2009197.0
1549375398.609375,-8.7,,,2004744.0
1549375398.625,-14.27,,,2002030.0
1549375398.640625,-19.84,,,1999653.0
1549375398.65625,-25.03,,,1996803.0
1549375398.671875,-29.52,,,1995331.0
1549375398.6875,-33.16,,,1994862.0
1549375398.703125,-35.99,,,1994291.0
1549375398.71875,-38.38,,,1993580.0
1549375398.734375,-40.94,,,1994061.0
1549375398.75,-44.37,,,1995158.0
1549375398.765625,-49.16,,,1996360.0
1549375398.78125,-55.18,,,1998110.0
1549375398.796875,-61.53,,,2000549.0
1549375398.8125,-66.65,,,2003420.0
1549375398.828125,-68.71,,,2006218.0
1549375398.84375,-66.3,,,2009045.0
1549375398.859375,-58.96,,,2012304.0
1549375398.875,-47.39,,,2015507.0
1549375398.890625,-33.22,,,2019016.0
1549375398.90625,-18.45,,,2022231.0
1549375398.921875,-4.77,,,2021818.0
1549375398.9375,6.79,,,2017146.0
1549375398.953125,16.07,,,2012773.0
1549375398.96875,23.45,,,2009333.0
1549375398.984375,29.52,,,2007298.0
1549375399.0,34.75,,,2006971.0
1549375399.015625,39.29,,,2008349.0
1549375399.03125,42.98,,,2009253.0
1549375399.046875,45.55,,,2009973.0
1549375399.0625,46.77,,,2010428.0
1549375399.078125,46.64,,,2010527.0
1549375399.09375,45.36,,,2010816.0
1549375399.109375,43.29,,,2010481.0
1549375399.125,40.76,,,2010612.0
1549375399.140625,38.01,,,2011362.0
1549375399.15625,35.18,,,2012217.0
1549375399.171875,32.31,,,2014316.0
1549375399.1875,29.46,,,2016776.0
1549375399.203125,26.8,,,2020211.0
1549375399.21875,24.48,,,2023348.0
1549375399.234375,22.58,,,2025604.0
1549375399.25,21.03,,,2023099.0
1549375399.265625,19.57,,,2018214.0
1549375399.28125,17.82,,,2013800.0
1549375399.296875,15.49,,,2010517.0
1549375399.3125,12.42,,,2007688.0
1549375399.328125,8.68,,,2004371.0
1549375399.34375,4.46,,,2003067.0
1549375399.359375,0.06,,,2002544.0
1549375399.375,-4.29,,,2001135.0
1549375399.390625,-8.43,,,2000679.0
1549375399.40625,-12.36,,,2000712.0
1549375399.421875,-16.16,,,2001457.0
1549375399.4375,-19.95,,,2002663.0
1549375399.453125,-23.9,,,2004359.0
1549375399.46875,-28.19,,,2006392.0
1549375399.484375,-32.96,,,2008397.0
1549375399.5,-38.34,,,2010392.0
1549375399.515625,-44.45,,,2012569.0
1549375399.53125,-51.27,,,2015056.0
1549375399.546875,-58.48,,,2017844.0
1549375399.5625,-65.3,,,2020631.0
1549375399.578125,-70.48,,,2023209.0
1549375399.59375,-72.54,,,2022238.0
1549375399.609375,-70.23,,,2018032.0
1549375399.625,-63.0,,,2014367.0
1549375399.640625,-51.32,,,2011686.0
1549375399.65625,-36.63,,,2008727.0
1549375399.671875,-20.87,,,2006261.0
1549375399.6875,-5.88,,,2005682.0
1549375399.703125,7.14,,,2005787.0
1549375399.71875,17.83,,,2005127.0
1549375399.734375,26.58,,,2004831.0
1549375399.75,34.21,,,2005087.0
1549375399.765625,41.54,,,2006122.0
1549375399.78125,49.15,,,2007342.0
1549375399.796875,57.25,,,2009022.0
1549375399.8125,65.73,,,2010715.0
1549375399.828125,74.16,,,2012631.0
1549375399.84375,81.87,,,2014204.0
1549375399.859375,87.95,,,2016233.0
1549375399.875,91.47,,,2018281.0
1549375399.890625,91.64,,,2020629.0
1549375399.90625,88.13,,,2022426.0
1549375399.921875,81.35,,,2022925.0
1549375399.9375,72.41,,,2019103.0
1549375399.953125,62.8,,,2014071.0
1549375399.96875,53.93,,,2010474.0
1549375399.984375,46.71,,,2008050.0
1549375400.0,41.31,,,2005330.0
1549375400.015625,37.42,,,2004141.0
1549375400.03125,34.51,,,2004316.0
1549375400.046875,32.18,,,2004389.0
1549375400.0625,30.21,,,2004157.0
1549375400.078125,28.46,,,2005647.0
1549375400.09375,26.7,,,2007829.0
1549375400.109375,24.54,,,2009811.0
1549375400.125,21.59,,,2012044.0
1549375400.140625,17.71,,,2013375.0
1549375400.15625,13.13,,,2014961.0
1549375400.171875,8.38,,,2016457.0
1549375400.1875,4.01,,,2017696.0
1549375400.203125,0.39,,,2018724.0
1549375400.21875,-2.54,,,2019861.0
1549375400.234375,-5.22,,,2020774.0
1549375400.25,-8.28,,,2019334.0
1549375400.265625,-12.39,,,2015384.0
1549375400.28125,-18.13,,,2011776.0
1549375400.296875,-25.91,,,2008584.0
1549375400.3125,-35.73,,,2004316.0
1549375400.328125,-47.07,,,2000713.0
1549375400.34375,-58.66,,,1999185.0
1549375400.359375,-68.61,,,1998513.0
1549375400.375,-74.77,,,1998506.0
1549375400.390625,-75.43,,,1999061.0
1549375400.40625,-69.97,,,2000474.0
1549375400.421875,-59.14,,,2001402.0
1549375400.4375,-44.87,,,2002959.0
1549375400.453125,-29.58,,,2005582.0
1549375400.46875,-15.42,,,2007507.0
1549375400.484375,-3.68,,,2008614.0
1549375400.5,5.41,,,2010470.0
1549375400.515625,12.34,,,2011960.0
1549375400.53125,17.95,,,2014305.0
1549375400.546875,22.94,,,2016574.0
1549375400.5625,27.72,,,2017888.0
1549375400.578125,32.29,,,2015245.0
1549375400.59375,36.45,,,2010154.0
1549375400.609375,39.91,,,2006146.0
1549375400.625,42.38,,,2002844.0
1549375400.640625,43.71,,,1999689.0
1549375400.65625,43.93,,,1996946.0
1549375400.671875,43.25,,,1995103.0
1549375400.6875,41.98,,,1993506.0
1549375400.703125,40.5,,,1992023.0
1549375400.71875,39.16,,,1990740.0
1549375400.734375,38.18,,,1990398.0
1549375400.75,37.57,,,1989933.0
1549375400.765625,37.11,,,1990223.0
1549375400.78125,36.37,,,1990461.0
1549375400.796875,34.87,,,1991787.0
1549375400.8125,32.2,,,1993759.0
1549375400.828125,28.28,,,1998259.0
1549375400.84375,23.33,,,2003226.0
1549375400.859375,17.86,,,2006903.0
1549375400.875,12.43,,,2010172.0
1549375400.890625,7.45,,,2012743.0
1549375400.90625,3.02,,,2011071.0
1549375400.921875,-1.05,,,2005470.0
1549375400.9375,-5.12,,,2000710.0
1549375400.953125,-9.49,,,1996720.0
1549375400.96875,-14.3,,,1992700.0
1549375400.984375,-19.51,,,1988924.0
1549375401.0,-24.93,,,1986759.0
1549375401.015625,-30.36,,,1986076.0
1549375401.03125,-35.69,,,1984886.0
1549375401.046875,-40.88,,,1984198.0
1549375401.0625,-46.07,,,1983957.0
1549375401.078125,-51.5,,,1983726.0
1549375401.09375,-57.54,,,1984145.0
1549375401.109375,-64.51,,,1985673.0
1549375401.125,-72.4,,,1987829.0
1549375401.140625,-80.64,,,1990408.0
1549375401.15625,-87.94,,,1992877.0
1549375401.171875,-92.52,,,1994780.0
1549375401.1875,-92.65,,,1996659.0
1549375401.203125,-87.33,,,1999362.0
1549375401.21875,-76.71,,,2002224.0
1549375401.234375,-62.16,,,2005104.0
1549375401.25,-45.77,,,2004154.0
1549375401.265625,-29.7,,,1999259.0
1549375401.28125,-15.52,,,1994747.0
1549375401.296875,-3.95,,,1991508.0
1549375401.3125,5.1,,,1987730.0
1549375401.328125,12.16,,,1984436.0
1549375401.34375,17.85,,,1982496.0
1549375401.359375,22.65,,,1982031.0
1549375401.375,26.78,,,1981508.0
1549375401.390625,30.26,,,1981026.0
1549375401.40625,32.98,,,1981241.0
1549375401.421875,34.8,,,1982286.0
1549375401.4375,35.62,,,1983771.0
1549375401.453125,35.49,,,1985365.0
1549375401.46875,34.61,,,1987300.0
1549375401.484375,33.27,,,1989101.0
1549375401.5,31.84,,,1991215.0
1549375401.515625,30.62,,,1993345.0
1549375401.53125,29.76,,,1996084.0
1549375401.546875,29.23,,,1998894.0
1549375401.5625,28.85,,,2001439.0
1549375401.578125,28.36,,,2004455.0
1549375401.59375,27.52,,,2005222.0
1549375401.609375,26.22,,,2001120.0
1549375401.625,24.45,,,1996930.0
1549375401.640625,22.26,,,1994195.0
1549375401.65625,19.75,,,1991950.0
1549375401.671875,16.97,,,1989841.0
1549375401.6875,13.94,,,1988569.0
1549375401.703125,10.73,,,1989280.0
1549375401.71875,7.38,,,1989566.0
1549375401.734375,3.95,,,1989699.0
1549375401.75,0.45,,,1990224.0
1549375401.765625,-3.21,,,1991582.0
1549375401.78125,-7.16,,,1993697.0
1549375401.796875,-11.51,,,1995803.0
1549375401.8125,-16.23,,,1998431.0
1549375401.828125,-21.17,,,2001307.0
1549375401.84375,-26.12,,,2004276.0
1549375401.859375,-30.96,,,2007341.0
1549375401.875,-35.8,,,2010474.0
1549375401.890625,-40.83,,,2013800.0
1549375401.90625,-46.11,,,2017272.0
1549375401.921875,-51.22,,,2018513.0
1549375401.9375,-55.2,,,2016083.0
1549375401.953125,-56.7,,,2012604.0
1549375401.96875,-54.52,,,2010623.0
1549375401.984375,-48.14,,,2009010.0
1549375402.0,-38.03,,,2007655.0
1549375402.015625,-25.6,,,2007088.0
1549375402.03125,-12.66,,,2007843.0
1549375402.046875,-0.83,,,2008233.0
1549375402.0625,8.97,,,2008041.0
1549375402.078125,16.62,,,2008551.0
1549375402.09375,22.6,,,2009984.0
1549375402.109375,27.59,,,2012077.0
1549375402.125,32.12,,,2014447.0
1549375402.140625,36.41,,,2016917.0
1549375402.15625,40.35,,,2019437.0
1549375402.171875,43.73,,,2021656.0
1549375402.1875,46.29,,,2024310.0
1549375402.203125,47.92,,,2026355.0
1549375402.21875,48.6,,,2027683.0
1549375402.234375,48.42,,,2025483.0
1549375402.25,47.57,,,2021350.0
1549375402.265625,46.28,,,2018209.0
1549375402.28125,44.84,,,2016214.0
1549375402.296875,43.49,,,2013914.0
1549375402.3125,42.46,,,2012636.0
1549375402.328125,41.85,,,2012569.0
1549375402.34375,41.62,,,2011961.0
1549375402.359375,41.62,,,2011853.0
1549375402.375,41.57,,,2011984.0
1549375402.390625,41.18,,,2013308.0
1549375402.40625,40.11,,,2014650.0
1549375402.421875,38.1,,,2016673.0
1549375402.4375,34.96,,,2018709.0
1549375402.453125,30.65,,,2023023.0
1549375402.46875,25.25,,,2020700.0
1549375402.484375,19.06,,,2025503.0
1549375402.5,12.48,,,2028075.0
1549375402.515625,5.96,,,2029649.0
1549375402.53125,-0.14,,,2027460.0
1549375402.546875,-5.63,,,2022871.0
1549375402.5625,-10.54,,,2019543.0
1549375402.578125,-15.09,,,2017018.0
1549375402.59375,-19.51,,,2014743.0
1549375402.609375,-24.07,,,2012907.0
1549375402.625,-28.9,,,2012607.0
1549375402.640625,-34.0,,,2012364.0
1549375402.65625,-39.09,,,2012205.0
1549375402.671875,-43.56,,,2013034.0
1549375402.6875,-46.51,,,2012184.0
1549375402.703125,-46.9,,,2011383.0
1549375402.71875,-43.91,,,2014091.0
1549375402.734375,-37.32,,,2015663.0
1549375402.75,-27.7,,,2017615.0
1549375402.765625,-16.3,,,2019571.0
1549375402.78125,-4.69,,,2027964.0
1549375402.796875,5.89,,,2030815.0
1549375402.8125,14.88,,,2032739.0
1549375402.828125,22.61,,,2030549.0
1549375402.84375,29.97,,,2025555.0
1549375402.859375,37.93,,,2021607.0
1549375402.875,47.06,,,2019096.0
1549375402.890625,57.3,,,2016280.0
1549375402.90625,67.97,,,2012225.0
1549375402.921875,78.07,,,2009374.0
1549375402.9375,86.62,,,2021160.0
1549375402.953125,93.0,,,2023317.0
1549375402.96875,97.24,,,2007503.0
1549375402.984375,99.94,,,2005302.0
1549375403.0,102.1,,,2025672.0
1549375403.015625,104.68,,,2005963.0
1549375403.03125,108.29,,,2006296.0
1549375403.046875,113.0,,,2014603.0
1549375403.0625,118.53,,,2010415.0
1549375403.078125,124.49,,,2019815.0
1549375403.09375,130.57,,,2017159.0
1549375403.109375,136.52,,,2023200.0
1549375403.125,141.79,,,2026465.0
1549375403.140625,145.25,,,2029701.0
1549375403.15625,145.15,,,2032072.0
1549375403.171875,139.64,,,2034026.0
1549375403.1875,127.47,,,2037558.0
1549375403.203125,108.65,,,2035467.0
1549375403.21875,84.69,,,2039832.0
1549375403.234375,58.15,,,2040058.0
1549375403.25,31.91,,,2031088.0
1549375403.265625,8.49,,,2035638.0
1549375403.28125,-10.33,,,2027758.0
1549375403.296875,-23.53,,,2024335.0
1549375403.3125,-30.75,,,2017847.0
1549375403.328125,-32.42,,,2020884.0
1549375403.34375,-30.05,,,2018787.0
1549375403.359375,-26.47,,,2016326.0
1549375403.375,-25.57,,,2017038.0
1549375403.390625,-31.37,,,2016562.0
1549375403.40625,-46.68,,,2016875.0
1549375403.421875,-71.81,,,2017934.0
1549375403.4375,-104.2,,,2019642.0
1549375403.453125,-139.12,,,2020719.0
1549375403.46875,-171.17,,,2022599.0
1549375403.484375,-196.05,,,2024736.0
1549375403.5,-211.59,,,2026489.0
1549375403.515625,-217.7,,,2028351.0
1549375403.53125,-215.54,,,2030711.0
1549375403.546875,-206.46,,,2033306.0
1549375403.5625,-191.41,,,2035917.0
1549375403.578125,-171.04,,,2038230.0
1549375403.59375,-146.31,,,2035968.0
1549375403.609375,-119.08,,,2027067.0
1549375403.625,-92.02,,,2024224.0
1549375403.640625,-67.99,,,2021442.0
1549375403.65625,-49.06,,,2031173.0
1549375403.671875,-35.86,,,2018815.0
1549375403.6875,-27.5,,,2017833.0
1549375403.703125,-22.18,,,2017218.0
1549375403.71875,-18.04,,,2016191.0
1549375403.734375,-13.89,,,2015885.0
1549375403.75,-9.4,,,2015664.0
1549375403.765625,-4.84,,,2016804.0
1549375403.78125,-0.67,,,2017875.0
1549375403.796875,2.91,,,2019503.0
1549375403.8125,6.04,,,2020784.0
1549375403.828125,9.11,,,2022721.0
1549375403.84375,12.46,,,2024302.0
1549375403.859375,16.11,,,2026366.0
1549375403.875,19.69,,,2027907.0
1549375403.890625,22.54,,,2030380.0
1549375403.90625,23.98,,,2032740.0
1549375403.921875,23.48,,,2033720.0
1549375403.9375,20.99,,,2030199.0
1549375403.953125,16.91,,,2024474.0
1549375403.96875,12.02,,,2020781.0
1549375403.984375,7.21,,,2017341.0
1549375404.0,3.15,,,2013892.0
1549375404.015625,0.1,,,2011192.0
1549375404.03125,-2.24,,,2010922.0
1549375404.046875,-4.58,,,2009745.0
1549375404.0625,-7.76,,,2008234.0
1549375404.078125,-12.42,,,2007527.0
1549375404.09375,-18.8,,,2007565.0
1549375404.109375,-26.67,,,2009668.0
1549375404.125,-35.42,,,2014266.0
1549375404.140625,-44.1,,,2019124.0
1549375404.15625,-51.5,,,2022568.0
1549375404.171875,-56.29,,,2024823.0
1549375404.1875,-57.21,,,2026845.0
1549375404.203125,-53.42,,,2030587.0
1549375404.21875,-44.87,,,2037234.0
1549375404.234375,-32.5,,,2042641.0
1549375404.25,-18.03,,,2045866.0
1549375404.265625,-3.58,,,2046154.0
1549375404.28125,9.07,,,2042862.0
1549375404.296875,18.99,,,2036324.0
1549375404.3125,26.24,,,2030825.0
1549375404.328125,31.6,,,2027282.0
1549375404.34375,36.08,,,2025261.0
1549375404.359375,40.31,,,2023530.0
1549375404.375,44.37,,,2023039.0
1549375404.390625,47.85,,,2022322.0
1549375404.40625,50.23,,,2021385.0
1549375404.421875,51.22,,,2021033.0
1549375404.4375,50.94,,,2021143.0
1549375404.453125,49.85,,,2021793.0
1549375404.46875,48.52,,,2022571.0
1549375404.484375,47.3,,,2023830.0
1549375404.5,46.28,,,2025069.0
1549375404.515625,45.27,,,2026607.0
1549375404.53125,44.04,,,2028215.0
1549375404.546875,42.45,,,2029890.0
1549375404.5625,40.56,,,2031365.0
1549375404.578125,38.57,,,2033606.0
1549375404.59375,36.67,,,2036257.0
1549375404.609375,34.88,,,2038692.0
1549375404.625,33.03,,,2039526.0
1549375404.640625,30.72,,,2035652.0
1549375404.65625,27.47,,,2030635.0
1549375404.671875,22.95,,,2027125.0
1549375404.6875,17.05,,,2024551.0
1549375404.703125,10.05,,,2021383.0
1549375404.71875,2.45,,,2019284.0
1549375404.734375,-5.08,,,2018437.0
1549375404.75,-11.99,,,2017807.0
1549375404.765625,-18.0,,,2017286.0
1549375404.78125,-23.2,,,2016618.0
1549375404.796875,-28.0,,,2017073.0
1549375404.8125,-32.95,,,2018121.0
1549375404.828125,-38.59,,,2018994.0
1549375404.84375,-45.32,,,2020818.0
1549375404.859375,-53.22,,,2022294.0
1549375404.875,-61.95,,,2023937.0
1549375404.890625,-70.64,,,2025624.0
1549375404.90625,-77.86,,,2027947.0
1549375404.921875,-81.88,,,2029943.0
1549375404.9375,-81.19,,,2032531.0
1549375404.953125,-74.94,,,2034973.0
1549375404.96875,-63.4,,,2035789.0
1549375404.984375,-47.95,,,2031845.0
1549375405.0,-30.62,,,2027548.0
1549375405.015625,-13.57,,,2024382.0
1549375405.03125,1.61,,,2022093.0
1549375405.046875,14.1,,,2020132.0
1549375405.0625,23.82,,,2018936.0
1549375405.078125,31.17,,,2018869.0
1549375405.09375,36.8,,,2018454.0
1549375405.109375,41.33,,,2017757.0
1549375405.125,45.3,,,2018165.0
1549375405.140625,49.13,,,2018720.0
1549375405.15625,53.04,,,2019590.0
1549375405.171875,56.99,,,2021350.0
1549375405.1875,60.71,,,2023062.0
1549375405.203125,63.86,,,2024923.0
1549375405.21875,66.2,,,2026864.0
1549375405.234375,67.79,,,2028511.0
1549375405.25,68.97,,,2030463.0
1549375405.265625,70.25,,,2032604.0
1549375405.28125,72.14,,,2034912.0
1549375405.296875,74.89,,,2037494.0
1549375405.3125,78.48,,,2037819.0
1549375405.328125,82.6,,,2033661.0
1549375405.34375,86.77,,,2028844.0
1549375405.359375,90.51,,,2025794.0
1549375405.375,93.46,,,2023102.0
1549375405.390625,95.6,,,2020449.0
1549375405.40625,97.27,,,2018809.0
1549375405.421875,99.18,,,2018295.0
1549375405.4375,102.19,,,2017882.0
1549375405.453125,106.94,,,2017427.0
1549375405.46875,113.38,,,2017508.0
1549375405.484375,120.48,,,2018175.0
1549375405.5,126.43,,,2019410.0
1549375405.515625,129.18,,,2021251.0
1549375405.53125,127.27,,,2022783.0
1549375405.546875,120.49,,,2024728.0
1549375405.5625,109.96,,,2026634.0
1549375405.578125,97.83,,,2028586.0
1549375405.59375,86.69,,,2030934.0
1549375405.609375,78.96,,,2033516.0
1549375405.625,76.36,,,2036149.0
1549375405.640625,79.6,,,2038844.0
1549375405.65625,87.88,,,2040717.0
1549375405.671875,98.83,,,2037478.0
1549375405.6875,108.62,,,2032546.0
1549375405.703125,112.74,,,2028854.0
1549375405.71875,107.23,,,2025963.0
1549375405.734375,89.94,,,2022935.0
1549375405.75,61.2,,,2020367.0
1549375405.765625,23.64,,,2019308.0
1549375405.78125,-18.74,,,2018847.0
1549375405.796875,-61.85,,,2018164.0
1549375405.8125,-102.21,,,2017996.0
1549375405.828125,-137.32,,,2018391.0
1549375405.84375,-165.43,,,2019406.0
1549375405.859375,-185.42,,,2021100.0
1549375405.875,-197.05,,,2022614.0
1549375405.890625,-201.24,,,2024567.0
1549375405.90625,-200.22,,,2026518.0
1549375405.921875,-197.11,,,2028101.0
1549375405.9375,-194.9,,,2030346.0
1549375405.953125,-195.36,,,2032780.0
1549375405.96875,-198.34,,,2035029.0
1549375405.984375,-201.9,,,2037478.0
1549375406.0,-203.3,,,2041350.0
1549375406.015625,-200.23,,,2040502.0
1549375406.03125,-191.82,,,2034651.0
1549375406.046875,-178.91,,,2028635.0
1549375406.0625,-163.42,,,2024363.0
1549375406.078125,-147.48,,,2021368.0
1549375406.09375,-132.56,,,2020828.0
1549375406.109375,-119.17,,,2021161.0
1549375406.125,-107.17,,,2021557.0
1549375406.140625,-96.21,,,2020800.0
1549375406.15625,-86.19,,,2019407.0
1549375406.171875,-77.27,,,2019727.0
1549375406.1875,-69.65,,,2020852.0
1549375406.203125,-63.24,,,2021939.0
1549375406.21875,-57.6,,,2022413.0
1549375406.234375,-52.06,,,2023796.0
1549375406.25,-46.13,,,2025053.0
1549375406.265625,-39.81,,,2027007.0
1549375406.28125,-33.61,,,2028242.0
1549375406.296875,-28.44,,,2030957.0
1549375406.3125,-25.13,,,2034751.0
1549375406.328125,-24.13,,,2037675.0
1549375406.34375,-25.14,,,2040337.0
1549375406.359375,-27.0,,,2043242.0
1549375406.375,-27.84,,,2042334.0
1549375406.390625,-25.49,,,2037523.0
1549375406.40625,-18.2,,,2033045.0
1549375406.421875,-5.27,,,2029892.0
1549375406.4375,12.4,,,2026368.0
1549375406.453125,32.46,,,2023141.0
1549375406.46875,51.7,,,2020866.0
1549375406.484375,67.06,,,2020215.0
1549375406.5,76.48,,,2019458.0
1549375406.515625,79.46,,,2018623.0
1549375406.53125,76.92,,,2018382.0
1549375406.546875,70.7,,,2018955.0
1549375406.5625,62.87,,,2019660.0
1549375406.578125,55.24,,,2020971.0
1549375406.59375,49.2,,,2022524.0
1549375406.609375,45.9,,,2024358.0
1549375406.625,46.41,,,2027751.0
1549375406.640625,51.7,,,2029805.0
1549375406.65625,62.19,,,2032098.0
1549375406.671875,76.97,,,2034575.0
1549375406.6875,93.3,,,2036967.0
1549375406.703125,106.66,,,2035496.0
1549375406.71875,111.75,,,2030396.0
1549375406.734375,104.29,,,2026233.0
1549375406.75,82.7,,,2023002.0
1549375406.765625,49.04,,,2019933.0
1549375406.78125,8.43,,,2015845.0
1549375406.796875,-32.62,,,2015062.0
1549375406.8125,-68.38,,,2014624.0
1549375406.828125,-95.52,,,2014175.0
1549375406.84375,-113.43,,,2014588.0
1549375406.859375,-123.46,,,2017189.0
1549375406.875,-127.64,,,2015342.0
1549375406.890625,-127.73,,,2016507.0
1549375406.90625,-124.85,,,2018164.0
1549375406.921875,-119.82,,,2019916.0
1549375406.9375,-113.47,,,2021178.0
1549375406.953125,-106.92,,,2023116.0
1549375406.96875,-101.32,,,2025114.0
1549375406.984375,-97.45,,,2027411.0
1549375407.0,-95.47,,,2028884.0
1549375407.015625,-94.86,,,2026698.0
1549375407.03125,-94.71,,,2020486.0
1549375407.046875,-94.34,,,2013047.0
1549375407.0625,-93.67,,,2013959.0
1549375407.078125,-93.34,,,2013642.0
1549375407.09375,-94.34,,,2014134.0
1549375407.109375,-97.25,,,2013651.0
1549375407.125,-101.5,,,2031482.0
1549375407.140625,-105.14,,,2011931.0
1549375407.15625,-105.27,,,2030998.0
1549375407.171875,-99.15,,,2016276.0
1549375407.1875,-85.46,,,2010047.0
1549375407.203125,-64.97,,,2010770.0
1549375407.21875,-40.41,,,2008674.0
1549375407.234375,-15.37,,,2007443.0
1549375407.25,6.99,,,2006199.0
1549375407.265625,25.0,,,2004914.0
1549375407.28125,38.66,,,2004771.0
1549375407.296875,49.07,,,2006403.0
1549375407.3125,57.56,,,2005050.0
1549375407.328125,65.02,,,2008827.0
1549375407.34375,71.62,,,2011102.0
1549375407.359375,77.1,,,2014102.0
1549375407.375,81.12,,,2014731.0
1549375407.390625,83.56,,,2012705.0
1549375407.40625,84.57,,,2010903.0
1549375407.421875,84.42,,,2009955.0
1549375407.4375,83.45,,,2007738.0
1549375407.453125,81.95,,,2005700.0
1549375407.46875,80.13,,,2004426.0
1549375407.484375,78.19,,,2003998.0
1549375407.5,76.27,,,2004060.0
1549375407.515625,74.4,,,2004898.0
1549375407.53125,72.49,,,2006190.0
1549375407.546875,70.43,,,2008460.0
1549375407.5625,68.02,,,2010442.0
1549375407.578125,65.15,,,2015239.0
1549375407.59375,61.73,,,2012687.0
1549375407.609375,57.66,,,2004774.0
1549375407.625,52.88,,,2019800.0
1549375407.640625,47.35,,,2022441.0
1549375407.65625,41.14,,,2017478.0
1549375407.671875,34.39,,,2025160.0
1549375407.6875,27.39,,,2027771.0
1549375407.703125,20.41,,,2029513.0
1549375407.71875,13.72,,,2020888.0
1549375407.734375,7.43,,,2017762.0
1549375407.75,1.55,,,2025099.0
1549375407.765625,-3.96,,,2030231.0
1549375407.78125,-9.16,,,2014837.0
1549375407.796875,-14.06,,,2012144.0
1549375407.8125,-18.72,,,2010692.0
1549375407.828125,-23.26,,,2010278.0
1549375407.84375,-28.03,,,2009300.0
1549375407.859375,-33.46,,,2009566.0
1549375407.875,-39.89,,,2009559.0
1549375407.890625,-47.31,,,2010467.0
1549375407.90625,-55.02,,,2011689.0
1549375407.921875,-61.65,,,2013327.0
1549375407.9375,-65.44,,,2015163.0
1549375407.953125,-64.87,,,2017533.0
1549375407.96875,-59.14,,,2019553.0
1549375407.984375,-48.59,,,2024039.0
1549375408.0,-34.62,,,2021813.0
1549375408.015625,-19.17,,,2026571.0
1549375408.03125,-4.15,,,2029321.0
1549375408.046875,9.08,,,2031473.0
1549375408.0625,19.92,,,2029784.0
1549375408.078125,28.41,,,2024934.0
1549375408.09375,34.94,,,2019733.0
1549375408.109375,39.91,,,2015655.0
1549375408.125,43.59,,,2011382.0
1549375408.140625,46.08,,,2007477.0
1549375408.15625,47.38,,,2005385.0
1549375408.171875,47.51,,,2003829.0
1549375408.1875,46.53,,,2002070.0
1549375408.203125,44.63,,,2001201.0
1549375408.21875,42.18,,,2000873.0
1549375408.234375,39.61,,,2001805.0
1549375408.25,37.34,,,2003248.0
1549375408.265625,35.67,,,2005112.0
1549375408.28125,34.61,,,2007337.0
1549375408.296875,33.95,,,2009334.0
1549375408.3125,33.3,,,2010909.0
1549375408.328125,32.29,,,2012679.0
1549375408.34375,30.71,,,2015210.0
1549375408.359375,28.55,,,2017953.0
1549375408.375,25.96,,,2020797.0
1549375408.390625,23.05,,,2021150.0
1549375408.40625,19.85,,,2017567.0
1549375408.421875,16.21,,,2013652.0
1549375408.4375,11.98,,,2010777.0
1549375408.453125,7.14,,,2008277.0
1549375408.46875,1.91,,,2006221.0
1549375408.484375,-3.28,,,2004848.0
1549375408.5,-8.01,,,2004916.0
1549375408.515625,-12.03,,,2004669.0
1549375408.53125,-15.46,,,2004839.0
1549375408.546875,-18.74,,,2004867.0
1549375408.5625,-22.49,,,2006141.0
1549375408.578125,-27.29,,,2007411.0
1549375408.59375,-33.4,,,2009152.0
1549375408.609375,-40.71,,,2011334.0
1549375408.625,-48.71,,,2013432.0
1549375408.640625,-56.51,,,2015534.0
1549375408.65625,-62.99,,,2017732.0
1549375408.671875,-66.95,,,2019864.0
1549375408.6875,-67.28,,,2022641.0
1549375408.703125,-63.25,,,2025594.0
1549375408.71875,-54.73,,,2028255.0
1549375408.734375,-42.28,,,2028466.0
1549375408.75,-27.05,,,2024382.0
1549375408.765625,-10.52,,,2020547.0
1549375408.78125,5.9,,,2017743.0
1549375408.796875,21.14,,,2015361.0
1549375408.8125,34.66,,,2012839.0
1549375408.828125,46.38,,,2011116.0
1549375408.84375,56.5,,,2011122.0
1549375408.859375,65.29,,,2010948.0
1549375408.875,72.99,,,2010837.0
1549375408.890625,79.72,,,2010982.0
1549375408.90625,85.66,,,2012124.0
1549375408.921875,91.02,,,2013466.0
1549375408.9375,96.06,,,2015026.0
1549375408.953125,101.0,,,2017048.0
1549375408.96875,105.92,,,2019064.0
1549375408.984375,110.73,,,2021166.0
1549375409.0,115.21,,,2023097.0
1549375409.015625,119.11,,,2025416.0
1549375409.03125,122.16,,,2028100.0
1549375409.046875,124.28,,,2030874.0
1549375409.0625,125.57,,,2032314.0
1549375409.078125,126.45,,,2029227.0
1549375409.09375,127.52,,,2024855.0
1549375409.109375,129.15,,,2022231.0
1549375409.125,130.94,,,2019757.0
1549375409.140625,131.21,,,2017487.0
1549375409.15625,126.96,,,2015611.0
1549375409.171875,114.57,,,2015527.0
1549375409.1875,91.08,,,2016304.0
1549375409.203125,55.57,,,2016387.0
1549375409.21875,9.97,,,2018503.0
1549375409.234375,-41.1,,,2021085.0
1549375409.25,-91.57,,,2025089.0
1549375409.265625,-135.72,,,2028949.0
1549375409.28125,-169.62,,,2031592.0
1549375409.296875,-191.89,,,2033686.0
1549375409.3125,-203.4,,,2035670.0
1549375409.328125,-206.47,,,2037754.0
1549375409.34375,-203.88,,,2040011.0
1549375409.359375,-198.28,,,2042124.0
1549375409.375,-191.96,,,2044673.0
1549375409.390625,-186.7,,,2046180.0
1549375409.40625,-183.38,,,2043680.0
1549375409.421875,-181.59,,,2039262.0
1549375409.4375,-179.44,,,2035669.0
1549375409.453125,-173.99,,,2033262.0
1549375409.46875,-162.26,,,2030445.0
1549375409.484375,-142.65,,,2027683.0
1549375409.5,-115.8,,,2027408.0
1549375409.515625,-84.63,,,2027125.0
1549375409.53125,-53.25,,,2026809.0
1549375409.546875,-25.47,,,2026581.0
1549375409.5625,-3.53,,,2026964.0
1549375409.578125,12.39,,,2028356.0
1549375409.59375,23.58,,,2029889.0
1549375409.609375,31.93,,,2031552.0
1549375409.625,38.96,,,2033452.0
1549375409.640625,45.42,,,2035648.0
1549375409.65625,51.43,,,2037722.0
1549375409.671875,56.75,,,2039791.0
1549375409.6875,61.12,,,2042260.0
1549375409.703125,64.37,,,2044885.0
1549375409.71875,66.39,,,2047441.0
1549375409.734375,67.18,,,2048298.0
1549375409.75,66.9,,,2044688.0
1549375409.765625,65.77,,,2040905.0
1549375409.78125,64.19,,,2038306.0
1549375409.796875,62.62,,,2036283.0
1549375409.8125,61.4,,,2033670.0
1549375409.828125,60.7,,,2032547.0
1549375409.84375,60.4,,,2032652.0
1549375409.859375,60.08,,,2032648.0
1549375409.875,59.13,,,2032418.0
1549375409.890625,56.98,,,2032848.0
1549375409.90625,53.26,,,2033568.0
1549375409.921875,47.92,,,2034797.0
1549375409.9375,41.26,,,2036642.0
1549375409.953125,33.73,,,2038349.0
1549375409.96875,25.84,,,2040027.0
1549375409.984375,17.91,,,2041833.0
1549375410.0,10.16,,,2044061.0
1549375410.015625,2.67,,,2046381.0
1549375410.03125,-4.53,,,2048424.0
1549375410.046875,-11.34,,,2050915.0
1549375410.0625,-17.69,,,2050989.0
1549375410.078125,-23.49,,,2046791.0
1549375410.09375,-28.76,,,2042606.0
1549375410.109375,-33.66,,,2040523.0
1549375410.125,-38.47,,,2037981.0
1549375410.140625,-43.55,,,2035923.0
1549375410.15625,-49.32,,,2035136.0
1549375410.171875,-56.03,,,2034746.0
1549375410.1875,-63.53,,,2033964.0
1549375410.203125,-71.07,,,2033229.0
1549375410.21875,-77.19,,,2033620.0
1549375410.234375,-80.15,,,2034509.0
1549375410.25,-78.39,,,2035457.0
1549375410.265625,-71.2,,,2036945.0
1549375410.28125,-59.06,,,2038585.0
1549375410.296875,-43.54,,,2040243.0
1549375410.3125,-26.81,,,2041964.0
1549375410.328125,-10.82,,,2043783.0
1549375410.34375,3.11,,,2045507.0
1549375410.359375,14.59,,,2047615.0
1549375410.375,23.89,,,2047068.0
1549375410.390625,31.55,,,2042154.0
1549375410.40625,38.03,,,2037978.0
1549375410.421875,43.56,,,2034576.0
1549375410.4375,48.09,,,2031217.0
1549375410.453125,51.51,,,2028152.0
1549375410.46875,53.72,,,2026506.0
1549375410.484375,54.82,,,2025951.0
1549375410.5,54.96,,,2025187.0
1549375410.515625,54.43,,,2024714.0
1549375410.53125,53.45,,,2024373.0
1549375410.546875,52.23,,,2024745.0
1549375410.5625,50.95,,,2025597.0
1549375410.578125,49.71,,,2026656.0
1549375410.59375,48.64,,,2027752.0
1549375410.609375,47.76,,,2029572.0
1549375410.625,47.0,,,2030991.0
1549375410.640625,46.15,,,2032916.0
1549375410.65625,44.88,,,2035683.0
1549375410.671875,42.89,,,2038428.0
1549375410.6875,40.01,,,2040581.0
1549375410.703125,36.22,,,2038753.0
1549375410.71875,31.71,,,2033290.0
1549375410.734375,26.68,,,2028695.0
1549375410.75,21.25,,,2024993.0
1549375410.765625,15.48,,,2021058.0
1549375410.78125,9.35,,,2017788.0
1549375410.796875,2.94,,,2015676.0
1549375410.8125,-3.61,,,2014854.0
1549375410.828125,-9.99,,,2014087.0
1549375410.84375,-15.89,,,2013823.0
1549375410.859375,-21.13,,,2013685.0
1549375410.875,-25.76,,,2014337.0
1549375410.890625,-30.11,,,2015289.0
1549375410.90625,-34.66,,,2016740.0
1549375410.921875,-39.96,,,2018348.0
1549375410.9375,-46.41,,,2020002.0
1549375410.953125,-54.09,,,2021767.0
1549375410.96875,-62.57,,,2023668.0
1549375410.984375,-70.81,,,2025835.0
1549375411.0,-77.31,,,2028077.0
1549375411.015625,-80.36,,,2030422.0
1549375411.03125,-78.57,,,2029182.0
1549375411.046875,-71.3,,,2024665.0
1549375411.0625,-59.02,,,2020659.0
1549375411.078125,-43.25,,,2017804.0
1549375411.09375,-26.16,,,2015594.0
1549375411.109375,-9.86,,,2013307.0
1549375411.125,4.2,,,2012299.0
1549375411.140625,15.51,,,2011313.0
1549375411.15625,24.33,,,2010688.0
1549375411.171875,31.32,,,2009937.0
1549375411.1875,36.96,,,2009765.0
1549375411.203125,41.43,,,2010260.0
1549375411.21875,44.62,,,2010981.0
1549375411.234375,46.44,,,2012237.0
1549375411.25,47.0,,,2013721.0
1549375411.265625,46.67,,,2015253.0
1549375411.28125,45.9,,,2017207.0
1549375411.296875,45.03,,,2019104.0
1549375411.3125,44.18,,,2021067.0
1549375411.328125,43.31,,,2023722.0
1549375411.34375,42.37,,,2026140.0
1549375411.359375,41.4,,,2028023.0
1549375411.375,40.51,,,2025704.0
1549375411.390625,39.77,,,2021218.0
1549375411.40625,39.08,,,2017330.0
1549375411.421875,38.21,,,2014576.0
1549375411.4375,36.84,,,2011800.0
1549375411.453125,34.75,,,2009237.0
1549375411.46875,31.92,,,2008429.0
1549375411.484375,28.55,,,2007962.0
1549375411.5,24.86,,,2007092.0
1549375411.515625,21.08,,,2007098.0
1549375411.53125,17.28,,,2007458.0
1549375411.546875,13.37,,,2008449.0
1549375411.5625,9.21,,,2010179.0
1549375411.578125,4.73,,,2011645.0
1549375411.59375,-0.01,,,2015772.0
1549375411.609375,-4.75,,,2013630.0
1549375411.625,-9.17,,,2017556.0
1549375411.640625,-12.91,,,2019898.0
1549375411.65625,-15.76,,,2022047.0
1549375411.671875,-17.77,,,2024814.0
1549375411.6875,-19.27,,,2027616.0
1549375411.703125,-20.81,,,2026761.0
1549375411.71875,-23.04,,,2022268.0
1549375411.734375,-26.37,,,2018886.0
1549375411.75,-30.68,,,2016154.0
1549375411.765625,-35.14,,,2013772.0
1549375411.78125,-38.18,,,2011135.0
1549375411.796875,-37.87,,,2010141.0
1549375411.8125,-32.51,,,2010103.0
1549375411.828125,-21.26,,,2009782.0
1549375411.84375,-4.48,,,2009777.0
1549375411.859375,16.3,,,2010042.0
1549375411.875,38.85,,,2011303.0
1549375411.890625,60.93,,,2012885.0
1549375411.90625,80.86,,,2014844.0
1549375411.921875,97.87,,,2018658.0
1549375411.9375,111.98,,,2016718.0
1549375411.953125,123.79,,,2020063.0
1549375411.96875,134.21,,,2024727.0
1549375411.984375,144.23,,,2027084.0
1549375412.0,154.77,,,2029102.0
1549375412.015625,166.33,,,2027147.0
1549375412.03125,178.65,,,2024637.0
1549375412.046875,190.36,,,2022899.0
1549375412.0625,199.14,,,2020728.0
1549375412.078125,202.29,,,2018654.0
1549375412.09375,197.63,,,2016264.0
1549375412.109375,184.26,,,2016805.0
1549375412.125,162.68,,,2016590.0
1549375412.140625,134.43,,,2016522.0
1549375412.15625,101.39,,,2016563.0
1549375412.171875,65.1,,,2015644.0
1549375412.1875,26.77,,,2014483.0
1549375412.203125,-12.59,,,2014494.0
1549375412.21875,-51.71,,,2022105.0
1549375412.234375,-89.01,,,2015582.0
1549375412.25,-122.76,,,2018496.0
1549375412.265625,-151.51,,,2023939.0
1549375412.28125,-174.3,,,2030232.0
1549375412.296875,-190.77,,,2034087.0
1549375412.3125,-201.03,,,2037665.0
1549375412.328125,-205.55,,,2041298.0
1549375412.34375,-205.08,,,2042488.0
1549375412.359375,-200.67,,,2038265.0
1549375412.375,-193.45,,,2029988.0
1549375412.390625,-184.49,,,2033221.0
1549375412.40625,-174.59,,,2026121.0
1549375412.421875,-164.26,,,2028056.0
1549375412.4375,-153.88,,,2024239.0
1549375412.453125,-143.94,,,2022780.0
1549375412.46875,-135.09,,,2021718.0
1549375412.484375,-128.08,,,2020766.0
1549375412.5,-123.46,,,2020647.0
1549375412.515625,-121.52,,,2027717.0
1549375412.53125,-122.23,,,2020435.0
1549375412.546875,-125.29,,,2021588.0
1549375412.5625,-130.07,,,2022630.0
1549375412.578125,-135.33,,,2024318.0
1549375412.59375,-138.93,,,2026290.0
1549375412.609375,-138.12,,,2028172.0
1549375412.625,-130.16,,,2029968.0
1549375412.640625,-113.57,,,2033627.0
1549375412.65625,-88.9,,,2035650.0
1549375412.671875,-58.97,,,2032139.0
1549375412.6875,-27.95,,,2037650.0
1549375412.703125,0.1,,,2038755.0
1549375412.71875,22.61,,,2035879.0
1549375412.734375,39.1,,,2031178.0
1549375412.75,50.75,,,2027472.0
1549375412.765625,59.39,,,2024638.0
1549375412.78125,66.42,,,2022157.0
1549375412.796875,72.36,,,2020097.0
1549375412.8125,76.98,,,2019533.0
1549375412.828125,79.92,,,2019068.0
1549375412.84375,81.18,,,2018040.0
1549375412.859375,81.21,,,2017455.0
1549375412.875,80.67,,,2017956.0
1549375412.890625,80.04,,,2018883.0
1549375412.90625,79.44,,,2020388.0
1549375412.921875,78.59,,,2021995.0
1549375412.9375,77.1,,,2023761.0
1549375412.953125,74.79,,,2025568.0
1549375412.96875,71.81,,,2027848.0
1549375412.984375,68.59,,,2030179.0
1549375413.0,65.58,,,2032746.0
1549375413.015625,63.0,,,2035283.0
1549375413.03125,60.6,,,2035640.0
1549375413.046875,57.84,,,2032039.0
1549375413.0625,54.09,,,2028603.0
1549375413.078125,49.04,,,2025868.0
1549375413.09375,42.84,,,2023455.0
1549375413.109375,36.05,,,2021178.0
1549375413.125,29.39,,,2020507.0
1549375413.140625,23.37,,,2021109.0
1549375413.15625,18.13,,,2021507.0
1549375413.171875,13.38,,,2021933.0
1549375413.1875,8.65,,,2024079.0
1549375413.203125,3.5,,,2026553.0
1549375413.21875,-2.24,,,2029629.0
1549375413.234375,-8.48,,,2031825.0
1549375413.25,-14.88,,,2033647.0
1549375413.265625,-21.06,,,2035506.0
1549375413.28125,-26.72,,,2036914.0
1549375413.296875,-31.78,,,2039021.0
1549375413.3125,-36.42,,,2041708.0
1549375413.328125,-41.12,,,2044966.0
1549375413.34375,-46.47,,,2047797.0
1549375413.359375,-52.98,,,2048626.0
1549375413.375,-60.74,,,2045046.0
1549375413.390625,-69.13,,,2040402.0
1549375413.40625,-76.75,,,2036763.0
1549375413.421875,-81.74,,,2033222.0
1549375413.4375,-82.28,,,2029760.0
1549375413.453125,-77.28,,,2027460.0
1549375413.46875,-66.84,,,2026417.0
1549375413.484375,-52.21,,,2026160.0
1549375413.5,-35.49,,,2025593.0
1549375413.515625,-18.89,,,2025411.0
1549375413.53125,-4.1,,,2026643.0
1549375413.546875,7.99,,,2027875.0
1549375413.5625,17.34,,,2029494.0
1549375413.578125,24.4,,,2031070.0
1549375413.59375,29.79,,,2033121.0
1549375413.609375,34.03,,,2035287.0
1549375413.625,37.45,,,2037464.0
1549375413.640625,40.11,,,2039656.0
1549375413.65625,42.03,,,2041943.0
1549375413.671875,43.17,,,2044246.0
1549375413.6875,43.52,,,2046715.0
1549375413.703125,43.2,,,2046921.0
1549375413.71875,42.43,,,2042483.0
1549375413.734375,41.49,,,2038211.0
1549375413.75,40.64,,,2035153.0
1549375413.765625,40.08,,,2032321.0
1549375413.78125,39.87,,,2029298.0
1549375413.796875,39.93,,,2027284.0
1549375413.8125,40.03,,,2026884.0
1549375413.828125,39.86,,,2026364.0
1549375413.84375,39.14,,,2026196.0
1549375413.859375,37.68,,,2026291.0
1549375413.875,35.44,,,2027368.0
1549375413.890625,32.5,,,2028664.0
1549375413.90625,29.04,,,2030273.0
1549375413.921875,25.19,,,2031891.0
1549375413.9375,21.01,,,2033419.0
1549375413.953125,16.5,,,2035187.0
1549375413.96875,11.6,,,2037409.0
1549375413.984375,6.33,,,2039848.0
1549375414.0,0.82,,,2041698.0
1549375414.015625,-4.68,,,2042936.0
1549375414.03125,-9.91,,,2039742.0
1549375414.046875,-14.62,,,2035180.0
1549375414.0625,-18.72,,,2032085.0
1549375414.078125,-22.27,,,2029500.0
1549375414.09375,-25.57,,,2027026.0
1549375414.109375,-29.03,,,2025184.0
1549375414.125,-33.16,,,2024679.0
1549375414.140625,-38.39,,,2023720.0
1549375414.15625,-44.86,,,2023249.0
1549375414.171875,-52.24,,,2022812.0
1549375414.1875,-59.48,,,2023288.0
1549375414.203125,-65.02,,,2024418.0
1549375414.21875,-67.07,,,2025870.0
1549375414.234375,-64.2,,,2027135.0
1549375414.25,-55.9,,,2028987.0
1549375414.265625,-42.84,,,2030216.0
1549375414.28125,-26.77,,,2032110.0
1549375414.296875,-9.89,,,2033880.0
1549375414.3125,5.75,,,2035973.0
1549375414.328125,18.82,,,2038262.0
1549375414.34375,28.94,,,2040982.0
1549375414.359375,36.48,,,2040655.0
1549375414.375,42.17,,,2035952.0
1549375414.390625,46.76,,,2031265.0
1549375414.40625,50.75,,,2027566.0
1549375414.421875,54.33,,,2024212.0
1549375414.4375,57.48,,,2020491.0
1549375414.453125,60.0,,,2018338.0
1549375414.46875,61.79,,,2017376.0
1549375414.484375,62.83,,,2016672.0
1549375414.5,63.25,,,2015905.0
1549375414.515625,63.4,,,2015719.0
1549375414.53125,63.69,,,2016370.0
1549375414.546875,64.52,,,2017380.0
1549375414.5625,66.17,,,2018959.0
1549375414.578125,68.69,,,2020478.0
1549375414.59375,71.81,,,2022375.0
1549375414.609375,74.9,,,2024271.0
1549375414.625,77.11,,,2025956.0
1549375414.640625,77.51,,,2028105.0
1549375414.65625,75.38,,,2030530.0
1549375414.671875,70.4,,,2033157.0
1549375414.6875,62.74,,,2035476.0
1549375414.703125,52.94,,,2029039.0
1549375414.71875,41.62,,,2033620.0
1549375414.734375,29.37,,,2024868.0
1549375414.75,16.63,,,2021480.0
1549375414.765625,3.79,,,2018436.0
1549375414.78125,-8.77,,,2015268.0
1549375414.796875,-20.51,,,2013807.0
1549375414.8125,-30.85,,,2013422.0
1549375414.828125,-39.44,,,2012054.0
1549375414.84375,-46.36,,,2012611.0
1549375414.859375,-52.24,,,2012033.0
1549375414.875,-58.12,,,2012530.0
1549375414.890625,-65.16,,,2013804.0
1549375414.90625,-74.22,,,2015095.0
1549375414.921875,-85.68,,,2016447.0
1549375414.9375,-99.31,,,2017777.0
1549375414.953125,-114.26,,,2019419.0
1549375414.96875,-128.99,,,2021142.0
1549375414.984375,-141.19,,,2023224.0
1549375415.0,-148.12,,,2025730.0
1549375415.015625,-147.19,,,2027220.0
1549375415.03125,-136.92,,,2024770.0
1549375415.046875,-117.74,,,2020032.0
1549375415.0625,-92.19,,,2016004.0
1549375415.078125,-64.25,,,2012754.0
1549375415.09375,-38.03,,,2007037.0
1549375415.109375,-16.39,,,2009780.0
1549375415.125,-0.17,,,2006193.0
1549375415.140625,11.56,,,2005285.0
1549375415.15625,20.55,,,2004825.0
1549375415.171875,28.26,,,2004502.0
1549375415.1875,35.24,,,2004975.0
1549375415.203125,41.24,,,2005913.0
1549375415.21875,45.8,,,2007065.0
1549375415.234375,48.72,,,2008587.0
1549375415.25,50.26,,,2010257.0
1549375415.265625,50.82,,,2012112.0
1549375415.28125,50.6,,,2014111.0
1549375415.296875,49.45,,,2016230.0
1549375415.3125,47.02,,,2018608.0
1549375415.328125,43.17,,,2020632.0
1549375415.34375,38.29,,,2022343.0
1549375415.359375,33.36,,,2020223.0
1549375415.375,29.61,,,2015536.0
1549375415.390625,27.88,,,2011473.0
1549375415.40625,28.25,,,2008319.0
1549375415.421875,29.8,,,2004805.0
1549375415.4375,31.04,,,2001757.0
1549375415.453125,30.5,,,2000602.0
1549375415.46875,27.37,,,2000282.0
1549375415.484375,21.79,,,1999984.0
1549375415.5,14.73,,,1999681.0
1549375415.515625,7.48,,,2000124.0
1549375415.53125,1.12,,,2001297.0
1549375415.546875,-3.79,,,2002564.0
1549375415.5625,-7.26,,,2004366.0
1549375415.578125,-9.73,,,2006149.0
1549375415.59375,-11.9,,,2008059.0
1549375415.609375,-14.57,,,2010007.0
1549375415.625,-18.59,,,2012054.0
1549375415.640625,-24.75,,,2014717.0
1549375415.65625,-33.58,,,2016957.0
1549375415.671875,-45.12,,,2019595.0
1549375415.6875,-58.93,,,2020318.0
1549375415.703125,-74.11,,,2016769.0
1549375415.71875,-89.59,,,2012036.0
1549375415.734375,-104.19,,,2008623.0
1549375415.75,-116.71,,,2005790.0
1549375415.765625,-125.8,,,2002371.0
1549375415.78125,-129.98,,,2000354.0
1549375415.796875,-127.89,,,1999877.0
1549375415.8125,-118.87,,,1999508.0
1549375415.828125,-103.43,,,1998910.0
1549375415.84375,-83.43,,,1998933.0
1549375415.859375,-61.65,,,1999862.0
1549375415.875,-41.03,,,2001088.0
1549375415.890625,-23.69,,,2002515.0
1549375415.90625,-10.49,,,2003637.0
1549375415.921875,-0.94,,,2005118.0
1549375415.9375,6.17,,,2006334.0
1549375415.953125,12.24,,,2008009.0
1549375415.96875,18.16,,,2009593.0
1549375415.984375,24.25,,,2011753.0
1549375416.0,30.32,,,2014281.0
1549375416.015625,35.96,,,2016521.0
1549375416.03125,40.82,,,2016182.0
1549375416.046875,44.69,,,2011609.0
1549375416.0625,47.53,,,2007130.0
1549375416.078125,49.32,,,2003960.0
1549375416.09375,50.14,,,2000609.0
1549375416.109375,50.09,,,1997555.0
1549375416.125,49.4,,,1996106.0
1549375416.140625,48.42,,,1995681.0
1549375416.15625,47.54,,,1995185.0
1549375416.171875,47.06,,,1994972.0
1549375416.1875,47.05,,,1994850.0
1549375416.203125,47.29,,,1995476.0
1549375416.21875,47.33,,,1996659.0
1549375416.234375,46.66,,,1997885.0
1549375416.25,44.96,,,1999617.0
1549375416.265625,42.18,,,2012398.0
1549375416.28125,38.56,,,2007190.0
1549375416.296875,34.51,,,2015095.0
1549375416.3125,30.38,,,2016357.0
1549375416.328125,26.32,,,2013673.0
1549375416.34375,22.24,,,2008939.0
1549375416.359375,17.9,,,2005545.0
1549375416.375,13.1,,,2005314.0
1549375416.390625,7.82,,,2001391.0
1549375416.40625,2.24,,,2002552.0
1549375416.421875,-3.32,,,1999211.0
1549375416.4375,-8.58,,,2009521.0
1549375416.453125,-13.45,,,2003127.0
1549375416.46875,-18.08,,,1996905.0
1549375416.484375,-22.84,,,1996264.0
1549375416.5,-28.2,,,1995864.0
1549375416.515625,-34.53,,,1995337.0
1549375416.53125,-41.94,,,1995591.0
1549375416.546875,-50.13,,,1996418.0
1549375416.5625,-58.27,,,1997587.0
1549375416.578125,-65.07,,,1998993.0
1549375416.59375,-69.03,,,2000882.0
1549375416.609375,-68.76,,,2002719.0
1549375416.625,-63.5,,,2004681.0
1549375416.640625,-53.41,,,2006788.0
1549375416.65625,-39.63,,,2009097.0
1549375416.671875,-23.98,,,2011664.0
1549375416.6875,-8.44,,,2013993.0
1549375416.703125,5.39,,,2016876.0
1549375416.71875,16.71,,,2019688.0
1549375416.734375,25.51,,,2022410.0
1549375416.75,32.38,,,2023547.0
1549375416.765625,38.02,,,2019891.0
1549375416.78125,42.92,,,2013043.0
1549375416.796875,47.17,,,2016118.0
1549375416.8125,50.49,,,2010879.0
1549375416.828125,52.51,,,2008183.0
1549375416.84375,53.0,,,2006744.0
1549375416.859375,52.04,,,2006496.0
1549375416.875,50.11,,,2006045.0
1549375416.890625,47.84,,,2006044.0
1549375416.90625,45.81,,,2005956.0
1549375416.921875,44.3,,,2006851.0
1549375416.9375,43.26,,,2008233.0
1549375416.953125,42.4,,,2011653.0
1549375416.96875,41.36,,,2013594.0
1549375416.984375,39.96,,,2009922.0
1549375417.0,38.14,,,2015816.0
1549375417.015625,35.97,,,2022675.0
1549375417.03125,33.44,,,2025735.0
1549375417.046875,30.46,,,2028632.0
1549375417.0625,26.89,,,2030185.0
1549375417.078125,22.63,,,2028123.0
1549375417.09375,17.71,,,2017907.0
1549375417.109375,12.29,,,2020130.0
1549375417.125,6.62,,,2024234.0
1549375417.140625,0.89,,,2020865.0
1549375417.15625,-4.78,,,2018884.0
1549375417.171875,-10.32,,,2014520.0
1549375417.1875,-15.64,,,2016570.0
1549375417.203125,-20.64,,,2014802.0
1549375417.21875,-25.28,,,2014282.0
1549375417.234375,-29.64,,,2014112.0
1549375417.25,-34.02,,,2014310.0
1549375417.265625,-38.81,,,2015264.0
1549375417.28125,-44.43,,,2016313.0
1549375417.296875,-51.05,,,2017955.0
1549375417.3125,-58.46,,,2019475.0
1549375417.328125,-66.01,,,2021275.0
1549375417.34375,-72.53,,,2023431.0
1549375417.359375,-76.64,,,2025846.0
1549375417.375,-77.02,,,2027491.0
1549375417.390625,-72.75,,,2030006.0
1549375417.40625,-63.73,,,2032702.0
1549375417.421875,-50.65,,,2035220.0
1549375417.4375,-34.97,,,2037971.0
1549375417.453125,-18.41,,,2038577.0
1549375417.46875,-2.61,,,2034427.0
1549375417.484375,11.33,,,2029884.0
1549375417.5,22.97,,,2027077.0
1549375417.515625,32.42,,,2024207.0
1549375417.53125,40.11,,,2021125.0
1549375417.546875,46.47,,,2018964.0
1549375417.5625,51.8,,,2018350.0
1549375417.578125,56.21,,,2017958.0
1549375417.59375,59.75,,,2017724.0
1549375417.609375,62.55,,,2017432.0
1549375417.625,64.84,,,2018352.0
1549375417.640625,66.93,,,2019139.0
1549375417.65625,69.06,,,2020488.0
1549375417.671875,71.26,,,2022056.0
1549375417.6875,73.36,,,2023817.0
1549375417.703125,75.07,,,2026052.0
1549375417.71875,76.23,,,2028015.0
1549375417.734375,76.95,,,2030261.0
1549375417.75,77.55,,,2032565.0
1549375417.765625,78.48,,,2035237.0
1549375417.78125,79.99,,,2038058.0
1549375417.796875,81.93,,,2040760.0
1549375417.8125,83.72,,,2040784.0
1549375417.828125,84.49,,,2036507.0
1549375417.84375,83.26,,,2032680.0
1549375417.859375,79.28,,,2029587.0
1549375417.875,72.27,,,2027054.0
1549375417.890625,62.51,,,2024495.0
1549375417.90625,50.92,,,2023040.0
1549375417.921875,38.85,,,2022433.0
1549375417.9375,27.77,,,2022278.0
1549375417.953125,18.76,,,2021346.0
1549375417.96875,12.15,,,2021522.0
1549375417.984375,7.25,,,2022220.0
1549375418.0,2.6,,,2023351.0
1549375418.015625,-3.46,,,2024376.0
1549375418.03125,-12.2,,,2026058.0
1549375418.046875,-24.02,,,2028011.0
1549375418.0625,-38.54,,,2029251.0
1549375418.078125,-54.94,,,2031166.0
1549375418.09375,-72.38,,,2033119.0
1549375418.109375,-90.12,,,2035298.0
1549375418.125,-107.19,,,2037544.0
1549375418.140625,-121.95,,,2038159.0
1549375418.15625,-132.06,,,2034152.0
1549375418.171875,-134.97,,,2029815.0
1549375418.1875,-129.02,,,2026780.0
1549375418.203125,-114.43,,,2024510.0
1549375418.21875,-93.62,,,2022265.0
1549375418.234375,-70.54,,,2021038.0
1549375418.25,-49.26,,,2020880.0
1549375418.265625,-32.5,,,2020001.0
1549375418.28125,-20.82,,,2019633.0
1549375418.296875,-12.94,,,2019670.0
1549375418.3125,-6.72,,,2020588.0
1549375418.328125,-0.41,,,2021861.0
1549375418.34375,6.63,,,2023242.0
1549375418.359375,13.95,,,2025005.0
1549375418.375,20.62,,,2026774.0
1549375418.390625,25.99,,,2028420.0
1549375418.40625,30.09,,,2030112.0
1549375418.421875,33.46,,,2032188.0
1549375418.4375,36.76,,,2034778.0
1549375418.453125,40.3,,,2036946.0
1549375418.46875,43.94,,,2038705.0
1549375418.484375,47.2,,,2035816.0
1549375418.5,49.77,,,2030279.0
1549375418.515625,51.66,,,2026355.0
1549375418.53125,53.2,,,2022764.0
1549375418.546875,54.76,,,2019149.0
1549375418.5625,56.35,,,2015671.0
1549375418.578125,57.55,,,2014111.0
1549375418.59375,57.62,,,2013004.0
1549375418.609375,55.88,,,2012144.0
1549375418.625,52.08,,,2011365.0
1549375418.640625,46.46,,,2011275.0
1549375418.65625,39.58,,,2011916.0
1549375418.671875,31.94,,,2012819.0
1549375418.6875,23.72,,,2013585.0
1549375418.703125,14.69,,,2014873.0
1549375418.71875,4.46,,,2016262.0
1549375418.734375,-7.14,,,2017596.0
1549375418.75,-19.77,,,2019504.0
1549375418.765625,-32.55,,,2021650.0
1549375418.78125,-44.36,,,2023466.0
1549375418.796875,-54.24,,,2025441.0
1549375418.8125,-61.81,,,2023933.0
1549375418.828125,-67.37,,,2018964.0
1549375418.84375,-71.81,,,2014282.0
1549375418.859375,-76.29,,,2010620.0
1549375418.875,-81.9,,,2006784.0
1549375418.890625,-89.31,,,2003082.0
1549375418.90625,-98.44,,,2000723.0
1549375418.921875,-108.35,,,1999960.0
1549375418.9375,-117.12,,,1998906.0
1549375418.953125,-122.32,,,1998126.0
1549375418.96875,-121.62,,,1997584.0
1549375418.984375,-113.62,,,1998067.0
1549375419.0,-98.49,,,1998896.0
1549375419.015625,-78.02,,,1999884.0
1549375419.03125,-55.1,,,2001664.0
1549375419.046875,-32.77,,,2002883.0
1549375419.0625,-13.33,,,2004478.0
1549375419.078125,2.12,,,2006058.0
1549375419.09375,13.65,,,2008284.0
1549375419.109375,21.96,,,2010385.0
1549375419.125,27.88,,,2012249.0
1549375419.140625,31.98,,,2013012.0
1549375419.15625,34.5,,,2009014.0
1549375419.171875,35.56,,,2004021.0
1549375419.1875,35.31,,,2000530.0
1549375419.203125,34.12,,,1997374.0
1549375419.21875,32.44,,,1993916.0
1549375419.234375,30.77,,,1991220.0
1549375419.25,29.42,,,1990762.0
1549375419.265625,28.47,,,1990192.0
1549375419.28125,27.83,,,1989604.0
1549375419.296875,27.38,,,1988647.0
1549375419.3125,27.12,,,1988775.0
1549375419.328125,27.22,,,1988643.0
1549375419.34375,27.91,,,1988261.0
1549375419.359375,29.26,,,1988332.0
1549375419.375,30.97,,,1988284.0
1549375419.390625,32.37,,,1988434.0
1549375419.40625,32.66,,,1989076.0
1549375419.421875,31.22,,,1990308.0
1549375419.4375,27.96,,,1991477.0
1549375419.453125,23.39,,,1992987.0
1549375419.46875,18.4,,,1994547.0
1549375419.484375,13.88,,,1994963.0
1549375419.5,10.29,,,1992885.0
1549375419.515625,7.53,,,1994429.0
1549375419.53125,5.03,,,1996667.0
1549375419.546875,2.06,,,1996267.0
1549375419.5625,-1.9,,,1994459.0
1549375419.578125,-6.93,,,1993551.0
1549375419.59375,-12.73,,,1994004.0
1549375419.609375,-18.8,,,1993994.0
1549375419.625,-24.59,,,1993530.0
1549375419.640625,-29.8,,,1994671.0
1549375419.65625,-34.37,,,1996710.0
1549375419.671875,-38.5,,,1998709.0
1549375419.6875,-42.66,,,2000363.0
1549375419.703125,-47.45,,,2001922.0
1549375419.71875,-53.46,,,2003743.0
1549375419.734375,-61.02,,,2005456.0
1549375419.75,-69.88,,,2007145.0
1549375419.765625,-79.01,,,2008722.0
1549375419.78125,-86.67,,,2010766.0
1549375419.796875,-90.83,,,2013223.0
1549375419.8125,-89.76,,,2015470.0
1549375419.828125,-82.73,,,2017592.0
1549375419.84375,-70.29,,,2015443.0
1549375419.859375,-54.12,,,2010958.0
1549375419.875,-36.46,,,2007368.0
1549375419.890625,-19.34,,,2004449.0
1549375419.90625,-4.11,,,2000785.0
1549375419.921875,8.81,,,1997089.0
1549375419.9375,19.66,,,1994842.0
1549375419.953125,28.99,,,1993975.0
1549375419.96875,37.31,,,1992392.0
1549375419.984375,44.93,,,1991459.0
1549375420.0,51.95,,,1991390.0
1549375420.015625,58.33,,,1992174.0
1549375420.03125,63.98,,,1993218.0
1549375420.046875,68.7,,,1994617.0
1549375420.0625,72.34,,,1996241.0
1549375420.078125,74.77,,,1998616.0
1549375420.09375,76.02,,,2001269.0
1549375420.109375,76.36,,,2004753.0
1549375420.125,76.24,,,2008422.0
1549375420.140625,76.22,,,2011607.0
1549375420.15625,76.74,,,2014336.0
1549375420.171875,78.0,,,2012127.0
1549375420.1875,79.94,,,2008152.0
1549375420.203125,82.23,,,2006045.0
1549375420.21875,84.28,,,2003936.0
1549375420.234375,85.46,,,2001671.0
1549375420.25,85.2,,,2000164.0
1549375420.265625,83.2,,,2000667.0
1549375420.28125,79.55,,,2000716.0
1549375420.296875,74.67,,,2000530.0
1549375420.3125,69.04,,,2001311.0
1549375420.328125,62.8,,,2002747.0
1549375420.34375,55.64,,,2004492.0
1549375420.359375,46.84,,,2006545.0
1549375420.375,35.75,,,2008667.0
1549375420.390625,22.28,,,2010680.0
1549375420.40625,7.23,,,2013111.0
1549375420.421875,-7.71,,,2015409.0
1549375420.4375,-20.56,,,2018505.0
1549375420.453125,-29.69,,,2023182.0
1549375420.46875,-34.54,,,2028124.0
1549375420.484375,-35.86,,,2033393.0
1549375420.5,-35.48,,,2034790.0
1549375420.515625,-35.66,,,2030848.0
1549375420.53125,-38.4,,,2026672.0
1549375420.546875,-44.89,,,2023861.0
1549375420.5625,-55.26,,,2021672.0
1549375420.578125,-68.61,,,2019593.0
1549375420.59375,-83.2,,,2018648.0
1549375420.609375,-96.8,,,2018733.0
1549375420.625,-107.0,,,2018468.0
1549375420.640625,-111.65,,,2017304.0
1549375420.65625,-109.42,,,2017184.0
1549375420.671875,-100.34,,,2017718.0
1549375420.6875,-85.84,,,2018840.0
1549375420.703125,-68.46,,,2020296.0
1549375420.71875,-51.07,,,2021676.0
1549375420.734375,-35.95,,,2023479.0
1549375420.75,-24.19,,,2025153.0
1549375420.765625,-15.78,,,2027581.0
1549375420.78125,-10.06,,,2029796.0
1549375420.796875,-6.4,,,2032491.0
1549375420.8125,-4.53,,,2035381.0
1549375420.828125,-4.49,,,2038447.0
1549375420.84375,-6.26,,,2041459.0
1549375420.859375,-9.39,,,2041328.0
1549375420.875,-13.04,,,2037527.0
1549375420.890625,-16.17,,,2033490.0
1549375420.90625,-17.84,,,2031237.0
1549375420.921875,-17.5,,,2028997.0
1549375420.9375,-15.04,,,2023836.0
1549375420.953125,-10.68,,,2024130.0
1549375420.96875,-4.89,,,2024667.0
1549375420.984375,1.72,,,2024846.0
1549375421.0,8.45,,,2024841.0
1549375421.015625,14.64,,,2024489.0
1549375421.03125,19.79,,,2025928.0
1549375421.046875,23.63,,,2026444.0
1549375421.0625,26.13,,,2027275.0
1549375421.078125,27.39,,,2029427.0
1549375421.09375,27.59,,,2031310.0
1549375421.109375,26.96,,,2033211.0
1549375421.125,25.78,,,2035621.0
1549375421.140625,24.35,,,2037523.0
1549375421.15625,22.96,,,2039692.0
1549375421.171875,21.73,,,2036631.0
1549375421.1875,20.59,,,2038677.0
1549375421.203125,19.29,,,2033676.0
1549375421.21875,17.54,,,2033005.0
1549375421.234375,15.16,,,2041949.0
1549375421.25,12.19,,,2041797.0
1549375421.265625,8.84,,,2043966.0
1549375421.28125,5.36,,,2035285.0
1549375421.296875,1.92,,,2033030.0
1549375421.3125,-1.56,,,2033301.0
1549375421.328125,-5.29,,,2032806.0
1549375421.34375,-9.67,,,2033055.0
1549375421.359375,-15.11,,,2034322.0
1549375421.375,-21.95,,,2035675.0
1549375421.390625,-30.33,,,2037755.0
1549375421.40625,-40.01,,,2039955.0
1549375421.421875,-50.21,,,2042754.0
1549375421.4375,-59.56,,,2045334.0
1549375421.453125,-66.34,,,2047895.0
1549375421.46875,-68.87,,,2050743.0
1549375421.484375,-66.01,,,2053772.0
1549375421.5,-57.64,,,2056714.0
1549375421.515625,-44.7,,,2059545.0
1549375421.53125,-28.96,,,2058469.0
1549375421.546875,-12.45,,,2053731.0
1549375421.5625,3.06,,,2037653.0
1549375421.578125,16.51,,,2047008.0
1549375421.59375,27.58,,,2038822.0
1549375421.609375,36.46,,,2039242.0
1549375421.625,43.64,,,2049581.0
1549375421.640625,49.56,,,2043568.0
1549375421.65625,54.52,,,2037990.0
1549375421.671875,58.64,,,2040712.0
1549375421.6875,62.01,,,2037592.0
1549375421.703125,64.69,,,2038411.0
1549375421.71875,66.76,,,2039946.0
1549375421.734375,68.28,,,2041720.0
1549375421.75,69.13,,,2043553.0
1549375421.765625,69.07,,,2045429.0
1549375421.78125,67.72,,,2047448.0
1549375421.796875,64.78,,,2049299.0
1549375421.8125,60.23,,,2052049.0
1549375421.828125,54.49,,,2054746.0
1549375421.84375,48.27,,,2057454.0
1549375421.859375,42.37,,,2057529.0
1549375421.875,37.33,,,2052963.0
1549375421.890625,33.26,,,2048079.0
1549375421.90625,29.76,,,2043612.0
1549375421.921875,26.23,,,2035201.0
1549375421.9375,22.13,,,2039255.0
1549375421.953125,17.24,,,2031976.0
1549375421.96875,11.72,,,2030985.0
1549375421.984375,5.98,,,2029159.0
1549375422.0,0.51,,,2027558.0
1549375422.015625,-4.28,,,2027779.0
1549375422.03125,-8.22,,,2028477.0
1549375422.046875,-11.37,,,2030772.0
1549375422.0625,-14.03,,,2034365.0
1549375422.078125,-16.6,,,2038178.0
1549375422.09375,-19.47,,,2041755.0
1549375422.109375,-22.82,,,2044093.0
1549375422.125,-26.59,,,2048216.0
1549375422.140625,-30.45,,,2050474.0
1549375422.15625,-33.92,,,2053094.0
1549375422.171875,-36.61,,,2046319.0
1549375422.1875,-38.42,,,2052841.0
1549375422.203125,-39.71,,,2047667.0
1549375422.21875,-41.25,,,2055069.0
1549375422.234375,-43.95,,,2043425.0
1549375422.25,-48.43,,,2039672.0
