timestamp,bvp,eda,temp,PPG GREEN
1596631421.59375,169.08,0.524173,33.25,2324179.0
1596631421.609375,170.14,0.552354,33.25,2323064.0
1596631421.625,167.21,0.60103,33.23,2322263.0
1596631421.640625,160.57,0.581816,33.23,2321112.0
1596631421.65625,150.89,0.585659,33.23,2320615.0
1596631421.671875,139.53,0.579254,33.23,2320151.0
1596631421.6875,128.38,0.57413,33.37,2319033.0
1596631421.703125,119.36,0.576692,33.37,2318939.0
1596631421.71875,113.87,0.580535,33.37,2317890.0
1596631421.734375,112.49,0.579254,33.37,2318076.0
1596631421.75,115.01,0.584378,33.34,2317267.0
1596631421.765625,120.57,0.579254,33.34,2317082.0
1596631421.78125,127.83,0.575411,33.34,2317335.0
1596631421.796875,135.17,0.576692,33.34,2316225.0
1596631421.8125,141.07,0.569007,33.57,2316993.0
1596631421.828125,144.6,0.556197,33.57,2317147.0
1596631421.84375,145.79,0.557478,33.57,2316646.0
1596631421.859375,145.54,0.558759,33.57,2317497.0
1596631421.875,145.1,0.561321,33.5,2317561.0
1596631421.890625,145.28,0.562602,33.5,2318313.0
1596631421.90625,145.92,0.558759,33.5,2318962.0
1596631421.921875,146.05,0.558759,33.5,2317970.0
1596631421.9375,144.58,0.557478,33.43,2318704.0
1596631421.953125,141.1,0.554916,33.43,2318973.0
1596631421.96875,136.26,0.554916,33.43,2318903.0
1596631421.984375,131.41,0.554916,33.43,2318029.0
1596631422.0,127.81,0.557478,33.39,2316418.0
1596631422.015625,125.93,0.563883,33.39,2315738.0
1596631422.03125,125.22,0.563883,33.39,2317228.0
1596631422.046875,124.63,0.56004,33.39,2314270.0
1596631422.0625,123.21,0.565164,33.34,2314688.0
1596631422.078125,120.59,0.56004,33.34,2313269.0
1596631422.09375,116.82,0.558759,33.34,2312333.0
1596631422.109375,111.95,0.558759,33.34,2312961.0
1596631422.125,105.73,0.563883,33.33,2311029.0
1596631422.140625,97.78,0.565164,33.33,2311547.0
1596631422.15625,88.13,0.563883,33.33,2310800.0
1596631422.171875,77.68,0.562602,33.33,2311021.0
1596631422.1875,68.02,0.571568,33.33,2311019.0
1596631422.203125,60.62,0.562602,33.33,2310380.0
1596631422.21875,55.73,0.558759,33.33,2310792.0
1596631422.234375,51.94,0.56004,33.33,2310708.0
1596631422.25,46.7,0.558759,33.31,2310852.0
1596631422.265625,37.6,0.563883,33.31,2310851.0
1596631422.28125,23.82,0.565164,33.31,2311598.0
1596631422.296875,6.66,0.565164,33.31,2311977.0
1596631422.3125,-10.96,0.565164,33.31,2312380.0
1596631422.328125,-25.92,0.562602,33.31,2312553.0
1596631422.34375,-36.24,0.563883,33.31,2312460.0
1596631422.359375,-41.75,0.563883,33.31,2311823.0
1596631422.375,-43.75,0.566445,33.27,2311146.0
1596631422.390625,-44.08,0.571568,33.27,2310110.0
1596631422.40625,-44.27,0.575411,33.27,2308998.0
1596631422.421875,-45.02,0.57413,33.27,2307915.0
1596631422.4375,-46.3,0.570287,33.31,2306909.0
1596631422.453125,-47.73,0.569007,33.31,2306559.0
1596631422.46875,-48.86,0.570287,33.31,2305629.0
1596631422.484375,-49.35,0.575411,33.31,2304747.0
1596631422.5,-48.87,0.57413,33.31,2303978.0
1596631422.515625,-47.02,0.576692,33.31,2303593.0
1596631422.53125,-43.29,0.577973,33.31,2302898.0
1596631422.546875,-37.24,0.576692,33.31,2302441.0
1596631422.5625,-28.67,0.575411,33.31,2302205.0
1596631422.578125,-17.74,0.571568,33.31,2302171.0
1596631422.59375,-5.02,0.572849,33.31,2302119.0
1596631422.609375,8.57,0.570287,33.31,2302161.0
1596631422.625,21.87,0.575411,33.31,2302122.0
1596631422.640625,33.63,0.575411,33.31,2302357.0
1596631422.65625,42.74,0.576692,33.31,2302785.0
1596631422.671875,48.5,0.577973,33.31,2302798.0
1596631422.6875,50.74,0.57413,33.27,2302931.0
1596631422.703125,49.87,0.569007,33.27,2303554.0
1596631422.71875,46.79,0.572849,33.27,2303710.0
1596631422.734375,42.56,0.57413,33.27,2303906.0
1596631422.75,38.19,0.580535,33.29,2302902.0
1596631422.765625,34.48,0.57413,33.29,2301007.0
1596631422.78125,31.91,0.575411,33.29,2302120.0
1596631422.796875,30.63,0.57413,33.29,2297809.0
1596631422.8125,30.31,0.57413,33.29,2299545.0
1596631422.828125,30.26,0.570287,33.29,2293973.0
1596631422.84375,29.39,0.570287,33.29,2296457.0
1596631422.859375,26.61,0.566445,33.29,2293350.0
1596631422.875,21.13,0.572849,33.29,2291997.0
1596631422.890625,12.8,0.571568,33.29,2291662.0
1596631422.90625,2.1,0.570287,33.29,2292962.0
1596631422.921875,-10.23,0.567726,33.29,2292548.0
1596631422.9375,-23.75,0.570287,33.29,2292339.0
1596631422.953125,-38.76,0.565164,33.29,2292652.0
1596631422.96875,-56.36,0.565164,33.29,2292750.0
1596631422.984375,-78.08,0.566445,33.29,2293112.0
1596631423.0,-105.39,0.566445,33.27,2293392.0
1596631423.015625,-139.46,0.565164,33.27,2293633.0
1596631423.03125,-181.41,0.567726,33.27,2293492.0
1596631423.046875,-232.34,0.570287,33.27,2293613.0
1596631423.0625,-292.98,0.567726,33.27,2293875.0
1596631423.078125,-362.39,0.562602,33.27,2294116.0
1596631423.09375,-436.65,0.565164,33.27,2294083.0
1596631423.109375,-508.44,0.562602,33.27,2294418.0
1596631423.125,-568.31,0.567726,33.27,2294318.0
1596631423.140625,-607.39,0.570287,33.27,2294005.0
1596631423.15625,-620.35,0.567726,33.27,2292783.0
1596631423.171875,-606.96,0.566445,33.27,2291494.0
1596631423.1875,-571.22,0.563883,33.27,2290472.0
1596631423.203125,-518.87,0.562602,33.27,2289005.0
1596631423.21875,-454.78,0.567726,33.27,2287932.0
1596631423.234375,-382.21,0.565164,33.27,2287133.0
1596631423.25,-304.3,0.563883,33.25,2286126.0
1596631423.265625,-226.32,0.569007,33.25,2285798.0
1596631423.28125,-156.67,0.567726,33.25,2285092.0
1596631423.296875,-105.11,0.570287,33.25,2285636.0
1596631423.3125,-78.86,0.563883,33.23,2285810.0
1596631423.328125,-78.82,0.562602,33.23,2286670.0
1596631423.34375,-98.06,0.563883,33.23,2287407.0
1596631423.359375,-124.3,0.565164,33.23,2288589.0
1596631423.375,-145.04,0.569007,33.25,2290580.0
1596631423.390625,-152.33,0.57413,33.25,2292044.0
1596631423.40625,-145.31,0.570287,33.25,2293447.0
1596631423.421875,-129.12,0.57413,33.25,2294204.0
1596631423.4375,-111.28,0.567726,33.25,2294858.0
1596631423.453125,-97.91,0.565164,33.25,2294805.0
1596631423.46875,-92.1,0.563883,33.25,2294831.0
1596631423.484375,-94.63,0.565164,33.25,2295745.0
1596631423.5,-105.72,0.566445,33.23,2295810.0
1596631423.515625,-125.89,0.569007,33.23,2295531.0
1596631423.53125,-154.99,0.567726,33.23,2295123.0
1596631423.546875,-190.09,0.563883,33.23,2294130.0
1596631423.5625,-224.22,0.563883,33.25,2293375.0
1596631423.578125,-247.25,0.565164,33.25,2292500.0
1596631423.59375,-249.12,0.562602,33.25,2291713.0
1596631423.609375,-223.81,0.569007,33.25,2291169.0
1596631423.625,-171.84,0.569007,33.25,2290978.0
1596631423.640625,-100.27,0.570287,33.25,2290063.0
1596631423.65625,-20.22,0.569007,33.25,2288995.0
1596631423.671875,56.71,0.565164,33.25,2288321.0
1596631423.6875,121.33,0.563883,33.23,2287698.0
1596631423.703125,168.44,0.562602,33.23,2286890.0
1596631423.71875,196.81,0.562602,33.23,2286269.0
1596631423.734375,208.46,0.569007,33.23,2285655.0
1596631423.75,207.62,0.570287,33.23,2285510.0
1596631423.765625,199.57,0.570287,33.23,2285874.0
1596631423.78125,189.5,0.570287,33.23,2285523.0
1596631423.796875,181.39,0.563883,33.23,2285721.0
1596631423.8125,177.24,0.563883,33.23,2287921.0
1596631423.828125,176.82,0.562602,33.23,2290741.0
1596631423.84375,178.4,0.561321,33.23,2291954.0
1596631423.859375,179.79,0.563883,33.23,2292140.0
1596631423.875,179.12,0.565164,33.23,2292341.0
1596631423.890625,175.54,0.566445,33.23,2290889.0
1596631423.90625,169.34,0.572849,33.23,2292014.0
1596631423.921875,161.62,0.563883,33.23,2289606.0
1596631423.9375,153.84,0.562602,33.21,2288688.0
1596631423.953125,147.28,0.562602,33.21,2286759.0
1596631423.96875,142.54,0.562602,33.21,2286013.0
1596631423.984375,139.43,0.569007,33.21,2287584.0
1596631424.0,137.12,0.569007,33.21,2285530.0
1596631424.015625,134.64,0.569007,33.21,2284589.0
1596631424.03125,131.32,0.569007,33.21,2284000.0
1596631424.046875,126.89,0.565164,33.21,2283271.0
1596631424.0625,121.48,0.562602,33.23,2282411.0
1596631424.078125,115.3,0.562602,33.23,2281790.0
1596631424.09375,108.49,0.566445,33.23,2281485.0
1596631424.109375,101.11,0.566445,33.23,2281287.0
1596631424.125,93.27,0.566445,33.21,2281416.0
1596631424.140625,85.2,0.567726,33.21,2281169.0
1596631424.15625,77.24,0.567726,33.21,2281468.0
1596631424.171875,69.74,0.566445,33.21,2281338.0
1596631424.1875,62.86,0.563883,33.21,2281511.0
1596631424.203125,56.58,0.563883,33.21,2281905.0
1596631424.21875,50.69,0.563883,33.21,2282373.0
1596631424.234375,44.94,0.563883,33.21,2282259.0
1596631424.25,39.23,0.566445,33.21,2282727.0
1596631424.265625,33.65,0.566445,33.21,2281723.0
1596631424.28125,28.46,0.563883,33.21,2280679.0
1596631424.296875,23.95,0.562602,33.21,2280961.0
1596631424.3125,20.33,0.565164,33.21,2279560.0
1596631424.328125,17.54,0.565164,33.21,2278787.0
1596631424.34375,15.22,0.571568,33.21,2278202.0
1596631424.359375,12.79,0.571568,33.21,2278031.0
1596631424.375,9.7,0.571568,33.16,2276609.0
1596631424.390625,5.65,0.569007,33.16,2277397.0
1596631424.40625,0.81,0.565164,33.16,2276366.0
1596631424.421875,-4.24,0.566445,33.16,2275700.0
1596631424.4375,-8.72,0.565164,33.16,2275631.0
1596631424.453125,-12.06,0.565164,33.16,2275650.0
1596631424.46875,-14.08,0.570287,33.16,2275254.0
1596631424.484375,-15.1,0.57413,33.16,2275439.0
1596631424.5,-15.77,0.576692,33.21,2275371.0
1596631424.515625,-16.75,0.576692,33.21,2275571.0
1596631424.53125,-18.51,0.576692,33.21,2275476.0
1596631424.546875,-21.14,0.57413,33.21,2275554.0
1596631424.5625,-24.42,0.577973,33.16,2275994.0
1596631424.578125,-27.94,0.576692,33.16,2276267.0
1596631424.59375,-31.31,0.579254,33.16,2276816.0
1596631424.609375,-34.29,0.585659,33.16,2277107.0
1596631424.625,-36.86,0.589502,33.18,2276174.0
1596631424.640625,-39.17,0.590783,33.18,2275897.0
1596631424.65625,-41.45,0.585659,33.18,2275162.0
1596631424.671875,-43.93,0.585659,33.18,2274301.0
1596631424.6875,-46.76,0.585659,33.16,2273747.0
1596631424.703125,-50.01,0.58694,33.16,2272823.0
1596631424.71875,-53.63,0.58694,33.16,2272012.0
1596631424.734375,-57.49,0.588221,33.16,2271684.0
1596631424.75,-61.39,0.590783,33.16,2271251.0
1596631424.765625,-64.99,0.588221,33.16,2270547.0
1596631424.78125,-68.03,0.58694,33.16,2270205.0
1596631424.796875,-70.32,0.588221,33.16,2269770.0
1596631424.8125,-72.02,0.593345,33.16,2269821.0
1596631424.828125,-73.59,0.588221,33.16,2270002.0
1596631424.84375,-75.67,0.594625,33.16,2270083.0
1596631424.859375,-78.79,0.592064,33.16,2270845.0
1596631424.875,-82.99,0.593345,33.15,2271778.0
1596631424.890625,-87.67,0.592064,33.15,2271289.0
1596631424.90625,-91.69,0.592064,33.15,2272581.0
1596631424.921875,-93.72,0.588221,33.15,2273449.0
1596631424.9375,-92.76,0.585659,33.15,2274027.0
1596631424.953125,-88.51,0.585659,33.15,2274618.0
1596631424.96875,-81.45,0.588221,33.15,2275434.0
1596631424.984375,-72.71,0.590783,33.15,2276232.0
1596631425.0,-63.59,0.589502,33.13,2276744.0
1596631425.015625,-55.27,0.590783,33.13,2276772.0
1596631425.03125,-48.51,0.585659,33.13,2276643.0
1596631425.046875,-43.68,0.585659,33.13,2276419.0
1596631425.0625,-40.87,0.585659,33.15,2275653.0
1596631425.078125,-39.98,0.585659,33.15,2275286.0
1596631425.09375,-40.82,0.588221,33.15,2275027.0
1596631425.109375,-43.06,0.589502,33.15,2274462.0
1596631425.125,-46.1,0.588221,33.15,2274327.0
1596631425.140625,-49.13,0.58694,33.15,2273730.0
1596631425.15625,-51.2,0.58694,33.15,2273516.0
1596631425.171875,-51.49,0.581816,33.15,2273235.0
1596631425.1875,-49.43,0.580535,33.13,2273265.0
1596631425.203125,-44.89,0.579254,33.13,2273472.0
1596631425.21875,-38.12,0.585659,33.13,2273413.0
1596631425.234375,-29.62,0.584378,33.13,2273745.0
1596631425.25,-20.04,0.58694,33.13,2274189.0
1596631425.265625,-10.04,0.58694,33.13,2273976.0
1596631425.28125,-0.15,0.585659,33.13,2274471.0
1596631425.296875,9.26,0.580535,33.13,2275184.0
1596631425.3125,18.0,0.580535,33.15,2274802.0
1596631425.328125,26.05,0.581816,33.15,2275501.0
1596631425.34375,33.52,0.583097,33.15,2275822.0
1596631425.359375,40.49,0.58694,33.15,2276349.0
1596631425.375,46.92,0.585659,33.11,2276731.0
1596631425.390625,52.61,0.584378,33.11,2276220.0
1596631425.40625,57.26,0.580535,33.11,2275900.0
1596631425.421875,60.66,0.580535,33.11,2277369.0
1596631425.4375,62.82,0.581816,33.15,2278941.0
1596631425.453125,64.01,0.577973,33.15,2279644.0
1596631425.46875,64.68,0.580535,33.15,2278445.0
1596631425.484375,65.24,0.583097,33.15,2278333.0
1596631425.5,65.9,0.583097,33.11,2278626.0
1596631425.515625,66.56,0.583097,33.11,2278124.0
1596631425.53125,66.91,0.577973,33.11,2278567.0
1596631425.546875,66.6,0.576692,33.11,2277897.0
1596631425.5625,65.46,0.576692,33.11,2277715.0
1596631425.578125,63.56,0.575411,33.11,2278002.0
1596631425.59375,61.2,0.581816,33.11,2277559.0
1596631425.609375,58.74,0.580535,33.11,2277125.0
1596631425.625,56.48,0.581816,33.11,2277357.0
1596631425.640625,54.47,0.579254,33.11,2277262.0
1596631425.65625,52.58,0.575411,33.11,2277742.0
1596631425.671875,50.48,0.576692,33.11,2277456.0
1596631425.6875,47.83,0.579254,33.09,2278042.0
1596631425.703125,44.38,0.57413,33.09,2277649.0
1596631425.71875,40.15,0.581816,33.09,2278225.0
1596631425.734375,35.4,0.581816,33.09,2278085.0
1596631425.75,30.59,0.58694,33.11,2278889.0
1596631425.765625,26.2,0.583097,33.11,2279152.0
1596631425.78125,22.45,0.579254,33.11,2279375.0
1596631425.796875,19.19,0.576692,33.11,2279477.0
1596631425.8125,15.92,0.575411,33.11,2279614.0
1596631425.828125,11.99,0.575411,33.11,2279612.0
1596631425.84375,6.84,0.577973,33.11,2279115.0
1596631425.859375,0.23,0.580535,33.11,2278402.0
1596631425.875,-7.57,0.581816,33.09,2278153.0
1596631425.890625,-15.79,0.581816,33.09,2277858.0
1596631425.90625,-23.27,0.579254,33.09,2277849.0
1596631425.921875,-28.67,0.577973,33.09,2277681.0
1596631425.9375,-30.85,0.572849,33.11,2277949.0
1596631425.953125,-29.17,0.572849,33.11,2278087.0
1596631425.96875,-23.8,0.577973,33.11,2278635.0
1596631425.984375,-15.71,0.575411,33.11,2278606.0
1596631426.0,-6.4,0.577973,33.09,2278831.0
1596631426.015625,2.54,0.579254,33.09,2279511.0
1596631426.03125,9.9,0.576692,33.09,2279520.0
1596631426.046875,15.15,0.576692,33.09,2280068.0
1596631426.0625,18.4,0.57413,33.09,2280289.0
1596631426.078125,20.12,0.575411,33.09,2280717.0
1596631426.09375,20.89,0.571568,33.09,2280599.0
1596631426.109375,21.13,0.575411,33.09,2280985.0
1596631426.125,21.17,0.576692,33.07,2281010.0
1596631426.140625,21.25,0.577973,33.07,2280868.0
1596631426.15625,21.58,0.576692,33.07,2280726.0
1596631426.171875,22.34,0.575411,33.07,2279584.0
1596631426.1875,23.55,0.57413,33.07,2279080.0
1596631426.203125,25.05,0.57413,33.07,2278045.0
1596631426.21875,26.5,0.576692,33.07,2277956.0
1596631426.234375,27.53,0.576692,33.07,2277323.0
1596631426.25,27.92,0.575411,33.09,2277253.0
1596631426.265625,27.8,0.575411,33.09,2276627.0
1596631426.28125,27.63,0.583097,33.09,2276414.0
1596631426.296875,28.08,0.576692,33.09,2275923.0
1596631426.3125,29.75,0.579254,33.09,2275778.0
1596631426.328125,32.89,0.572849,33.09,2276132.0
1596631426.34375,37.23,0.576692,33.09,2275886.0
1596631426.359375,42.02,0.579254,33.09,2275964.0
1596631426.375,46.32,0.585659,33.07,2275972.0
1596631426.390625,49.33,0.592064,33.07,2276983.0
1596631426.40625,50.66,0.593345,33.07,2277155.0
1596631426.421875,50.41,0.594625,33.07,2277560.0
1596631426.4375,49.03,0.595906,33.07,2276652.0
1596631426.453125,47.11,0.593345,33.07,2277832.0
1596631426.46875,45.1,0.592064,33.07,2278513.0
1596631426.484375,43.2,0.595906,33.07,2278638.0
1596631426.5,41.32,0.60103,33.09,2279211.0
1596631426.515625,39.22,0.599749,33.09,2279369.0
1596631426.53125,36.67,0.604873,33.09,2279349.0
1596631426.546875,33.56,0.607435,33.09,2278822.0
1596631426.5625,30.01,0.606154,33.09,2277790.0
1596631426.578125,26.26,0.599749,33.09,2277285.0
1596631426.59375,22.61,0.606154,33.09,2276911.0
1596631426.609375,19.19,0.599749,33.09,2276373.0
1596631426.625,15.95,0.602311,33.11,2275850.0
1596631426.640625,12.72,0.602311,33.11,2275154.0
1596631426.65625,9.28,0.604873,33.11,2275232.0
1596631426.671875,5.55,0.609997,33.11,2274828.0
1596631426.6875,1.61,0.606154,33.11,2274766.0
1596631426.703125,-2.37,0.606154,33.11,2274176.0
1596631426.71875,-6.15,0.599749,33.11,2274184.0
1596631426.734375,-9.58,0.599749,33.11,2275492.0
1596631426.75,-12.55,0.604873,33.09,2273879.0
1596631426.765625,-15.05,0.604873,33.09,2273802.0
1596631426.78125,-17.13,0.608716,33.09,2273943.0
1596631426.796875,-18.97,0.612559,33.09,2274143.0
1596631426.8125,-20.85,0.611278,33.11,2274075.0
1596631426.828125,-23.19,0.608716,33.11,2274351.0
1596631426.84375,-26.38,0.602311,33.11,2274487.0
1596631426.859375,-30.59,0.602311,33.11,2274160.0
1596631426.875,-35.57,0.602311,33.09,2275178.0
1596631426.890625,-40.59,0.602311,33.09,2274945.0
1596631426.90625,-44.52,0.604873,33.09,2275276.0
1596631426.921875,-46.2,0.603592,33.09,2274693.0
1596631426.9375,-44.77,0.606154,33.09,2274596.0
1596631426.953125,-40.04,0.604873,33.09,2274133.0
1596631426.96875,-32.57,0.60103,33.09,2273093.0
1596631426.984375,-23.48,0.597187,33.09,2272472.0
1596631427.0,-14.11,0.60103,33.09,2271727.0
1596631427.015625,-5.62,0.597187,33.09,2271522.0
1596631427.03125,1.3,0.60103,33.09,2270417.0
1596631427.046875,6.49,0.60103,33.09,2270096.0
1596631427.0625,10.19,0.60103,33.09,2271085.0
1596631427.078125,12.8,0.594625,33.09,2269716.0
1596631427.09375,14.72,0.593345,33.09,2269210.0
1596631427.109375,16.2,0.590783,33.09,2269724.0
1596631427.125,17.4,0.592064,33.07,2269857.0
1596631427.140625,18.46,0.595906,33.07,2269703.0
1596631427.15625,19.51,0.594625,33.07,2270025.0
1596631427.171875,20.56,0.594625,33.07,2269709.0
1596631427.1875,21.64,0.593345,33.09,2270751.0
1596631427.203125,22.67,0.594625,33.09,2271065.0
1596631427.21875,23.56,0.593345,33.09,2270442.0
1596631427.234375,24.28,0.593345,33.09,2271507.0
1596631427.25,24.86,0.590783,33.07,2271541.0
1596631427.265625,25.36,0.593345,33.07,2272109.0
1596631427.28125,25.84,0.595906,33.07,2272321.0
1596631427.296875,26.32,0.598468,33.07,2271994.0
1596631427.3125,26.77,0.597187,33.07,2270503.0
1596631427.328125,27.17,0.597187,33.07,2269786.0
1596631427.34375,27.5,0.598468,33.07,2271429.0
1596631427.359375,27.72,0.593345,33.07,2268954.0
1596631427.375,27.78,0.598468,33.07,2268146.0
1596631427.390625,27.52,0.593345,33.07,2267080.0
1596631427.40625,26.81,0.593345,33.07,2265961.0
1596631427.421875,25.59,0.599749,33.07,2266477.0
1596631427.4375,23.94,0.598468,33.07,2265244.0
1596631427.453125,22.03,0.598468,33.07,2264642.0
1596631427.46875,20.06,0.593345,33.07,2264453.0
1596631427.484375,18.12,0.593345,33.07,2264137.0
1596631427.5,16.17,0.593345,33.07,2263632.0
1596631427.515625,14.17,0.595906,33.07,2263971.0
1596631427.53125,12.15,0.598468,33.07,2263528.0
1596631427.546875,10.28,0.598468,33.07,2263494.0
1596631427.5625,8.7,0.602311,33.07,2263747.0
1596631427.578125,7.47,0.603592,33.07,2264041.0
1596631427.59375,6.42,0.599749,33.07,2264602.0
1596631427.609375,5.27,0.604873,33.07,2264558.0
1596631427.625,3.76,0.615121,33.09,2265141.0
1596631427.640625,1.79,0.621525,33.09,2265587.0
1596631427.65625,-0.43,0.631773,33.09,2266036.0
1596631427.671875,-2.61,0.638178,33.09,2266387.0
1596631427.6875,-4.52,0.639459,33.07,2266351.0
1596631427.703125,-6.15,0.643301,33.07,2265979.0
1596631427.71875,-7.75,0.64202,33.07,2264854.0
1596631427.734375,-9.72,0.652268,33.07,2264107.0
1596631427.75,-12.45,0.648425,33.07,2263056.0
1596631427.765625,-16.16,0.649706,33.07,2261936.0
1596631427.78125,-20.77,0.652268,33.07,2260930.0
1596631427.796875,-25.92,0.653549,33.07,2260348.0
1596631427.8125,-30.95,0.65483,33.07,2259689.0
1596631427.828125,-34.98,0.656111,33.07,2258976.0
1596631427.84375,-37.11,0.65483,33.07,2258314.0
1596631427.859375,-36.66,0.658673,33.07,2259143.0
1596631427.875,-33.41,0.662516,33.07,2262979.0
1596631427.890625,-27.65,0.658673,33.07,2269297.0
1596631427.90625,-20.2,0.656111,33.07,2274310.0
1596631427.921875,-12.09,0.659954,33.07,2276987.0
1596631427.9375,-4.31,0.659954,33.07,2277186.0
1596631427.953125,2.37,0.656111,33.07,2275056.0
1596631427.96875,7.65,0.65483,33.07,2273448.0
1596631427.984375,11.52,0.649706,33.07,2271982.0
1596631428.0,14.24,0.648425,33.05,2270876.0
1596631428.015625,16.17,0.645863,33.05,2270438.0
1596631428.03125,17.65,0.645863,33.05,2270019.0
1596631428.046875,18.87,0.648425,33.05,2269696.0
1596631428.0625,19.9,0.649706,33.05,2270175.0
1596631428.078125,20.65,0.648425,33.05,2270426.0
1596631428.09375,20.99,0.648425,33.05,2270753.0
1596631428.109375,20.9,0.644582,33.05,2270343.0
1596631428.125,20.47,0.650987,33.03,2269588.0
1596631428.140625,19.93,0.650987,33.03,2268304.0
1596631428.15625,19.57,0.657392,33.03,2267540.0
1596631428.171875,19.53,0.666358,33.03,2266126.0
1596631428.1875,19.79,0.670201,33.05,2265254.0
1596631428.203125,20.18,0.670201,33.05,2264434.0
1596631428.21875,20.54,0.670201,33.05,2263571.0
1596631428.234375,20.81,0.665077,33.05,2263059.0
1596631428.25,21.08,0.667639,33.07,2262325.0
1596631428.265625,21.46,0.663796,33.07,2261253.0
1596631428.28125,21.94,0.659954,33.07,2260541.0
1596631428.296875,22.34,0.661235,33.07,2260091.0
1596631428.3125,22.41,0.661235,33.05,2259821.0
1596631428.328125,21.91,0.658673,33.05,2259771.0
1596631428.34375,20.79,0.656111,33.05,2259854.0
1596631428.359375,19.18,0.650987,33.05,2259783.0
1596631428.375,17.34,0.650987,33.07,2259911.0
1596631428.390625,15.44,0.647144,33.07,2259972.0
1596631428.40625,13.56,0.647144,33.07,2260423.0
1596631428.421875,11.7,0.647144,33.07,2260507.0
1596631428.4375,9.83,0.650987,33.05,2260842.0
1596631428.453125,8.01,0.648425,33.05,2261168.0
1596631428.46875,6.26,0.650987,33.05,2261702.0
1596631428.484375,4.55,0.648425,33.05,2261923.0
1596631428.5,2.77,0.649706,33.05,2262034.0
1596631428.515625,0.72,0.644582,33.05,2260968.0
1596631428.53125,-1.71,0.643301,33.05,2260046.0
1596631428.546875,-4.5,0.647144,33.05,2258564.0
1596631428.5625,-7.43,0.644582,33.05,2257608.0
1596631428.578125,-10.26,0.648425,33.05,2256310.0
1596631428.59375,-12.8,0.649706,33.05,2255631.0
1596631428.609375,-14.99,0.650987,33.05,2254185.0
1596631428.625,-16.96,0.650987,33.07,2253233.0
1596631428.640625,-18.94,0.649706,33.07,2252250.0
1596631428.65625,-21.15,0.645863,33.07,2251569.0
1596631428.671875,-23.83,0.643301,33.07,2250712.0
1596631428.6875,-27.19,0.644582,33.03,2250062.0
1596631428.703125,-31.33,0.648425,33.03,2249688.0
1596631428.71875,-36.11,0.649706,33.03,2249461.0
1596631428.734375,-41.03,0.653549,33.03,2249409.0
1596631428.75,-45.24,0.652268,33.03,2249324.0
1596631428.765625,-47.63,0.653549,33.03,2249351.0
1596631428.78125,-47.24,0.649706,33.03,2249402.0
1596631428.796875,-43.62,0.647144,33.03,2249470.0
1596631428.8125,-37.02,0.644582,33.05,2249634.0
1596631428.828125,-28.4,0.645863,33.05,2250012.0
1596631428.84375,-19.09,0.649706,33.05,2250127.0
1596631428.859375,-10.4,0.648425,33.05,2250834.0
1596631428.875,-3.25,0.650987,33.05,2251205.0
1596631428.890625,2.02,0.647144,33.05,2251700.0
1596631428.90625,5.68,0.643301,33.05,2252195.0
1596631428.921875,8.31,0.645863,33.05,2251298.0
1596631428.9375,10.57,0.64202,33.03,2250261.0
1596631428.953125,12.91,0.639459,33.03,2249204.0
1596631428.96875,15.42,0.643301,33.03,2248114.0
1596631428.984375,17.89,0.650987,33.03,2247121.0
1596631429.0,19.99,0.652268,33.05,2245464.0
1596631429.015625,21.45,0.65483,33.05,2244382.0
1596631429.03125,22.19,0.65483,33.05,2242932.0
1596631429.046875,22.37,0.652268,33.05,2241713.0
1596631429.0625,22.27,0.65483,33.0,2240676.0
1596631429.078125,22.22,0.649706,33.0,2239186.0
1596631429.09375,22.38,0.650987,33.0,2238709.0
1596631429.109375,22.85,0.656111,33.0,2238422.0
1596631429.125,23.59,0.656111,33.07,2238805.0
1596631429.140625,24.55,0.657392,33.07,2239452.0
1596631429.15625,25.66,0.658673,33.07,2240487.0
1596631429.171875,26.82,0.656111,33.07,2242093.0
1596631429.1875,27.88,0.65483,33.03,2243521.0
1596631429.203125,28.63,0.653549,33.03,2245328.0
1596631429.21875,28.9,0.65483,33.03,2246224.0
1596631429.234375,28.57,0.658673,33.03,2247721.0
1596631429.25,27.61,0.653549,33.03,2249065.0
1596631429.265625,26.13,0.656111,33.03,2250224.0
1596631429.28125,24.26,0.658673,33.03,2251020.0
1596631429.296875,22.18,0.648425,33.03,2251436.0
1596631429.3125,20.04,0.649706,33.03,2251579.0
1596631429.328125,17.96,0.645863,33.03,2250585.0
1596631429.34375,15.98,0.650987,33.03,2250086.0
1596631429.359375,14.07,0.647144,33.03,2248854.0
1596631429.375,12.17,0.645863,33.0,2248005.0
1596631429.390625,10.23,0.647144,33.0,2246921.0
1596631429.40625,8.22,0.644582,33.0,2246056.0
1596631429.421875,6.21,0.64202,33.0,2245274.0
1596631429.4375,4.29,0.640739,33.03,2244368.0
1596631429.453125,2.53,0.639459,33.03,2243503.0
1596631429.46875,1.01,0.64202,33.03,2242667.0
1596631429.484375,-0.29,0.645863,33.03,2242085.0
1596631429.5,-1.46,0.645863,33.0,2241686.0
1596631429.515625,-2.61,0.644582,33.0,2241797.0
1596631429.53125,-3.89,0.640739,33.0,2241482.0
1596631429.546875,-5.37,0.643301,33.0,2241667.0
1596631429.5625,-7.05,0.639459,33.03,2241622.0
1596631429.578125,-8.82,0.643301,33.03,2241673.0
1596631429.59375,-10.59,0.643301,33.03,2242008.0
1596631429.609375,-12.28,0.644582,33.03,2242217.0
1596631429.625,-13.98,0.644582,33.03,2242654.0
1596631429.640625,-15.93,0.640739,33.03,2242997.0
1596631429.65625,-18.43,0.639459,33.03,2243505.0
1596631429.671875,-21.68,0.640739,33.03,2244237.0
1596631429.6875,-25.54,0.643301,33.03,2244389.0
1596631429.703125,-29.5,0.643301,33.03,2244307.0
1596631429.71875,-32.65,0.647144,33.03,2243402.0
1596631429.734375,-34.04,0.648425,33.03,2241969.0
1596631429.75,-32.9,0.649706,33.0,2241005.0
1596631429.765625,-28.95,0.649706,33.0,2241435.0
1596631429.78125,-22.41,0.652268,33.0,2243029.0
1596631429.796875,-13.89,0.653549,33.0,2243781.0
1596631429.8125,-4.21,0.656111,33.0,2244252.0
1596631429.828125,5.77,0.657392,33.0,2244828.0
1596631429.84375,15.24,0.666358,33.0,2245100.0
1596631429.859375,23.4,0.661235,33.0,2245438.0
1596631429.875,29.49,0.657392,32.99,2245639.0
1596631429.890625,32.84,0.652268,32.99,2246000.0
1596631429.90625,33.11,0.65483,32.99,2246891.0
1596631429.921875,30.38,0.65483,32.99,2247741.0
1596631429.9375,25.24,0.652268,32.99,2248850.0
1596631429.953125,18.63,0.652268,32.99,2249301.0
1596631429.96875,11.67,0.658673,32.99,2250048.0
1596631429.984375,5.25,0.65483,32.99,2250376.0
1596631430.0,0.0,0.650987,33.0,2250933.0
1596631430.015625,-3.8,0.648425,33.0,2250968.0
1596631430.03125,-6.12,0.647144,33.0,2251545.0
1596631430.046875,-7.04,0.647144,33.0,2251884.0
1596631430.0625,-6.68,0.653549,33.0,2251879.0
1596631430.078125,-5.2,0.652268,33.0,2252078.0
1596631430.09375,-2.81,0.650987,33.0,2251545.0
1596631430.109375,0.24,0.653549,33.0,2249911.0
1596631430.125,3.6,0.65483,32.99,2248407.0
1596631430.140625,6.92,0.658673,32.99,2246686.0
1596631430.15625,9.82,0.665077,32.99,2244781.0
1596631430.171875,12.05,0.667639,32.99,2243472.0
1596631430.1875,13.41,0.667639,32.99,2242640.0
1596631430.203125,13.95,0.672763,32.99,2241651.0
1596631430.21875,13.8,0.671482,32.99,2240844.0
1596631430.234375,13.25,0.670201,32.99,2240107.0
1596631430.25,12.6,0.666358,33.0,2239507.0
1596631430.265625,12.09,0.662516,33.0,2239395.0
1596631430.28125,11.8,0.661235,33.0,2239223.0
1596631430.296875,11.64,0.659954,33.0,2239546.0
1596631430.3125,11.45,0.662516,33.0,2239489.0
1596631430.328125,11.06,0.661235,33.0,2240081.0
1596631430.34375,10.38,0.661235,33.0,2240616.0
1596631430.359375,9.48,0.661235,33.0,2241417.0
1596631430.375,8.48,0.663796,33.0,2242513.0
1596631430.390625,7.45,0.657392,33.0,2243391.0
1596631430.40625,6.43,0.65483,33.0,2244825.0
1596631430.421875,5.34,0.658673,33.0,2246416.0
1596631430.4375,4.05,0.659954,33.0,2248127.0
1596631430.453125,2.46,0.658673,33.0,2251338.0
1596631430.46875,0.57,0.659954,33.0,2256290.0
1596631430.484375,-1.58,0.657392,33.0,2260347.0
1596631430.5,-3.87,0.658673,32.99,2262075.0
1596631430.515625,-6.21,0.662516,32.99,2262782.0
1596631430.53125,-8.56,0.66892,32.99,2260466.0
1596631430.546875,-10.87,0.670201,32.99,2257184.0
1596631430.5625,-13.09,0.674044,33.0,2254997.0
1596631430.578125,-15.15,0.674044,33.0,2252553.0
1596631430.59375,-17.06,0.674044,33.0,2250220.0
1596631430.609375,-18.96,0.670201,33.0,2248380.0
1596631430.625,-21.15,0.66892,33.0,2247410.0
1596631430.640625,-23.97,0.671482,33.0,2245953.0
1596631430.65625,-27.62,0.683011,33.0,2244917.0
1596631430.671875,-31.91,0.689415,33.0,2243431.0
1596631430.6875,-36.18,0.716315,33.0,2242890.0
1596631430.703125,-39.42,0.72272,33.0,2242334.0
1596631430.71875,-40.63,0.716315,33.0,2241951.0
1596631430.734375,-39.2,0.70863,33.0,2241508.0
1596631430.75,-35.14,0.702225,32.99,2241284.0
1596631430.765625,-29.1,0.694539,32.99,2241114.0
1596631430.78125,-22.14,0.697101,32.99,2241495.0
1596631430.796875,-15.25,0.691977,32.99,2241632.0
1596631430.8125,-9.12,0.685573,33.0,2242145.0
1596631430.828125,-4.01,0.683011,33.0,2242615.0
1596631430.84375,0.14,0.676606,33.0,2243307.0
1596631430.859375,3.55,0.674044,33.0,2244040.0
1596631430.875,6.4,0.671482,32.99,2243941.0
1596631430.890625,8.85,0.671482,32.99,2242800.0
1596631430.90625,11.04,0.675325,32.99,2241263.0
1596631430.921875,13.09,0.676606,32.99,2244475.0
1596631430.9375,15.14,0.674044,33.0,2240152.0
1596631430.953125,17.18,0.672763,33.0,2238408.0
1596631430.96875,19.05,0.674044,33.0,2237530.0
1596631430.984375,20.5,0.667639,33.0,2236799.0
1596631431.0,21.36,0.671482,33.0,2235971.0
1596631431.015625,21.58,0.66892,33.0,2234972.0
1596631431.03125,21.38,0.672763,33.0,2233904.0
1596631431.046875,21.07,0.674044,33.0,2233580.0
1596631431.0625,20.95,0.672763,32.99,2233450.0
1596631431.078125,21.17,0.674044,32.99,2232864.0
1596631431.09375,21.67,0.670201,32.99,2233265.0
1596631431.109375,22.3,0.674044,32.99,2233362.0
1596631431.125,22.87,0.674044,32.97,2233715.0
1596631431.140625,23.23,0.670201,32.97,2234291.0
1596631431.15625,23.34,0.675325,32.97,2235186.0
1596631431.171875,23.17,0.675325,32.97,2236075.0
1596631431.1875,22.7,0.672763,33.0,2236834.0
1596631431.203125,21.92,0.675325,33.0,2237624.0
1596631431.21875,20.85,0.672763,33.0,2238847.0
1596631431.234375,19.58,0.671482,33.0,2239680.0
1596631431.25,18.25,0.672763,33.0,2241677.0
1596631431.265625,17.0,0.677887,33.0,2243601.0
1596631431.28125,15.86,0.68173,33.0,2245707.0
1596631431.296875,14.73,0.68173,33.0,2247654.0
1596631431.3125,13.43,0.684292,32.99,2240925.0
1596631431.328125,11.8,0.683011,32.99,2250001.0
1596631431.34375,9.77,0.685573,32.99,2249904.0
1596631431.359375,7.53,0.688134,32.99,2248691.0
1596631431.375,5.34,0.688134,33.0,2249167.0
1596631431.390625,3.45,0.691977,33.0,2250126.0
1596631431.40625,1.95,0.689415,33.0,2249284.0
1596631431.421875,0.7,0.689415,33.0,2247904.0
1596631431.4375,-0.59,0.683011,32.99,2246849.0
1596631431.453125,-2.23,0.68173,32.99,2246167.0
1596631431.46875,-4.32,0.684292,32.99,2245381.0
1596631431.484375,-6.79,0.68173,32.99,2246259.0
1596631431.5,-9.41,0.684292,32.99,2245298.0
1596631431.515625,-11.89,0.684292,32.99,2246055.0
1596631431.53125,-14.08,0.684292,32.99,2246868.0
1596631431.546875,-15.94,0.68173,32.99,2247288.0
1596631431.5625,-17.61,0.68173,33.0,2247810.0
1596631431.578125,-19.32,0.684292,33.0,2248197.0
1596631431.59375,-21.36,0.691977,33.0,2248933.0
1596631431.609375,-23.96,0.69582,33.0,2245605.0
1596631431.625,-27.24,0.698382,32.99,2246029.0
1596631431.640625,-31.14,0.694539,32.99,2245514.0
1596631431.65625,-35.36,0.694539,32.99,2249856.0
1596631431.671875,-39.32,0.691977,32.99,2250651.0
1596631431.6875,-42.26,0.686853,32.99,2251365.0
1596631431.703125,-43.38,0.683011,32.99,2252321.0
1596631431.71875,-42.11,0.68173,32.99,2252368.0
1596631431.734375,-38.28,0.685573,32.99,2251857.0
1596631431.75,-32.26,0.685573,32.99,2251312.0
1596631431.765625,-24.87,0.685573,32.99,2250510.0
1596631431.78125,-17.15,0.680449,32.99,2249772.0
1596631431.796875,-10.05,0.680449,32.99,2249402.0
1596631431.8125,-4.17,0.679168,33.0,2248885.0
1596631431.828125,0.37,0.679168,33.0,2248854.0
1596631431.84375,3.8,0.683011,33.0,2248294.0
1596631431.859375,6.51,0.683011,33.0,2247856.0
1596631431.875,8.81,0.684292,32.99,2247872.0
1596631431.890625,10.87,0.680449,32.99,2247267.0
1596631431.90625,12.69,0.679168,32.99,2247670.0
1596631431.921875,14.28,0.684292,32.99,2247543.0
1596631431.9375,15.67,0.686853,32.99,2247717.0
1596631431.953125,16.96,0.686853,32.99,2248104.0
1596631431.96875,18.27,0.688134,32.99,2248959.0
1596631431.984375,19.6,0.688134,32.99,2249121.0
1596631432.0,20.88,0.686853,32.99,2250496.0
1596631432.015625,21.98,0.684292,32.99,2253354.0
1596631432.03125,22.83,0.683011,32.99,2256949.0
1596631432.046875,23.42,0.686853,32.99,2260117.0
1596631432.0625,23.88,0.688134,32.97,2264218.0
1596631432.078125,24.36,0.686853,32.97,2263091.0
1596631432.09375,24.94,0.688134,32.97,2264322.0
1596631432.109375,25.65,0.689415,32.97,2263526.0
1596631432.125,26.39,0.684292,32.99,2262735.0
1596631432.140625,27.09,0.684292,32.99,2261286.0
1596631432.15625,27.61,0.685573,32.99,2259940.0
1596631432.171875,27.87,0.689415,32.99,2259019.0
1596631432.1875,27.78,0.690696,32.97,2257694.0
1596631432.203125,27.35,0.689415,32.97,2256812.0
1596631432.21875,26.57,0.689415,32.97,2256172.0
1596631432.234375,25.56,0.685573,32.97,2255374.0
1596631432.25,24.43,0.691977,32.99,2254622.0
1596631432.265625,23.24,0.693258,32.99,2253853.0
1596631432.28125,22.02,0.700944,32.99,2253713.0
1596631432.296875,20.69,0.713753,32.99,2253009.0
1596631432.3125,19.19,0.713753,32.97,2253025.0
1596631432.328125,17.45,0.712472,32.97,2252870.0
1596631432.34375,15.53,0.70863,32.97,2253383.0
1596631432.359375,13.53,0.706068,32.97,2253193.0
1596631432.375,11.63,0.700944,32.99,2253247.0
1596631432.390625,9.96,0.694539,32.99,2253689.0
1596631432.40625,8.58,0.697101,32.99,2253808.0
1596631432.421875,7.4,0.690696,32.99,2254343.0
1596631432.4375,6.17,0.694539,32.99,2254340.0
1596631432.453125,4.64,0.689415,32.99,2254758.0
1596631432.46875,2.58,0.68173,32.99,2255264.0
1596631432.484375,-0.05,0.680449,32.99,2256454.0
1596631432.5,-3.09,0.683011,32.99,2255953.0
1596631432.515625,-6.21,0.68173,32.99,2256529.0
1596631432.53125,-9.06,0.686853,32.99,2255655.0
1596631432.546875,-11.43,0.688134,32.99,2254741.0
1596631432.5625,-13.32,0.689415,32.97,2253125.0
1596631432.578125,-14.96,0.686853,32.97,2252046.0
1596631432.59375,-16.7,0.686853,32.97,2250436.0
1596631432.609375,-18.9,0.686853,32.97,2249407.0
1596631432.625,-21.78,0.689415,32.97,2248332.0
1596631432.640625,-25.44,0.691977,32.97,2247146.0
1596631432.65625,-29.79,0.690696,32.97,2246025.0
1596631432.671875,-34.47,0.689415,32.97,2244782.0
1596631432.6875,-38.93,0.685573,32.97,2244161.0
1596631432.703125,-42.36,0.683011,32.97,2243662.0
1596631432.71875,-43.93,0.68173,32.97,2243090.0
1596631432.734375,-43.0,0.683011,32.97,2243074.0
1596631432.75,-39.36,0.684292,32.97,2242691.0
1596631432.765625,-33.39,0.685573,32.97,2242891.0
1596631432.78125,-25.91,0.686853,32.97,2242655.0
1596631432.796875,-18.01,0.688134,32.97,2242480.0
1596631432.8125,-10.67,0.69582,32.97,2242659.0
1596631432.828125,-4.51,0.703506,32.97,2242848.0
1596631432.84375,0.24,0.715034,32.97,2243152.0
1596631432.859375,3.73,0.712472,32.97,2243697.0
1596631432.875,6.26,0.712472,32.97,2244325.0
1596631432.890625,8.18,0.707349,32.97,2244945.0
1596631432.90625,9.77,0.698382,32.97,2245124.0
1596631432.921875,11.23,0.69582,32.97,2245572.0
1596631432.9375,12.65,0.685573,32.95,2245564.0
1596631432.953125,14.04,0.683011,32.95,2244705.0
1596631432.96875,15.34,0.677887,32.95,2243213.0
1596631432.984375,16.38,0.674044,32.95,2241935.0
1596631433.0,17.02,0.674044,32.95,2240189.0
1596631433.015625,17.19,0.666358,32.95,2238949.0
1596631433.03125,16.94,0.663796,32.95,2237348.0
1596631433.046875,16.53,0.662516,32.95,2236462.0
1596631433.0625,16.27,0.663796,32.95,2235085.0
1596631433.078125,16.38,0.662516,32.95,2234155.0
1596631433.09375,16.92,0.663796,32.95,2233077.0
1596631433.109375,17.76,0.665077,32.95,2232208.0
1596631433.125,18.64,0.667639,32.93,2231305.0
1596631433.140625,19.32,0.670201,32.93,2231312.0
1596631433.15625,19.65,0.672763,32.93,2230416.0
1596631433.171875,19.57,0.676606,32.93,2230381.0
1596631433.1875,19.08,0.680449,32.93,2229831.0
1596631433.203125,18.18,0.676606,32.93,2229954.0
1596631433.21875,16.9,0.677887,32.93,2230027.0
1596631433.234375,15.22,0.675325,32.93,2230462.0
1596631433.25,13.28,0.675325,32.97,2230257.0
1596631433.265625,11.21,0.667639,32.97,2230520.0
1596631433.28125,9.2,0.665077,32.97,2230931.0
1596631433.296875,7.37,0.662516,32.97,2231748.0
1596631433.3125,5.73,0.659954,32.97,2232138.0
1596631433.328125,4.19,0.662516,32.97,2232551.0
1596631433.34375,2.59,0.666358,32.97,2233106.0
1596631433.359375,0.82,0.663796,32.97,2233507.0
1596631433.375,-1.22,0.663796,32.95,2233036.0
1596631433.390625,-3.5,0.661235,32.95,2231271.0
1596631433.40625,-5.91,0.662516,32.95,2229985.0
1596631433.421875,-8.31,0.665077,32.95,2228389.0
1596631433.4375,-10.49,0.666358,32.97,2226377.0
1596631433.453125,-12.36,0.663796,32.97,2224837.0
1596631433.46875,-13.91,0.666358,32.97,2223583.0
1596631433.484375,-15.34,0.666358,32.97,2222446.0
1596631433.5,-16.99,0.667639,32.97,2220846.0
1596631433.515625,-19.26,0.662516,32.97,2219490.0
1596631433.53125,-22.35,0.663796,32.97,2218609.0
1596631433.546875,-26.27,0.666358,32.97,2217603.0
1596631433.5625,-30.65,0.663796,32.95,2216893.0
1596631433.578125,-34.89,0.662516,32.95,2216618.0
1596631433.59375,-38.28,0.66892,32.95,2216243.0
1596631433.609375,-40.16,0.670201,32.95,2215764.0
1596631433.625,-40.11,0.680449,32.95,2215915.0
1596631433.640625,-37.95,0.690696,32.95,2215566.0
1596631433.65625,-33.84,0.686853,32.95,2215755.0
1596631433.671875,-28.11,0.688134,32.95,2215871.0
1596631433.6875,-21.29,0.693258,32.95,2216168.0
1596631433.703125,-13.93,0.689415,32.95,2216321.0
1596631433.71875,-6.55,0.693258,32.95,2216312.0
1596631433.734375,0.34,0.691977,32.95,2216998.0
1596631433.75,6.34,0.691977,32.95,2217058.0
1596631433.765625,11.2,0.689415,32.95,2217962.0
1596631433.78125,14.88,0.688134,32.95,2218207.0
1596631433.796875,17.6,0.689415,32.95,2218879.0
1596631433.8125,19.8,0.685573,32.93,2219462.0
1596631433.828125,22.0,0.685573,32.93,2219269.0
1596631433.84375,24.64,0.686853,32.93,2218516.0
1596631433.859375,27.82,0.690696,32.93,2216616.0
1596631433.875,31.3,0.691977,32.95,2215160.0
1596631433.890625,34.56,0.691977,32.95,2213681.0
1596631433.90625,37.08,0.698382,32.95,2211671.0
1596631433.921875,38.56,0.702225,32.95,2210137.0
1596631433.9375,38.99,0.703506,32.95,2209044.0
1596631433.953125,38.68,0.707349,32.95,2207554.0
1596631433.96875,38.05,0.706068,32.95,2206510.0
1596631433.984375,37.54,0.709911,32.95,2204885.0
1596631434.0,37.53,0.711191,32.93,2203797.0
1596631434.015625,38.37,0.711191,32.93,2202938.0
1596631434.03125,40.19,0.717596,32.93,2202211.0
1596631434.046875,42.74,0.717596,32.93,2201667.0
1596631434.0625,45.17,0.727844,32.95,2200885.0
1596631434.078125,46.09,0.730406,32.95,2200912.0
1596631434.09375,44.0,0.727844,32.95,2200658.0
1596631434.109375,37.9,0.725282,32.95,2200414.0
1596631434.125,27.82,0.720158,32.93,2200194.0
1596631434.140625,14.98,0.718877,32.93,2200110.0
1596631434.15625,1.38,0.717596,32.93,2200595.0
1596631434.171875,-10.87,0.713753,32.93,2200388.0
1596631434.1875,-20.4,0.70863,32.93,2200801.0
1596631434.203125,-26.75,0.709911,32.93,2201085.0
1596631434.21875,-30.37,0.709911,32.93,2201935.0
1596631434.234375,-31.99,0.715034,32.93,2203064.0
1596631434.25,-32.21,0.716315,32.93,2203935.0
1596631434.265625,-31.35,0.711191,32.93,2204837.0
1596631434.28125,-29.52,0.711191,32.93,2204278.0
1596631434.296875,-26.92,0.711191,32.93,2205421.0
1596631434.3125,-24.01,0.712472,32.93,2208495.0
1596631434.328125,-21.46,0.70863,32.93,2212263.0
1596631434.34375,-19.83,0.712472,32.93,2214567.0
1596631434.359375,-19.38,0.715034,32.93,2213936.0
1596631434.375,-19.93,0.70863,32.91,2209269.0
1596631434.390625,-21.0,0.704787,32.91,2212196.0
1596631434.40625,-22.08,0.704787,32.91,2203314.0
1596631434.421875,-22.8,0.711191,32.91,2206257.0
1596631434.4375,-23.14,0.725282,32.93,2201113.0
1596631434.453125,-23.33,0.739372,32.93,2197519.0
1596631434.46875,-23.7,0.753463,32.93,2199254.0
1596631434.484375,-24.51,0.761148,32.93,2195162.0
1596631434.5,-25.95,0.76371,32.93,2196086.0
1596631434.515625,-28.14,0.762429,32.93,2194694.0
1596631434.53125,-31.11,0.759867,32.93,2193782.0
1596631434.546875,-34.8,0.761148,32.93,2193688.0
1596631434.5625,-38.9,0.762429,32.93,2193289.0
1596631434.578125,-42.86,0.757306,32.93,2193406.0
1596631434.59375,-45.87,0.76371,32.93,2193518.0
1596631434.609375,-47.1,0.775239,32.93,2193577.0
1596631434.625,-45.98,0.77652,32.91,2194147.0
1596631434.640625,-42.41,0.799577,32.91,2193733.0
1596631434.65625,-36.8,0.812386,32.91,2194422.0
1596631434.671875,-29.89,0.816229,32.91,2194702.0
1596631434.6875,-22.5,0.814948,32.93,2195539.0
1596631434.703125,-15.25,0.814948,32.93,2195551.0
1596631434.71875,-8.5,0.811105,32.93,2195551.0
1596631434.734375,-2.45,0.811105,32.93,2195694.0
1596631434.75,2.84,0.809824,32.93,2194042.0
1596631434.765625,7.29,0.805981,32.93,2192534.0
1596631434.78125,10.9,0.805981,32.93,2190626.0
1596631434.796875,13.75,0.8047,32.93,2189103.0
1596631434.8125,16.07,0.799577,32.91,2187106.0
1596631434.828125,18.13,0.799577,32.91,2185643.0
1596631434.84375,20.11,0.798296,32.91,2184222.0
1596631434.859375,21.98,0.799577,32.91,2182897.0
1596631434.875,23.55,0.8047,32.93,2181560.0
1596631434.890625,24.59,0.80342,32.93,2180335.0
1596631434.90625,24.95,0.8047,32.93,2179651.0
1596631434.921875,24.78,0.8047,32.93,2178735.0
1596631434.9375,24.45,0.80342,32.91,2178629.0
1596631434.953125,24.37,0.799577,32.91,2178029.0
1596631434.96875,24.84,0.8047,32.91,2178030.0
1596631434.984375,25.85,0.798296,32.91,2177908.0
1596631435.0,27.14,0.799577,32.91,2178150.0
1596631435.015625,28.31,0.797015,32.91,2177801.0
1596631435.03125,29.04,0.802139,32.91,2178342.0
1596631435.046875,29.16,0.809824,32.91,2178518.0
1596631435.0625,28.73,0.81751,32.91,2179102.0
1596631435.078125,27.87,0.822634,32.91,2179674.0
1596631435.09375,26.7,0.830319,32.91,2180448.0
1596631435.109375,25.31,0.826477,32.91,2181281.0
1596631435.125,23.76,0.823915,32.91,2182143.0
1596631435.140625,22.13,0.823915,32.91,2182893.0
1596631435.15625,20.57,0.822634,32.91,2183902.0
1596631435.171875,19.17,0.826477,32.91,2183733.0
1596631435.1875,17.98,0.822634,32.89,2183063.0
1596631435.203125,16.88,0.820072,32.89,2181998.0
1596631435.21875,15.7,0.81751,32.89,2181380.0
1596631435.234375,14.27,0.816229,32.89,2181698.0
1596631435.25,12.5,0.811105,32.89,2181668.0
1596631435.265625,10.44,0.807262,32.89,2181752.0
1596631435.28125,8.22,0.813667,32.89,2181410.0
1596631435.296875,6.02,0.808543,32.89,2181217.0
1596631435.3125,3.98,0.805981,32.89,2180812.0
1596631435.328125,2.19,0.807262,32.89,2179479.0
1596631435.34375,0.67,0.812386,32.89,2178546.0
1596631435.359375,-0.65,0.812386,32.89,2177604.0
1596631435.375,-1.9,0.812386,32.91,2177071.0
1596631435.390625,-3.22,0.811105,32.91,2176128.0
1596631435.40625,-4.78,0.805981,32.91,2176012.0
1596631435.421875,-6.69,0.808543,32.91,2175596.0
1596631435.4375,-8.96,0.805981,32.89,2175072.0
1596631435.453125,-11.51,0.805981,32.89,2175328.0
1596631435.46875,-14.18,0.807262,32.89,2175151.0
1596631435.484375,-16.85,0.808543,32.89,2175290.0
1596631435.5,-19.47,0.809824,32.89,2175242.0
1596631435.515625,-22.12,0.813667,32.89,2175702.0
1596631435.53125,-24.97,0.813667,32.89,2175824.0
1596631435.546875,-28.18,0.816229,32.89,2176125.0
1596631435.5625,-31.67,0.821353,32.89,2177052.0
1596631435.578125,-35.13,0.827757,32.89,2177264.0
1596631435.59375,-37.92,0.839286,32.89,2178085.0
1596631435.609375,-39.3,0.84441,32.89,2178822.0
1596631435.625,-38.64,0.846972,32.89,2179516.0
1596631435.640625,-35.65,0.854657,32.89,2180142.0
1596631435.65625,-30.47,0.859781,32.89,2180207.0
1596631435.671875,-23.63,0.861062,32.89,2179259.0
1596631435.6875,-15.83,0.861062,32.89,2177978.0
1596631435.703125,-7.77,0.861062,32.89,2175843.0
1596631435.71875,-0.03,0.857219,32.89,2173980.0
1596631435.734375,6.98,0.854657,32.89,2172259.0
1596631435.75,13.03,0.857219,32.89,2170691.0
1596631435.765625,18.04,0.853376,32.89,2169133.0
1596631435.78125,22.06,0.857219,32.89,2167658.0
1596631435.796875,25.29,0.854657,32.89,2165972.0
1596631435.8125,28.03,0.8585,32.89,2165022.0
1596631435.828125,30.53,0.859781,32.89,2163371.0
1596631435.84375,32.94,0.8585,32.89,2162454.0
1596631435.859375,35.19,0.859781,32.89,2162141.0
1596631435.875,37.04,0.859781,32.87,2161231.0
1596631435.890625,38.2,0.857219,32.87,2161377.0
1596631435.90625,38.45,0.855938,32.87,2160888.0
1596631435.921875,37.81,0.853376,32.87,2161381.0
1596631435.9375,36.56,0.854657,32.87,2161135.0
1596631435.953125,35.27,0.853376,32.87,2161842.0
1596631435.96875,34.56,0.855938,32.87,2162257.0
1596631435.984375,34.96,0.857219,32.87,2162493.0
1596631436.0,36.63,0.862343,32.89,2162947.0
1596631436.015625,39.29,0.862343,32.89,2164469.0
1596631436.03125,42.14,0.863624,32.89,2163857.0
1596631436.046875,43.98,0.859781,32.89,2165308.0
1596631436.0625,43.52,0.8585,32.89,2167053.0
1596631436.078125,39.73,0.8585,32.89,2166433.0
1596631436.09375,32.21,0.8585,32.89,2167053.0
1596631436.109375,21.43,0.867467,32.89,2166368.0
1596631436.125,8.74,0.87131,32.87,2163187.0
1596631436.140625,-4.07,0.886681,32.87,2164919.0
1596631436.15625,-15.26,0.903333,32.87,2159847.0
1596631436.171875,-23.63,0.909738,32.87,2161616.0
1596631436.1875,-28.8,0.913581,32.87,2158762.0
1596631436.203125,-31.14,0.9123,32.87,2157385.0
1596631436.21875,-31.42,0.9123,32.87,2156327.0
1596631436.234375,-30.38,0.909738,32.87,2155004.0
1596631436.25,-28.52,0.911019,32.87,2154182.0
1596631436.265625,-26.09,0.907176,32.87,2153403.0
1596631436.28125,-23.28,0.904614,32.87,2152727.0
1596631436.296875,-20.37,0.900771,32.87,2152542.0
1596631436.3125,-17.81,0.89949,32.87,2152437.0
1596631436.328125,-16.06,0.890524,32.87,2152447.0
1596631436.34375,-15.36,0.886681,32.87,2152618.0
1596631436.359375,-15.62,0.884119,32.87,2152820.0
1596631436.375,-16.52,0.882838,32.87,2152820.0
1596631436.390625,-17.64,0.8854,32.87,2153527.0
1596631436.40625,-18.69,0.886681,32.87,2153128.0
1596631436.421875,-19.61,0.887962,32.87,2154427.0
1596631436.4375,-20.55,0.886681,32.87,2153760.0
1596631436.453125,-21.77,0.884119,32.87,2156286.0
1596631436.46875,-23.44,0.881557,32.87,2155237.0
1596631436.484375,-25.67,0.880276,32.87,2158279.0
1596631436.5,-28.46,0.880276,32.87,2157114.0
1596631436.515625,-31.7,0.8854,32.87,2159126.0
1596631436.53125,-35.18,0.886681,32.87,2158956.0
1596631436.546875,-38.49,0.881557,32.87,2158366.0
1596631436.5625,-41.0,0.8585,32.84,2156755.0
1596631436.578125,-41.97,0.852095,32.84,2155335.0
1596631436.59375,-40.74,0.850815,32.84,2153579.0
1596631436.609375,-37.02,0.862343,32.84,2150504.0
1596631436.625,-31.11,0.863624,32.84,2151753.0
1596631436.640625,-23.85,0.866186,32.84,2147390.0
1596631436.65625,-16.3,0.870029,32.84,2144382.0
1596631436.671875,-9.39,0.878995,32.84,2148641.0
1596631436.6875,-3.62,,,2146321.0
1596631436.703125,1.03,,,2144959.0
1596631436.71875,4.89,,,2144261.0
1596631436.734375,8.33,,,2145187.0
1596631436.75,11.51,,,2147537.0
1596631436.765625,14.33,,,2149916.0
1596631436.78125,16.57,,,2151413.0
1596631436.796875,18.13,,,2151798.0
1596631436.8125,19.11,,,2152372.0
1596631436.828125,19.79,,,2155493.0
1596631436.84375,20.43,,,2159233.0
1596631436.859375,21.12,,,2162461.0
1596631436.875,21.76,,,2164694.0
1596631436.890625,22.17,,,2166758.0
1596631436.90625,22.29,,,2168245.0
1596631436.921875,22.2,,,2169266.0
1596631436.9375,22.18,,,2170887.0
1596631436.953125,22.44,,,2172080.0
1596631436.96875,23.05,,,2172477.0
1596631436.984375,23.88,,,2172477.0
1596631437.0,24.67,,,2171462.0
1596631437.015625,25.2,,,2170162.0
1596631437.03125,25.36,,,2168329.0
1596631437.046875,25.16,,,2166594.0
1596631437.0625,24.67,,,2165169.0
1596631437.078125,23.89,,,2163552.0
1596631437.09375,22.78,,,2162355.0
1596631437.109375,21.32,,,2161140.0
1596631437.125,19.6,,,2160149.0
1596631437.140625,17.77,,,2159009.0
1596631437.15625,16.06,,,2158673.0
1596631437.171875,14.57,,,2157892.0
1596631437.1875,13.32,,,2157722.0
1596631437.203125,12.22,,,2157529.0
1596631437.21875,11.15,,,2157714.0
1596631437.234375,10.07,,,2157819.0
1596631437.25,8.98,,,2158463.0
1596631437.265625,7.92,,,2158498.0
1596631437.28125,6.87,,,2158914.0
1596631437.296875,5.75,,,2159377.0
1596631437.3125,4.41,,,2159699.0
1596631437.328125,2.77,,,2160395.0
1596631437.34375,0.79,,,2161044.0
1596631437.359375,-1.51,,,2161689.0
1596631437.375,-4.0,,,2162536.0
1596631437.390625,-6.55,,,2163363.0
1596631437.40625,-9.02,,,2164741.0
1596631437.421875,-11.29,,,2165111.0
1596631437.4375,-13.24,,,2164261.0
1596631437.453125,-14.82,,,2162976.0
1596631437.46875,-16.08,,,2161163.0
1596631437.484375,-17.23,,,2159235.0
1596631437.5,-18.63,,,2157388.0
1596631437.515625,-20.71,,,2155331.0
1596631437.53125,-23.83,,,2153872.0
1596631437.546875,-28.06,,,2152387.0
1596631437.5625,-33.03,,,2151300.0
1596631437.578125,-37.9,,,2150348.0
1596631437.59375,-41.52,,,2150042.0
1596631437.609375,-42.84,,,2153088.0
1596631437.625,-41.26,,,2159257.0
1596631437.640625,-36.85,,,2164039.0
1596631437.65625,-30.35,,,2168053.0
1596631437.671875,-22.88,,,2171984.0
1596631437.6875,-15.6,,,2172921.0
1596631437.703125,-9.32,,,2172028.0
1596631437.71875,-4.39,,,2171281.0
1596631437.734375,-0.75,,,2170432.0
1596631437.75,1.92,,,2169814.0
1596631437.765625,4.03,,,2169257.0
1596631437.78125,5.94,,,2169206.0
1596631437.796875,7.94,,,2170121.0
1596631437.8125,10.17,,,2170530.0
1596631437.828125,12.6,,,2171493.0
1596631437.84375,15.03,,,2172254.0
1596631437.859375,17.15,,,2173528.0
1596631437.875,18.64,,,2174450.0
1596631437.890625,19.37,,,2174941.0
1596631437.90625,19.46,,,2174237.0
1596631437.921875,19.22,,,2173035.0
1596631437.9375,18.99,,,2171759.0
1596631437.953125,19.02,,,2170129.0
1596631437.96875,19.34,,,2168811.0
1596631437.984375,19.89,,,2167141.0
1596631438.0,20.56,,,2165937.0
1596631438.015625,21.27,,,2164858.0
1596631438.03125,22.0,,,2163565.0
1596631438.046875,22.64,,,2162575.0
1596631438.0625,23.01,,,2161844.0
1596631438.078125,22.85,,,2161337.0
1596631438.09375,22.0,,,2160806.0
1596631438.109375,20.49,,,2160841.0
1596631438.125,18.62,,,2160718.0
1596631438.140625,16.76,,,2160934.0
1596631438.15625,15.24,,,2161116.0
1596631438.171875,14.14,,,2161817.0
1596631438.1875,13.33,,,2162382.0
1596631438.203125,12.6,,,2163311.0
1596631438.21875,11.76,,,2163872.0
1596631438.234375,10.82,,,2165276.0
1596631438.25,9.82,,,2165738.0
1596631438.265625,8.88,,,2167309.0
1596631438.28125,8.01,,,2167988.0
1596631438.296875,7.13,,,2169483.0
1596631438.3125,6.13,,,2170325.0
1596631438.328125,4.99,,,2171158.0
1596631438.34375,3.76,,,2171185.0
1596631438.359375,2.53,,,2170243.0
1596631438.375,1.37,,,2168802.0
1596631438.390625,0.25,,,2166430.0
1596631438.40625,-0.99,,,2164747.0
1596631438.421875,-2.56,,,2162659.0
1596631438.4375,-4.59,,,2161535.0
1596631438.453125,-7.03,,,2160097.0
1596631438.46875,-9.7,,,2158662.0
1596631438.484375,-12.29,,,2157662.0
1596631438.5,-14.6,,,2156414.0
1596631438.515625,-16.55,,,2155836.0
1596631438.53125,-18.23,,,2154870.0
1596631438.546875,-19.86,,,2154438.0
1596631438.5625,-21.65,,,2154109.0
1596631438.578125,-23.75,,,2153930.0
1596631438.59375,-26.25,,,2153671.0
1596631438.609375,-29.13,,,2153562.0
1596631438.625,-32.23,,,2153835.0
1596631438.640625,-35.23,,,2154274.0
1596631438.65625,-37.56,,,2154374.0
1596631438.671875,-38.53,,,2154879.0
1596631438.6875,-37.52,,,2155460.0
1596631438.703125,-34.19,,,2155704.0
1596631438.71875,-28.74,,,2156689.0
1596631438.734375,-21.88,,,2157061.0
1596631438.75,-14.57,,,2157906.0
1596631438.765625,-7.82,,,2159067.0
1596631438.78125,-2.26,,,2159864.0
1596631438.796875,1.89,,,2160146.0
1596631438.8125,4.8,,,2159270.0
1596631438.828125,6.85,,,2157793.0
1596631438.84375,8.39,,,2155701.0
1596631438.859375,9.66,,,2154019.0
1596631438.875,10.73,,,2152060.0
1596631438.890625,11.55,,,2150287.0
1596631438.90625,12.08,,,2149154.0
1596631438.921875,12.27,,,2147597.0
1596631438.9375,12.17,,,2145912.0
1596631438.953125,11.89,,,2144704.0
1596631438.96875,11.59,,,2143787.0
1596631438.984375,11.43,,,2142917.0
1596631439.0,11.53,,,2142291.0
1596631439.015625,11.91,,,2142270.0
1596631439.03125,12.52,,,2141870.0
1596631439.046875,13.26,,,2141994.0
1596631439.0625,14.0,,,2142010.0
1596631439.078125,14.64,,,2142656.0
1596631439.09375,15.11,,,2142868.0
1596631439.109375,15.36,,,2143716.0
1596631439.125,15.35,,,2144578.0
1596631439.140625,15.06,,,2145287.0
1596631439.15625,14.48,,,2146317.0
1596631439.171875,13.64,,,2147935.0
1596631439.1875,12.65,,,2150188.0
1596631439.203125,11.64,,,2152834.0
1596631439.21875,10.75,,,2155328.0
1596631439.234375,10.05,,,2157379.0
1596631439.25,9.51,,,2157695.0
1596631439.265625,8.95,,,2157179.0
1596631439.28125,8.12,,,2155072.0
1596631439.296875,6.85,,,2153082.0
1596631439.3125,5.14,,,2150348.0
1596631439.328125,3.23,,,2148681.0
1596631439.34375,1.52,,,2146557.0
1596631439.359375,0.39,,,2145080.0
1596631439.375,-0.04,,,2143389.0
1596631439.390625,0.01,,,2142218.0
1596631439.40625,0.03,,,2140240.0
1596631439.421875,-0.53,,,2139247.0
1596631439.4375,-2.01,,,2137933.0
1596631439.453125,-4.39,,,2136957.0
1596631439.46875,-7.3,,,2136984.0
1596631439.484375,-10.22,,,2136130.0
1596631439.5,-12.73,,,2136003.0
1596631439.515625,-14.65,,,2135692.0
1596631439.53125,-16.09,,,2135738.0
1596631439.546875,-17.27,,,2135692.0
1596631439.5625,-18.46,,,2136124.0
1596631439.578125,-19.88,,,2136154.0
1596631439.59375,-21.72,,,2136555.0
1596631439.609375,-24.1,,,2137187.0
1596631439.625,-27.01,,,2137700.0
1596631439.640625,-30.18,,,2138251.0
1596631439.65625,-33.05,,,2139153.0
1596631439.671875,-34.79,,,2139924.0
1596631439.6875,-34.62,,,2140765.0
1596631439.703125,-32.03,,,2140612.0
1596631439.71875,-27.11,,,2139493.0
1596631439.734375,-20.47,,,2137089.0
1596631439.75,-13.12,,,2134282.0
1596631439.765625,-6.06,,,2131557.0
1596631439.78125,-0.02,,,2128273.0
1596631439.796875,4.78,,,2125802.0
1596631439.8125,8.51,,,2123632.0
1596631439.828125,11.53,,,2121580.0
1596631439.84375,14.22,,,2119513.0
1596631439.859375,16.73,,,2117729.0
1596631439.875,19.07,,,2115978.0
1596631439.890625,21.15,,,2114766.0
1596631439.90625,22.91,,,2114324.0
1596631439.921875,24.4,,,2114188.0
1596631439.9375,25.7,,,2115053.0
1596631439.953125,26.86,,,2115548.0
1596631439.96875,27.87,,,2116857.0
1596631439.984375,28.67,,,2117640.0
1596631440.0,29.26,,,2118735.0
1596631440.015625,29.76,,,2119380.0
1596631440.03125,30.39,,,2119503.0
1596631440.046875,31.31,,,2120294.0
1596631440.0625,32.49,,,2120603.0
1596631440.078125,33.69,,,2121156.0
1596631440.09375,34.54,,,2121729.0
1596631440.109375,34.72,,,2122451.0
1596631440.125,34.17,,,2122480.0
1596631440.140625,33.07,,,2121226.0
1596631440.15625,31.62,,,2118647.0
1596631440.171875,29.99,,,2115306.0
1596631440.1875,28.11,,,2112148.0
1596631440.203125,25.85,,,2108624.0
1596631440.21875,23.11,,,2105656.0
1596631440.234375,19.99,,,2103480.0
1596631440.25,16.71,,,2100987.0
1596631440.265625,13.49,,,2098680.0
1596631440.28125,10.34,,,2096124.0
1596631440.296875,7.0,,,2094463.0
1596631440.3125,3.1,,,2092963.0
1596631440.328125,-1.63,,,2091774.0
1596631440.34375,-7.11,,,2091128.0
1596631440.359375,-12.89,,,2090361.0
1596631440.375,-18.31,,,2089931.0
1596631440.390625,-22.87,,,2089639.0
1596631440.40625,-26.38,,,2089589.0
1596631440.421875,-29.02,,,2089430.0
1596631440.4375,-31.11,,,2089861.0
1596631440.453125,-32.9,,,2089931.0
1596631440.46875,-34.42,,,2090533.0
1596631440.484375,-35.45,,,2091227.0
1596631440.5,-35.85,,,2091965.0
1596631440.515625,-35.62,,,2092558.0
1596631440.53125,-34.98,,,2093412.0
1596631440.546875,-34.26,,,2094496.0
1596631440.5625,-33.72,,,2095252.0
1596631440.578125,-33.37,,,2096289.0
1596631440.59375,-33.05,,,2095688.0
1596631440.609375,-32.6,,,2093573.0
1596631440.625,-31.94,,,2090654.0
1596631440.640625,-31.22,,,2087692.0
1596631440.65625,-30.72,,,2085138.0
1596631440.671875,-30.71,,,2082364.0
1596631440.6875,-31.29,,,2080422.0
1596631440.703125,-32.36,,,2075795.0
1596631440.71875,-33.59,,,2078128.0
1596631440.734375,-34.57,,,2078403.0
1596631440.75,-34.87,,,2076373.0
1596631440.765625,-34.2,,,2079826.0
1596631440.78125,-32.47,,,2084452.0
1596631440.796875,-29.74,,,2082439.0
1596631440.8125,-26.29,,,2086471.0
1596631440.828125,-22.41,,,2086945.0
1596631440.84375,-18.42,,,2087512.0
1596631440.859375,-14.51,,,2088209.0
1596631440.875,-10.81,,,2088112.0
1596631440.890625,-7.37,,,2090039.0
1596631440.90625,-4.23,,,2089084.0
1596631440.921875,-1.51,,,2088925.0
1596631440.9375,0.65,,,2091532.0
1596631440.953125,2.12,,,2092676.0
1596631440.96875,2.91,,,2090576.0
1596631440.984375,3.18,,,2093655.0
1596631441.0,3.25,,,2094980.0
1596631441.015625,3.47,,,2095983.0
1596631441.03125,4.12,,,2097298.0
1596631441.046875,5.27,,,2100341.0
1596631441.0625,6.83,,,2098797.0
1596631441.078125,8.59,,,2101316.0
1596631441.09375,10.36,,,2100908.0
1596631441.109375,12.08,,,2098902.0
1596631441.125,13.77,,,2096516.0
1596631441.140625,15.47,,,2096516.0
1596631441.15625,17.17,,,2094551.0
1596631441.171875,18.7,,,2092063.0
1596631441.1875,19.83,,,2090556.0
1596631441.203125,20.33,,,2089642.0
1596631441.21875,20.17,,,2088004.0
1596631441.234375,19.48,,,2086633.0
1596631441.25,18.54,,,2085493.0
1596631441.265625,17.54,,,2084677.0
1596631441.28125,16.59,,,2084486.0
1596631441.296875,15.6,,,2084528.0
1596631441.3125,14.38,,,2084711.0
1596631441.328125,12.83,,,2085324.0
1596631441.34375,10.98,,,2085525.0
1596631441.359375,9.03,,,2086347.0
1596631441.375,7.19,,,2087086.0
1596631441.390625,5.58,,,2088277.0
1596631441.40625,4.17,,,2089145.0
1596631441.421875,2.83,,,2090723.0
1596631441.4375,1.4,,,2092066.0
1596631441.453125,-0.17,,,2093609.0
1596631441.46875,-1.83,,,2095074.0
1596631441.484375,-3.5,,,2096847.0
1596631441.5,-5.13,,,2098614.0
1596631441.515625,-6.76,,,2100382.0
1596631441.53125,-8.51,,,2102094.0
1596631441.546875,-10.43,,,2102896.0
1596631441.5625,-12.54,,,2102016.0
1596631441.578125,-14.67,,,2100204.0
1596631441.59375,-16.68,,,2098093.0
1596631441.609375,-18.49,,,2096422.0
1596631441.625,-20.17,,,2096330.0
1596631441.640625,-21.96,,,2097126.0
1596631441.65625,-24.17,,,2098409.0
1596631441.671875,-27.0,,,2099729.0
1596631441.6875,-30.39,,,2100394.0
1596631441.703125,-33.94,,,2100987.0
1596631441.71875,-36.97,,,2101162.0
1596631441.734375,-38.68,,,2101118.0
1596631441.75,-38.4,,,2101564.0
1596631441.765625,-35.86,,,2102264.0
1596631441.78125,-31.3,,,2102592.0
1596631441.796875,-25.38,,,2103664.0
1596631441.8125,-18.95,,,2104245.0
1596631441.828125,-12.79,,,2105490.0
1596631441.84375,-7.41,,,2106315.0
1596631441.859375,-2.96,,,2107315.0
1596631441.875,0.59,,,2109008.0
1596631441.890625,3.4,,,2110235.0
1596631441.90625,5.64,,,2111902.0
1596631441.921875,7.46,,,2113610.0
1596631441.9375,9.01,,,2115068.0
1596631441.953125,10.42,,,2116959.0
1596631441.96875,11.76,,,2118633.0
1596631441.984375,13.0,,,2120515.0
1596631442.0,14.05,,,2122228.0
1596631442.015625,14.83,,,2124302.0
1596631442.03125,15.34,,,2125242.0
1596631442.046875,15.68,,,2124990.0
1596631442.0625,15.98,,,2124036.0
1596631442.078125,16.31,,,2122363.0
1596631442.09375,16.68,,,2121297.0
1596631442.109375,17.06,,,2120455.0
1596631442.125,17.47,,,2120048.0
1596631442.140625,18.06,,,2120237.0
1596631442.15625,18.99,,,2120254.0
1596631442.171875,20.35,,,2119547.0
1596631442.1875,21.99,,,2119729.0
1596631442.203125,23.56,,,2119906.0
1596631442.21875,24.66,,,2120735.0
1596631442.234375,24.99,,,2121256.0
1596631442.25,24.56,,,2122182.0
1596631442.265625,23.63,,,2123259.0
1596631442.28125,22.61,,,2124810.0
1596631442.296875,21.82,,,2125661.0
1596631442.3125,21.42,,,2127031.0
1596631442.328125,21.32,,,2128332.0
1596631442.34375,21.25,,,2129918.0
1596631442.359375,20.99,,,2131731.0
1596631442.375,20.34,,,2133565.0
1596631442.390625,19.24,,,2134805.0
1596631442.40625,17.76,,,2136745.0
1596631442.421875,16.13,,,2138878.0
1596631442.4375,14.63,,,2140546.0
1596631442.453125,13.56,,,2142087.0
1596631442.46875,13.09,,,2142331.0
1596631442.484375,13.15,,,2141092.0
1596631442.5,13.45,,,2139718.0
1596631442.515625,13.5,,,2138711.0
1596631442.53125,12.8,,,2137461.0
1596631442.546875,11.08,,,2136851.0
1596631442.5625,8.4,,,2136488.0
1596631442.578125,5.17,,,2136028.0
1596631442.59375,2.0,,,2135697.0
1596631442.609375,-0.58,,,2135621.0
1596631442.625,-2.31,,,2135365.0
1596631442.640625,-3.32,,,2135973.0
1596631442.65625,-4.18,,,2136477.0
1596631442.671875,-5.73,,,2137162.0
1596631442.6875,-8.95,,,2137963.0
1596631442.703125,-14.6,,,2139025.0
1596631442.71875,-22.96,,,2140032.0
1596631442.734375,-33.58,,,2141237.0
1596631442.75,-45.29,,,2142406.0
1596631442.765625,-56.43,,,2143314.0
1596631442.78125,-65.34,,,2145076.0
1596631442.796875,-70.8,,,2145076.0
1596631442.8125,-72.36,,,2146198.0
1596631442.828125,-70.33,,,2147939.0
1596631442.84375,-65.57,,,2149325.0
1596631442.859375,-59.08,,,2151115.0
1596631442.875,-51.73,,,2152994.0
1596631442.890625,-44.11,,,2154048.0
1596631442.90625,-36.59,,,2155847.0
1596631442.921875,-29.43,,,2157401.0
1596631442.9375,-22.82,,,2157983.0
1596631442.953125,-16.94,,,2156990.0
1596631442.96875,-11.82,,,2155354.0
1596631442.984375,-7.42,,,2154291.0
1596631443.0,-3.55,,,2153120.0
1596631443.015625,-0.03,,,2151902.0
1596631443.03125,3.34,,,2151109.0
1596631443.046875,6.66,,,2150854.0
1596631443.0625,9.87,,,2150191.0
1596631443.078125,12.86,,,2149693.0
1596631443.09375,15.44,,,2149358.0
1596631443.109375,17.49,,,2149144.0
1596631443.125,19.01,,,2149530.0
1596631443.140625,20.11,,,2150052.0
1596631443.15625,20.99,,,2150393.0
1596631443.171875,21.8,,,2151569.0
1596631443.1875,22.61,,,2152406.0
1596631443.203125,23.32,,,2154803.0
1596631443.21875,23.78,,,2159137.0
1596631443.234375,23.86,,,2162548.0
1596631443.25,23.52,,,2166287.0
1596631443.265625,22.85,,,2169006.0
1596631443.28125,21.98,,,2170838.0
1596631443.296875,21.01,,,2172036.0
1596631443.3125,19.94,,,2173365.0
1596631443.328125,18.69,,,2174317.0
1596631443.34375,17.13,,,2175830.0
1596631443.359375,15.23,,,2176647.0
1596631443.375,13.09,,,2176618.0
1596631443.390625,10.87,,,2175460.0
1596631443.40625,8.78,,,2173656.0
1596631443.421875,6.96,,,2171745.0
1596631443.4375,5.42,,,2170376.0
1596631443.453125,4.07,,,2168851.0
1596631443.46875,2.81,,,2167568.0
1596631443.484375,1.54,,,2166735.0
1596631443.5,0.15,,,2165507.0
1596631443.515625,-1.42,,,2164384.0
1596631443.53125,-3.2,,,2163689.0
1596631443.546875,-5.19,,,2162565.0
1596631443.5625,-7.3,,,2162089.0
1596631443.578125,-9.38,,,2162259.0
1596631443.59375,-11.29,,,2162223.0
1596631443.609375,-13.01,,,2162369.0
1596631443.625,-14.67,,,2162606.0
1596631443.640625,-16.54,,,2162979.0
1596631443.65625,-18.91,,,2163464.0
1596631443.671875,-21.97,,,2164009.0
1596631443.6875,-25.66,,,2164696.0
1596631443.703125,-29.56,,,2165384.0
1596631443.71875,-33.03,,,2166226.0
1596631443.734375,-35.33,,,2168197.0
1596631443.75,-35.83,,,2170136.0
1596631443.765625,-34.19,,,2169368.0
1596631443.78125,-30.46,,,2171410.0
1596631443.796875,-25.08,,,2172523.0
1596631443.8125,-18.69,,,2173437.0
1596631443.828125,-12.07,,,2173533.0
1596631443.84375,-5.86,,,2167190.0
1596631443.859375,-0.58,,,2172339.0
1596631443.875,3.55,,,2169952.0
1596631443.890625,6.54,,,2167677.0
1596631443.90625,8.62,,,2165995.0
1596631443.921875,10.11,,,2164999.0
1596631443.9375,11.33,,,2167599.0
1596631443.953125,12.45,,,2170138.0
1596631443.96875,13.49,,,2172729.0
1596631443.984375,14.33,,,2174224.0
1596631444.0,14.84,,,2173998.0
1596631444.015625,14.99,,,2172930.0
1596631444.03125,14.9,,,2171497.0
1596631444.046875,14.79,,,2170884.0
1596631444.0625,14.83,,,2170152.0
1596631444.078125,15.12,,,2169099.0
1596631444.09375,15.64,,,2169477.0
1596631444.109375,16.31,,,2169006.0
1596631444.125,17.08,,,2169267.0
1596631444.140625,17.91,,,2169499.0
1596631444.15625,18.78,,,2169713.0
1596631444.171875,19.58,,,2170082.0
1596631444.1875,20.11,,,2170689.0
1596631444.203125,20.16,,,2171263.0
1596631444.21875,19.56,,,2171765.0
1596631444.234375,18.36,,,2172324.0
1596631444.25,16.79,,,2172992.0
1596631444.265625,15.19,,,2173842.0
1596631444.28125,13.85,,,2174924.0
1596631444.296875,12.87,,,2175929.0
1596631444.3125,12.11,,,2175976.0
1596631444.328125,11.28,,,2175199.0
1596631444.34375,10.12,,,2172727.0
1596631444.359375,8.55,,,2170431.0
1596631444.375,6.67,,,2167893.0
1596631444.390625,4.75,,,2166452.0
1596631444.40625,3.04,,,2164716.0
1596631444.421875,1.61,,,2163045.0
1596631444.4375,0.37,,,2161596.0
1596631444.453125,-0.92,,,2160115.0
1596631444.46875,-2.48,,,2159006.0
1596631444.484375,-4.38,,,2157302.0
1596631444.5,-6.6,,,2156671.0
1596631444.515625,-9.0,,,2156121.0
1596631444.53125,-11.44,,,2155693.0
1596631444.546875,-13.85,,,2155751.0
1596631444.5625,-16.19,,,2155653.0
1596631444.578125,-18.48,,,2155793.0
1596631444.59375,-20.8,,,2156111.0
1596631444.609375,-23.26,,,2156145.0
1596631444.625,-26.01,,,2156917.0
1596631444.640625,-29.21,,,2160089.0
1596631444.65625,-32.93,,,2163656.0
1596631444.671875,-36.99,,,2165845.0
1596631444.6875,-40.95,,,2168058.0
1596631444.703125,-44.09,,,2170450.0
1596631444.71875,-45.58,,,2172456.0
1596631444.734375,-44.8,,,2174417.0
1596631444.75,-41.52,,,2176100.0
1596631444.765625,-36.08,,,2177595.0
1596631444.78125,-29.25,,,2177598.0
1596631444.796875,-22.0,,,2176548.0
1596631444.8125,-15.15,,,2174277.0
1596631444.828125,-9.2,,,2172132.0
1596631444.84375,-4.26,,,2169632.0
1596631444.859375,-0.18,,,2167166.0
1596631444.875,3.29,,,2164998.0
1596631444.890625,6.38,,,2163154.0
1596631444.90625,9.2,,,2161374.0
1596631444.921875,11.84,,,2159834.0
1596631444.9375,14.29,,,2158201.0
1596631444.953125,16.53,,,2157167.0
1596631444.96875,18.52,,,2155945.0
1596631444.984375,20.16,,,2155841.0
1596631445.0,21.38,,,2155170.0
1596631445.015625,22.12,,,2154672.0
1596631445.03125,22.42,,,2154747.0
1596631445.046875,22.39,,,2154560.0
1596631445.0625,22.18,,,2154674.0
1596631445.078125,22.01,,,2155012.0
1596631445.09375,22.02,,,2155137.0
1596631445.109375,22.37,,,2155645.0
1596631445.125,23.03,,,2156365.0
1596631445.140625,23.89,,,2156466.0
1596631445.15625,24.68,,,2157108.0
1596631445.171875,25.16,,,2157955.0
1596631445.1875,25.13,,,2158658.0
1596631445.203125,24.61,,,2159464.0
1596631445.21875,23.77,,,2160363.0
1596631445.234375,22.85,,,2161289.0
1596631445.25,22.06,,,2161859.0
1596631445.265625,21.43,,,2161313.0
1596631445.28125,20.87,,,2159333.0
1596631445.296875,20.2,,,2156233.0
1596631445.3125,19.26,,,2153539.0
1596631445.328125,17.98,,,2151044.0
1596631445.34375,16.47,,,2148504.0
1596631445.359375,14.82,,,2146863.0
1596631445.375,13.15,,,2145338.0
1596631445.390625,11.52,,,2143337.0
1596631445.40625,9.89,,,2141137.0
1596631445.421875,8.24,,,2139632.0
1596631445.4375,6.57,,,2138256.0
1596631445.453125,4.94,,,2138256.0
1596631445.46875,3.46,,,2137153.0
1596631445.484375,2.18,,,2136477.0
1596631445.5,1.08,,,2136021.0
1596631445.515625,-0.02,,,2136004.0
1596631445.53125,-1.4,,,2135788.0
1596631445.546875,-3.29,,,2135543.0
1596631445.5625,-5.83,,,2135543.0
1596631445.578125,-8.9,,,2135760.0
1596631445.59375,-12.2,,,2136179.0
1596631445.609375,-15.37,,,2136323.0
1596631445.625,-18.13,,,2137318.0
1596631445.640625,-20.44,,,2137762.0
1596631445.65625,-22.46,,,2138633.0
1596631445.671875,-24.53,,,2139190.0
1596631445.6875,-26.97,,,2140090.0
1596631445.703125,-29.99,,,2141181.0
1596631445.71875,-33.63,,,2142201.0
1596631445.734375,-37.67,,,2142717.0
1596631445.75,-41.68,,,2141867.0
1596631445.765625,-45.04,,,2139136.0
1596631445.78125,-46.99,,,2135597.0
1596631445.796875,-46.85,,,2132375.0
1596631445.8125,-44.22,,,2129532.0
1596631445.828125,-39.18,,,2126365.0
1596631445.84375,-32.36,,,2123601.0
1596631445.859375,-24.74,,,2121337.0
1596631445.875,-17.34,,,2119059.0
1596631445.890625,-10.95,,,2116472.0
1596631445.90625,-5.87,,,2114326.0
1596631445.921875,-1.93,,,2112766.0
1596631445.9375,1.25,,,2111404.0
1596631445.953125,4.1,,,2110605.0
1596631445.96875,6.85,,,2109793.0
1596631445.984375,9.53,,,2109094.0
1596631446.0,12.04,,,2108916.0
1596631446.015625,14.22,,,2108644.0
1596631446.03125,16.03,,,2108724.0
1596631446.046875,17.5,,,2108929.0
1596631446.0625,18.75,,,2108954.0
1596631446.078125,19.89,,,2109482.0
1596631446.09375,20.9,,,2109829.0
1596631446.109375,21.74,,,2110678.0
1596631446.125,22.32,,,2111249.0
1596631446.140625,22.64,,,2112019.0
1596631446.15625,22.81,,,2113339.0
1596631446.171875,23.01,,,2114632.0
1596631446.1875,23.36,,,2115482.0
1596631446.203125,23.83,,,2116621.0
1596631446.21875,24.21,,,2117859.0
1596631446.234375,24.29,,,2117702.0
1596631446.25,23.9,,,2117313.0
1596631446.265625,23.1,,,2118163.0
1596631446.28125,22.1,,,2118671.0
1596631446.296875,21.15,,,2119362.0
1596631446.3125,20.39,,,2119357.0
1596631446.328125,19.79,,,2118542.0
1596631446.34375,19.18,,,2117640.0
1596631446.359375,18.39,,,2115860.0
1596631446.375,17.38,,,2113520.0
1596631446.390625,16.22,,,2111566.0
1596631446.40625,15.04,,,2109587.0
1596631446.421875,13.94,,,2108190.0
1596631446.4375,12.92,,,2107317.0
1596631446.453125,11.93,,,2106634.0
1596631446.46875,10.89,,,2106104.0
1596631446.484375,9.73,,,2105883.0
1596631446.5,8.42,,,2105811.0
1596631446.515625,6.91,,,2105705.0
1596631446.53125,5.22,,,2105760.0
1596631446.546875,3.38,,,2106048.0
1596631446.5625,1.47,,,2106655.0
1596631446.578125,-0.35,,,2107223.0
1596631446.59375,-2.0,,,2107841.0
1596631446.609375,-3.43,,,2108633.0
1596631446.625,-4.72,,,2110029.0
1596631446.640625,-5.98,,,2110829.0
1596631446.65625,-7.37,,,2112194.0
1596631446.671875,-8.96,,,2113291.0
1596631446.6875,-10.75,,,2114497.0
1596631446.703125,-12.71,,,2113689.0
1596631446.71875,-14.77,,,2110757.0
1596631446.734375,-16.88,,,2107281.0
1596631446.75,-19.04,,,2103599.0
1596631446.765625,-21.3,,,2100546.0
1596631446.78125,-23.77,,,2097369.0
1596631446.796875,-26.57,,,2094936.0
1596631446.8125,-29.77,,,2092699.0
1596631446.828125,-33.31,,,2090596.0
1596631446.84375,-36.9,,,2088541.0
1596631446.859375,-40.02,,,2086414.0
1596631446.875,-41.97,,,2085082.0
1596631446.890625,-42.16,,,2084373.0
1596631446.90625,-40.24,,,2083546.0
1596631446.921875,-36.29,,,2083145.0
1596631446.9375,-30.81,,,2083231.0
1596631446.953125,-24.53,,,2083231.0
1596631446.96875,-18.21,,,2083575.0
1596631446.984375,-12.4,,,2083887.0
1596631447.0,-7.35,,,2086807.0
1596631447.015625,-3.04,,,2092850.0
1596631447.03125,0.69,,,2098617.0
1596631447.046875,3.97,,,2103324.0
1596631447.0625,6.9,,,2107292.0
1596631447.078125,9.46,,,2108838.0
1596631447.09375,11.64,,,2109123.0
1596631447.109375,13.44,,,2109615.0
1596631447.125,14.89,,,2109813.0
1596631447.140625,16.0,,,2109884.0
1596631447.15625,16.82,,,2110432.0
1596631447.171875,17.38,,,2111036.0
1596631447.1875,17.72,,,2112089.0
1596631447.203125,17.98,,,2112369.0
1596631447.21875,18.31,,,2111064.0
1596631447.234375,18.85,,,2107692.0
1596631447.25,19.73,,,2104533.0
1596631447.265625,20.92,,,2101013.0
1596631447.28125,22.27,,,2098162.0
1596631447.296875,23.5,,,2095403.0
1596631447.3125,24.34,,,2093558.0
1596631447.328125,24.54,,,2091794.0
1596631447.34375,24.12,,,2089465.0
1596631447.359375,23.25,,,2087907.0
1596631447.375,22.21,,,2086445.0
1596631447.390625,21.25,,,2085604.0
1596631447.40625,20.45,,,2085080.0
1596631447.421875,19.7,,,2085056.0
1596631447.4375,18.83,,,2085379.0
1596631447.453125,17.68,,,2085823.0
1596631447.46875,16.25,,,2086115.0
1596631447.484375,14.65,,,2086795.0
1596631447.5,13.0,,,2087298.0
1596631447.515625,11.36,,,2088296.0
1596631447.53125,9.72,,,2089120.0
1596631447.546875,7.99,,,2090788.0
1596631447.5625,6.14,,,2092049.0
1596631447.578125,4.24,,,2093485.0
1596631447.59375,2.43,,,2095138.0
1596631447.609375,0.83,,,2097041.0
1596631447.625,-0.55,,,2098611.0
1596631447.640625,-1.8,,,2100608.0
1596631447.65625,-3.08,,,2101649.0
1596631447.671875,-4.57,,,2100569.0
1596631447.6875,-6.32,,,2097895.0
1596631447.703125,-8.31,,,2095389.0
1596631447.71875,-10.38,,,2092651.0
1596631447.734375,-12.34,,,2090586.0
1596631447.75,-14.07,,,2088646.0
1596631447.765625,-15.51,,,2087367.0
1596631447.78125,-16.75,,,2086199.0
1596631447.796875,-17.96,,,2085126.0
1596631447.8125,-19.4,,,2084071.0
1596631447.828125,-21.3,,,2083415.0
1596631447.84375,-23.88,,,2083464.0
1596631447.859375,-27.22,,,2084420.0
1596631447.875,-31.17,,,2085816.0
1596631447.890625,-35.27,,,2090167.0
1596631447.90625,-38.81,,,2095687.0
1596631447.921875,-40.94,,,2100605.0
1596631447.9375,-40.97,,,2105154.0
1596631447.953125,-38.53,,,2107520.0
1596631447.96875,-33.82,,,2107520.0
1596631447.984375,-27.46,,,2107664.0
1596631448.0,-20.35,,,2108712.0
1596631448.015625,-13.38,,,2108637.0
1596631448.03125,-7.19,,,2108828.0
1596631448.046875,-2.08,,,2108969.0
1596631448.0625,1.98,,,2109480.0
1596631448.078125,5.21,,,2110255.0
1596631448.09375,7.81,,,2111763.0
1596631448.109375,9.97,,,2112675.0
1596631448.125,11.75,,,2114606.0
1596631448.140625,13.16,,,2116069.0
1596631448.15625,14.2,,,2117996.0
1596631448.171875,14.87,,,2119768.0
1596631448.1875,15.23,,,2121631.0
1596631448.203125,15.41,,,2123502.0
1596631448.21875,15.54,,,2124508.0
1596631448.234375,15.79,,,2123148.0
1596631448.25,16.24,,,2120281.0
1596631448.265625,16.92,,,2117762.0
1596631448.28125,17.75,,,2113659.0
1596631448.296875,18.56,,,2115540.0
1596631448.3125,19.25,,,2112239.0
1596631448.328125,19.76,,,2111161.0
1596631448.34375,20.13,,,2110004.0
1596631448.359375,20.41,,,2108987.0
1596631448.375,20.59,,,2107602.0
1596631448.390625,20.54,,,2107080.0
1596631448.40625,20.08,,,2106907.0
1596631448.421875,19.06,,,2106619.0
1596631448.4375,17.52,,,2107076.0
1596631448.453125,15.69,,,2107599.0
1596631448.46875,13.88,,,2108256.0
1596631448.484375,12.36,,,2108458.0
1596631448.5,11.21,,,2109185.0
1596631448.515625,10.27,,,2110404.0
1596631448.53125,9.3,,,2111629.0
1596631448.546875,8.05,,,2112817.0
1596631448.5625,6.47,,,2114232.0
1596631448.578125,4.7,,,2115770.0
1596631448.59375,2.96,,,2117284.0
1596631448.609375,1.44,,,2118897.0
1596631448.625,0.17,,,2120687.0
1596631448.640625,-1.0,,,2122177.0
1596631448.65625,-2.3,,,2124081.0
1596631448.671875,-3.88,,,2126119.0
1596631448.6875,-5.75,,,2127825.0
1596631448.703125,-7.79,,,2128570.0
1596631448.71875,-9.82,,,2127233.0
1596631448.734375,-11.74,,,2124776.0
1596631448.75,-13.56,,,2122475.0
1596631448.765625,-15.35,,,2120579.0
1596631448.78125,-17.26,,,2119234.0
1596631448.796875,-19.41,,,2118494.0
1596631448.8125,-21.89,,,2119343.0
1596631448.828125,-24.79,,,2120599.0
1596631448.84375,-28.17,,,2121397.0
1596631448.859375,-31.93,,,2122773.0
1596631448.875,-35.71,,,2123886.0
1596631448.890625,-38.88,,,2125627.0
1596631448.90625,-40.66,,,2126848.0
1596631448.921875,-40.37,,,2127511.0
1596631448.9375,-37.67,,,2128596.0
1596631448.953125,-32.74,,,2129218.0
1596631448.96875,-26.21,,,2129649.0
1596631448.984375,-18.98,,,2130681.0
1596631449.0,-11.93,,,2131133.0
1596631449.015625,-5.72,,,2132464.0
1596631449.03125,-0.67,,,2133587.0
1596631449.046875,3.23,,,2134641.0
1596631449.0625,6.23,,,2136051.0
1596631449.078125,8.65,,,2137405.0
1596631449.09375,10.78,,,2138584.0
1596631449.109375,12.79,,,2140176.0
1596631449.125,14.7,,,2142082.0
1596631449.140625,16.43,,,2143509.0
1596631449.15625,17.86,,,2145038.0
1596631449.171875,18.88,,,2146984.0
1596631449.1875,19.42,,,2147755.0
1596631449.203125,19.53,,,2146339.0
1596631449.21875,19.39,,,2143517.0
1596631449.234375,19.19,,,2141148.0
1596631449.25,19.19,,,2139145.0
1596631449.265625,19.57,,,2136701.0
1596631449.28125,20.33,,,2134796.0
1596631449.296875,21.36,,,2133553.0
1596631449.3125,22.46,,,2132139.0
1596631449.328125,23.39,,,2130872.0
1596631449.34375,23.99,,,2129504.0
1596631449.359375,24.2,,,2128654.0
1596631449.375,24.02,,,2127721.0
1596631449.390625,23.45,,,2127385.0
1596631449.40625,22.48,,,2127207.0
1596631449.421875,21.12,,,2127162.0
1596631449.4375,19.45,,,2127548.0
1596631449.453125,17.66,,,2127537.0
1596631449.46875,15.99,,,2127537.0
1596631449.484375,14.64,,,2128118.0
1596631449.5,13.69,,,2128587.0
1596631449.515625,13.02,,,2128960.0
1596631449.53125,12.4,,,2129863.0
1596631449.546875,11.6,,,2131050.0
1596631449.5625,10.47,,,2132470.0
1596631449.578125,9.07,,,2134710.0
1596631449.59375,7.59,,,2135603.0
1596631449.609375,6.25,,,2138404.0
1596631449.625,5.16,,,2142978.0
1596631449.640625,4.32,,,2146273.0
1596631449.65625,3.55,,,2150077.0
1596631449.671875,2.65,,,2152475.0
1596631449.6875,1.41,,,2154514.0
1596631449.703125,-0.27,,,2155854.0
1596631449.71875,-2.35,,,2155936.0
1596631449.734375,-4.72,,,2154345.0
1596631449.75,-7.21,,,2151773.0
1596631449.765625,-9.64,,,2149625.0
1596631449.78125,-11.92,,,2147506.0
1596631449.796875,-14.0,,,2145638.0
1596631449.8125,-15.95,,,2144030.0
1596631449.828125,-17.89,,,2142977.0
1596631449.84375,-19.91,,,2141033.0
1596631449.859375,-22.13,,,2139665.0
1596631449.875,-24.61,,,2138317.0
1596631449.890625,-27.38,,,2137694.0
1596631449.90625,-30.51,,,2136868.0
1596631449.921875,-34.01,,,2136807.0
1596631449.9375,-37.75,,,2136567.0
1596631449.953125,-41.31,,,2136613.0
1596631449.96875,-44.01,,,2137287.0
1596631449.984375,-45.03,,,2137491.0
1596631450.0,-43.71,,,2138379.0
1596631450.015625,-39.82,,,2138974.0
1596631450.03125,-33.73,,,2139396.0
1596631450.046875,-26.26,,,2140483.0
1596631450.0625,-18.49,,,2141440.0
1596631450.078125,-11.33,,,2143253.0
1596631450.09375,-5.32,,,2144764.0
1596631450.109375,-0.55,,,2145858.0
1596631450.125,3.19,,,2142356.0
1596631450.140625,6.24,,,2147492.0
1596631450.15625,8.88,,,2148868.0
1596631450.171875,11.23,,,2149504.0
1596631450.1875,13.31,,,2148759.0
1596631450.203125,15.1,,,2142500.0
1596631450.21875,16.53,,,2145466.0
1596631450.234375,17.69,,,2139577.0
1596631450.25,18.65,,,2136699.0
1596631450.265625,19.5,,,2134431.0
1596631450.28125,20.3,,,2132276.0
1596631450.296875,21.05,,,2132548.0
1596631450.3125,21.74,,,2135037.0
1596631450.328125,22.35,,,2136988.0
1596631450.34375,22.94,,,2138283.0
1596631450.359375,23.58,,,2138577.0
1596631450.375,24.35,,,2138526.0
1596631450.390625,25.28,,,2137761.0
1596631450.40625,26.32,,,2137545.0
1596631450.421875,27.39,,,2136848.0
1596631450.4375,28.32,,,2136417.0
1596631450.453125,29.0,,,2136077.0
1596631450.46875,29.33,,,2136272.0
1596631450.484375,29.26,,,2136143.0
1596631450.5,28.79,,,2136781.0
1596631450.515625,28.0,,,2136946.0
1596631450.53125,27.02,,,2137953.0
1596631450.546875,25.98,,,2137958.0
1596631450.5625,24.91,,,2138634.0
1596631450.578125,23.79,,,2139401.0
1596631450.59375,22.55,,,2139352.0
1596631450.609375,21.17,,,2139787.0
1596631450.625,19.68,,,2139732.0
1596631450.640625,18.13,,,2140312.0
1596631450.65625,16.55,,,2140995.0
1596631450.671875,14.87,,,2141905.0
1596631450.6875,13.01,,,2141730.0
1596631450.703125,10.95,,,2139429.0
1596631450.71875,8.81,,,2135526.0
1596631450.734375,6.76,,,2131962.0
1596631450.75,4.87,,,2129198.0
1596631450.765625,2.87,,,2126456.0
1596631450.78125,0.1,,,2124149.0
1596631450.796875,-4.2,,,2121704.0
1596631450.8125,-10.56,,,2119728.0
1596631450.828125,-18.81,,,2117339.0
1596631450.84375,-28.06,,,2114782.0
1596631450.859375,-36.92,,,2112863.0
1596631450.875,-44.01,,,2111773.0
1596631450.890625,-48.5,,,2110483.0
1596631450.90625,-50.34,,,2110011.0
1596631450.921875,-50.19,,,2110066.0
1596631450.9375,-49.02,,,2110004.0
1596631450.953125,-47.74,,,2110378.0
1596631450.96875,-46.9,,,2110736.0
1596631450.984375,-46.67,,,2110993.0
1596631451.0,-46.95,,,2111639.0
1596631451.015625,-47.53,,,2112288.0
1596631451.03125,-48.07,,,2112805.0
1596631451.046875,-48.14,,,2113749.0
1596631451.0625,-47.19,,,2115045.0
1596631451.078125,-44.67,,,2119412.0
1596631451.09375,-40.22,,,2126344.0
1596631451.109375,-33.92,,,2130617.0
1596631451.125,-26.32,,,2132089.0
1596631451.140625,-18.39,,,2130358.0
1596631451.15625,-11.07,,,2125556.0
1596631451.171875,-5.06,,,2120871.0
1596631451.1875,-0.51,,,2115794.0
1596631451.203125,2.89,,,2111971.0
1596631451.21875,5.71,,,2108660.0
1596631451.234375,8.42,,,2105162.0
1596631451.25,11.24,,,2101850.0
1596631451.265625,14.08,,,2099379.0
1596631451.28125,16.62,,,2096667.0
1596631451.296875,18.61,,,2095197.0
1596631451.3125,19.95,,,2093800.0
1596631451.328125,20.72,,,2092454.0
1596631451.34375,21.16,,,2091888.0
1596631451.359375,21.51,,,2091245.0
1596631451.375,21.94,,,2091094.0
1596631451.390625,22.53,,,2090981.0
1596631451.40625,23.26,,,2091165.0
1596631451.421875,24.02,,,2091599.0
1596631451.4375,24.69,,,2092283.0
1596631451.453125,25.18,,,2093017.0
1596631451.46875,25.42,,,2093969.0
1596631451.484375,25.45,,,2095070.0
1596631451.5,25.3,,,2095965.0
1596631451.515625,25.04,,,2095960.0
1596631451.53125,24.66,,,2093602.0
1596631451.546875,24.16,,,2090042.0
1596631451.5625,23.48,,,2086446.0
1596631451.578125,22.61,,,2082928.0
1596631451.59375,21.55,,,2079412.0
1596631451.609375,20.33,,,2077028.0
1596631451.625,18.97,,,2075372.0
1596631451.640625,17.45,,,2073660.0
1596631451.65625,15.77,,,2073414.0
1596631451.671875,13.97,,,2072854.0
1596631451.6875,12.18,,,2071706.0
1596631451.703125,10.59,,,2070717.0
1596631451.71875,9.37,,,2070363.0
1596631451.734375,8.6,,,2070511.0
1596631451.75,8.11,,,2070801.0
1596631451.765625,7.63,,,2071013.0
1596631451.78125,6.89,,,2071863.0
1596631451.796875,5.72,,,2072468.0
1596631451.8125,4.18,,,2073300.0
1596631451.828125,2.44,,,2074442.0
1596631451.84375,0.72,,,2076298.0
1596631451.859375,-0.86,,,2077415.0
1596631451.875,-2.28,,,2078400.0
1596631451.890625,-3.64,,,2076483.0
1596631451.90625,-5.06,,,2072175.0
1596631451.921875,-6.58,,,2067371.0
1596631451.9375,-8.2,,,2063428.0
1596631451.953125,-9.87,,,2059879.0
1596631451.96875,-11.57,,,2056599.0
1596631451.984375,-13.31,,,2054375.0
1596631452.0,-15.1,,,2052779.0
1596631452.015625,-16.99,,,2050476.0
1596631452.03125,-19.01,,,2049162.0
1596631452.046875,-21.25,,,2047937.0
1596631452.0625,-23.85,,,2046801.0
1596631452.078125,-26.93,,,2046514.0
1596631452.09375,-30.49,,,2046693.0
1596631452.109375,-34.28,,,2047158.0
1596631452.125,-37.75,,,2047648.0
1596631452.140625,-40.12,,,2048333.0
1596631452.15625,-40.63,,,2049288.0
1596631452.171875,-38.79,,,2050490.0
1596631452.1875,-34.6,,,2051871.0
1596631452.203125,-28.53,,,2053176.0
1596631452.21875,-21.44,,,2054892.0
1596631452.234375,-14.23,,,2056622.0
1596631452.25,-7.62,,,2056718.0
1596631452.265625,-1.96,,,2053822.0
1596631452.28125,2.73,,,2049428.0
1596631452.296875,6.7,,,2045757.0
1596631452.3125,10.24,,,2042334.0
1596631452.328125,13.64,,,2039766.0
1596631452.34375,17.01,,,2037208.0
1596631452.359375,20.37,,,2036041.0
1596631452.375,23.61,,,2034805.0
1596631452.390625,26.59,,,2034117.0
1596631452.40625,29.2,,,2033119.0
1596631452.421875,31.4,,,2032760.0
1596631452.4375,33.28,,,2033078.0
1596631452.453125,34.96,,,2033770.0
1596631452.46875,36.57,,,2034935.0
1596631452.484375,38.16,,,2036005.0
1596631452.5,39.63,,,2037690.0
1596631452.515625,40.82,,,2039630.0
1596631452.53125,41.58,,,2041816.0
1596631452.546875,41.89,,,2043852.0
1596631452.5625,41.87,,,2046273.0
1596631452.578125,41.69,,,2049359.0
1596631452.59375,41.48,,,2052529.0
1596631452.609375,41.26,,,2055882.0
1596631452.625,40.83,,,2059811.0
1596631452.640625,39.91,,,2063069.0
1596631452.65625,38.09,,,2064771.0
1596631452.671875,34.94,,,2065058.0
1596631452.6875,30.0,,,2065069.0
1596631452.703125,22.99,,,2064988.0
1596631452.71875,13.93,,,2063712.0
1596631452.734375,3.28,,,2063273.0
1596631452.75,-7.98,,,2062793.0
1596631452.765625,-18.58,,,2062677.0
1596631452.78125,-27.3,,,2062684.0
1596631452.796875,-33.3,,,2062691.0
1596631452.8125,-36.38,,,2063250.0
1596631452.828125,-36.87,,,2063686.0
1596631452.84375,-35.49,,,2064680.0
1596631452.859375,-32.92,,,2065732.0
1596631452.875,-29.7,,,2067046.0
1596631452.890625,-26.18,,,2068518.0
1596631452.90625,-22.68,,,2070343.0
1596631452.921875,-19.56,,,2072467.0
1596631452.9375,-17.21,,,2074266.0
1596631452.953125,-15.93,,,2076568.0
1596631452.96875,-15.7,,,2078728.0
1596631452.984375,-16.09,,,2081149.0
1596631453.0,-16.46,,,2083840.0
1596631453.015625,-16.17,,,2086051.0
1596631453.03125,-15.0,,,2088935.0
1596631453.046875,-13.22,,,2090811.0
1596631453.0625,-11.54,,,2092131.0
1596631453.078125,-10.67,,,2093890.0
1596631453.09375,-11.02,,,2095849.0
1596631453.109375,-12.5,,,2096606.0
1596631453.125,-14.6,,,2095272.0
1596631453.140625,-16.72,,,2093969.0
1596631453.15625,-18.44,,,2093128.0
1596631453.171875,-19.71,,,2092412.0
1596631453.1875,-20.73,,,2092266.0
1596631453.203125,-21.77,,,2092663.0
1596631453.21875,-23.01,,,2093461.0
1596631453.234375,-24.55,,,2093924.0
1596631453.25,-26.46,,,2094784.0
1596631453.265625,-28.85,,,2095571.0
1596631453.28125,-31.83,,,2097124.0
1596631453.296875,-35.27,,,2098255.0
1596631453.3125,-38.71,,,2099930.0
1596631453.328125,-41.29,,,2101990.0
1596631453.34375,-42.04,,,2104017.0
1596631453.359375,-40.22,,,2106253.0
1596631453.375,-35.69,,,2108444.0
1596631453.390625,-28.99,,,2110981.0
1596631453.40625,-21.13,,,2112855.0
1596631453.421875,-13.3,,,2115515.0
1596631453.4375,-6.4,,,2118095.0
1596631453.453125,-0.9,,,2120316.0
1596631453.46875,3.21,,,2123140.0
1596631453.484375,6.19,,,2125554.0
1596631453.5,8.42,,,2128183.0
1596631453.515625,10.23,,,2128183.0
1596631453.53125,11.83,,,2129096.0
1596631453.546875,13.37,,,2128673.0
1596631453.5625,14.91,,,2127888.0
1596631453.578125,16.41,,,2126621.0
1596631453.59375,17.77,,,2125471.0
1596631453.609375,18.83,,,2125075.0
1596631453.625,19.49,,,2125586.0
1596631453.640625,19.75,,,2126710.0
1596631453.65625,19.72,,,2127548.0
1596631453.671875,19.62,,,2128458.0
1596631453.6875,19.59,,,2129307.0
1596631453.703125,19.73,,,2130846.0
1596631453.71875,20.05,,,2132227.0
1596631453.734375,20.54,,,2134018.0
1596631453.75,21.17,,,2135726.0
1596631453.765625,21.92,,,2137969.0
1596631453.78125,22.69,,,2144217.0
1596631453.796875,23.28,,,2140185.0
1596631453.8125,23.4,,,2146673.0
1596631453.828125,22.86,,,2150847.0
1596631453.84375,21.69,,,2148649.0
1596631453.859375,20.17,,,2153664.0
1596631453.875,18.74,,,2158622.0
1596631453.890625,17.76,,,2161160.0
1596631453.90625,17.31,,,2163016.0
1596631453.921875,17.14,,,2163943.0
1596631453.9375,16.84,,,2163295.0
1596631453.953125,16.06,,,2162846.0
1596631453.96875,14.69,,,2156003.0
1596631453.984375,12.94,,,2163320.0
1596631454.0,11.16,,,2165422.0
1596631454.015625,9.67,,,2142080.0
1596631454.03125,8.54,,,2170098.0
1596631454.046875,7.6,,,2176453.0
1596631454.0625,6.6,,,2180781.0
1596631454.078125,5.34,,,2186329.0
1596631454.09375,3.79,,,2187771.0
1596631454.109375,2.1,,,2188585.0
1596631454.125,0.48,,,2188771.0
1596631454.140625,-0.94,,,2188136.0
1596631454.15625,-2.2,,,2187844.0
1596631454.171875,-3.46,,,2188120.0
1596631454.1875,-4.98,,,2188822.0
1596631454.203125,-6.89,,,2189293.0
1596631454.21875,-9.21,,,2190763.0
1596631454.234375,-11.76,,,2191618.0
1596631454.25,-14.32,,,2193085.0
1596631454.265625,-16.7,,,2195166.0
1596631454.28125,-18.81,,,2196200.0
1596631454.296875,-20.68,,,2198273.0
1596631454.3125,-22.42,,,2200022.0
1596631454.328125,-24.15,,,2201628.0
1596631454.34375,-26.0,,,2203450.0
1596631454.359375,-28.13,,,2205478.0
1596631454.375,-30.69,,,2206899.0
1596631454.390625,-33.76,,,2207036.0
1596631454.40625,-37.21,,,2206034.0
1596631454.421875,-40.64,,,2205372.0
1596631454.4375,-43.35,,,2205207.0
1596631454.453125,-44.51,,,2205391.0
1596631454.46875,-43.5,,,2205839.0
1596631454.484375,-40.08,,,2205279.0
1596631454.5,-34.6,,,2206358.0
1596631454.515625,-27.82,,,2206967.0
1596631454.53125,-20.68,,,2207271.0
1596631454.546875,-14.0,,,2208851.0
1596631454.5625,-8.29,,,2210658.0
1596631454.578125,-3.71,,,2209495.0
1596631454.59375,-0.15,,,2208083.0
1596631454.609375,2.62,,,2211723.0
1596631454.625,4.86,,,2212976.0
1596631454.640625,6.82,,,2214285.0
1596631454.65625,8.65,,,2215386.0
1596631454.671875,10.38,,,2216949.0
1596631454.6875,11.94,,,2218158.0
1596631454.703125,13.14,,,2219193.0
1596631454.71875,13.87,,,2221057.0
1596631454.734375,14.14,,,2222523.0
1596631454.75,14.16,,,2224676.0
1596631454.765625,14.26,,,2229034.0
1596631454.78125,14.75,,,2231545.0
1596631454.796875,15.77,,,2234184.0
1596631454.8125,17.21,,,2235383.0
1596631454.828125,18.82,,,2235796.0
1596631454.84375,20.33,,,2235526.0
1596631454.859375,21.56,,,2234947.0
1596631454.875,22.5,,,2234546.0
1596631454.890625,23.18,,,2234200.0
1596631454.90625,23.61,,,2234208.0
1596631454.921875,23.71,,,2234048.0
1596631454.9375,23.33,,,2234140.0
1596631454.953125,22.39,,,2234186.0
1596631454.96875,20.95,,,2234469.0
1596631454.984375,19.23,,,2234884.0
1596631455.0,17.55,,,2235770.0
1596631455.015625,16.22,,,2236491.0
1596631455.03125,15.36,,,2237283.0
1596631455.046875,14.85,,,2238022.0
1596631455.0625,14.43,,,2239078.0
1596631455.078125,13.78,,,2239733.0
1596631455.09375,12.74,,,2241021.0
1596631455.109375,11.32,,,2242228.0
1596631455.125,9.73,,,2242228.0
1596631455.140625,8.19,,,2242751.0
1596631455.15625,6.85,,,2244034.0
1596631455.171875,5.73,,,2245531.0
1596631455.1875,4.72,,,2246681.0
1596631455.203125,3.69,,,2247977.0
1596631455.21875,2.57,,,2248528.0
1596631455.234375,1.35,,,2248048.0
1596631455.25,0.05,,,2247173.0
1596631455.265625,-1.31,,,2245850.0
1596631455.28125,-2.71,,,2244653.0
1596631455.296875,-4.12,,,2243843.0
1596631455.3125,-5.48,,,2243237.0
1596631455.328125,-6.7,,,2242924.0
1596631455.34375,-7.71,,,2242593.0
1596631455.359375,-8.59,,,2242349.0
1596631455.375,-9.54,,,2242168.0
1596631455.390625,-10.78,,,2241760.0
1596631455.40625,-12.47,,,2242171.0
1596631455.421875,-14.58,,,2242110.0
1596631455.4375,-16.86,,,2242507.0
1596631455.453125,-19.02,,,2242903.0
1596631455.46875,-20.86,,,2243605.0
1596631455.484375,-22.39,,,2244026.0
1596631455.5,-23.85,,,2244833.0
1596631455.515625,-25.6,,,2245378.0
1596631455.53125,-27.96,,,2246231.0
1596631455.546875,-31.09,,,2247068.0
1596631455.5625,-34.8,,,2248335.0
1596631455.578125,-38.58,,,2251293.0
1596631455.59375,-41.67,,,2254717.0
1596631455.609375,-43.19,,,2257814.0
1596631455.625,-42.45,,,2261101.0
1596631455.640625,-39.18,,,2263076.0
1596631455.65625,-33.63,,,2263670.0
1596631455.671875,-26.55,,,2262052.0
1596631455.6875,-18.99,,,2260716.0
1596631455.703125,-11.92,,,2259342.0
1596631455.71875,-6.05,,,2257851.0
1596631455.734375,-1.6,,,2256955.0
1596631455.75,1.62,,,2255266.0
1596631455.765625,4.03,,,2254632.0
1596631455.78125,6.07,,,2253845.0
1596631455.796875,8.03,,,2252834.0
1596631455.8125,9.96,,,2251996.0
1596631455.828125,11.75,,,2251711.0
1596631455.84375,13.21,,,2251178.0
1596631455.859375,14.27,,,2251189.0
1596631455.875,15.01,,,2251488.0
1596631455.890625,15.61,,,2251872.0
1596631455.90625,16.31,,,2251745.0
1596631455.921875,17.24,,,2252583.0
1596631455.9375,18.38,,,2252790.0
1596631455.953125,19.62,,,2253698.0
1596631455.96875,20.84,,,2254084.0
1596631455.984375,21.95,,,2254602.0
1596631456.0,22.93,,,2255843.0
1596631456.015625,23.76,,,2256135.0
1596631456.03125,24.44,,,2257220.0
1596631456.046875,24.88,,,2258030.0
1596631456.0625,25.02,,,2258989.0
1596631456.078125,24.83,,,2259171.0
1596631456.09375,24.33,,,2257875.0
1596631456.109375,23.58,,,2256295.0
1596631456.125,22.64,,,2254257.0
1596631456.140625,21.54,,,2252680.0
1596631456.15625,20.31,,,2251002.0
1596631456.171875,18.95,,,2249953.0
1596631456.1875,17.49,,,2249168.0
1596631456.203125,15.94,,,2248159.0
1596631456.21875,14.36,,,2247208.0
1596631456.234375,12.79,,,2246099.0
1596631456.25,11.29,,,2245287.0
1596631456.265625,9.92,,,2245323.0
1596631456.28125,8.71,,,2246664.0
1596631456.296875,7.66,,,2248509.0
1596631456.3125,6.72,,,2251010.0
1596631456.328125,5.85,,,2252911.0
1596631456.34375,5.02,,,2253629.0
1596631456.359375,4.18,,,2254050.0
1596631456.375,3.32,,,2254386.0
1596631456.390625,2.41,,,2254612.0
1596631456.40625,1.42,,,2255194.0
1596631456.421875,0.3,,,2255570.0
1596631456.4375,-0.99,,,2256036.0
1596631456.453125,-2.48,,,2256915.0
1596631456.46875,-4.18,,,2257835.0
1596631456.484375,-6.11,,,2258284.0
1596631456.5,-8.28,,,2258950.0
1596631456.515625,-10.63,,,2258701.0
1596631456.53125,-13.1,,,2257352.0
1596631456.546875,-15.57,,,2255490.0
1596631456.5625,-17.9,,,2253334.0
1596631456.578125,-20.01,,,2251331.0
1596631456.59375,-21.94,,,2249641.0
1596631456.609375,-23.79,,,2248321.0
1596631456.625,-25.74,,,2247115.0
1596631456.640625,-28.07,,,2245757.0
1596631456.65625,-30.98,,,2244448.0
1596631456.671875,-34.57,,,2243364.0
1596631456.6875,-38.72,,,2242154.0
1596631456.703125,-42.99,,,2241221.0
1596631456.71875,-46.67,,,2240894.0
1596631456.734375,-48.84,,,2240540.0
1596631456.75,-48.68,,,2240531.0
1596631456.765625,-45.73,,,2240512.0
1596631456.78125,-40.1,,,2240780.0
1596631456.796875,-32.57,,,2241004.0
1596631456.8125,-24.28,,,2241313.0
1596631456.828125,-16.44,,,2241030.0
1596631456.84375,-9.95,,,2241806.0
1596631456.859375,-5.15,,,2242211.0
1596631456.875,-1.83,,,2242869.0
1596631456.890625,0.57,,,2243583.0
1596631456.90625,2.7,,,2244565.0
1596631456.921875,5.01,,,2244304.0
1596631456.9375,7.69,,,2242797.0
1596631456.953125,10.56,,,2237924.0
1596631456.96875,13.33,,,2240397.0
1596631456.984375,15.71,,,2235824.0
1596631457.0,17.54,,,2235824.0
1596631457.015625,18.85,,,2232525.0
1596631457.03125,19.75,,,2233888.0
1596631457.046875,20.35,,,2231124.0
1596631457.0625,20.78,,,2229604.0
1596631457.078125,21.09,,,2228442.0
1596631457.09375,21.41,,,2227162.0
1596631457.109375,21.9,,,2226809.0
1596631457.125,22.77,,,2225600.0
1596631457.140625,24.1,,,2225351.0
1596631457.15625,25.76,,,2224685.0
1596631457.171875,27.38,,,2224706.0
1596631457.1875,28.48,,,2224135.0
1596631457.203125,28.74,,,2224482.0
1596631457.21875,28.09,,,2224437.0
1596631457.234375,26.81,,,2224844.0
1596631457.25,25.27,,,2224756.0
1596631457.265625,23.86,,,2225480.0
1596631457.28125,22.71,,,2226123.0
1596631457.296875,21.74,,,2226555.0
1596631457.3125,20.76,,,2227501.0
1596631457.328125,19.63,,,2227892.0
1596631457.34375,18.36,,,2228551.0
1596631457.359375,17.1,,,2229141.0
1596631457.375,16.01,,,2227950.0
1596631457.390625,15.19,,,2225557.0
1596631457.40625,14.59,,,2222359.0
1596631457.421875,14.06,,,2219991.0
1596631457.4375,13.39,,,2217067.0
1596631457.453125,12.51,,,2214982.0
1596631457.46875,11.4,,,2212880.0
1596631457.484375,10.2,,,2211402.0
1596631457.5,9.05,,,2209461.0
1596631457.515625,8.07,,,2207561.0
1596631457.53125,7.22,,,2206152.0
1596631457.546875,6.38,,,2204923.0
1596631457.5625,5.36,,,2204285.0
1596631457.578125,4.0,,,2204000.0
1596631457.59375,2.26,,,2203278.0
1596631457.609375,0.21,,,2203139.0
1596631457.625,-2.0,,,2202972.0
1596631457.640625,-4.2,,,2203341.0
1596631457.65625,-6.24,,,2203523.0
1596631457.671875,-8.04,,,2203523.0
1596631457.6875,-9.58,,,2203842.0
1596631457.703125,-10.91,,,2204415.0
1596631457.71875,-12.15,,,2204806.0
1596631457.734375,-13.46,,,2205742.0
1596631457.75,-14.99,,,2206571.0
1596631457.765625,-16.79,,,2207610.0
1596631457.78125,-18.83,,,2208237.0
1596631457.796875,-20.92,,,2208249.0
1596631457.8125,-22.85,,,2206180.0
1596631457.828125,-24.49,,,2203575.0
1596631457.84375,-25.87,,,2200170.0
1596631457.859375,-27.18,,,2197745.0
1596631457.875,-28.76,,,2195288.0
1596631457.890625,-30.93,,,2193467.0
1596631457.90625,-33.94,,,2191622.0
1596631457.921875,-37.77,,,2189750.0
1596631457.9375,-42.08,,,2187889.0
1596631457.953125,-46.16,,,2186331.0
1596631457.96875,-49.12,,,2184708.0
1596631457.984375,-50.05,,,2183910.0
1596631458.0,-48.35,,,2183655.0
1596631458.015625,-43.94,,,2183442.0
1596631458.03125,-37.28,,,2183295.0
1596631458.046875,-29.3,,,2183586.0
1596631458.0625,-21.08,,,2183488.0
1596631458.078125,-13.59,,,2184060.0
1596631458.09375,-7.42,,,2184286.0
1596631458.109375,-2.72,,,2184975.0
1596631458.125,0.73,,,2185684.0
1596631458.140625,3.36,,,2186308.0
1596631458.15625,5.58,,,2187231.0
1596631458.171875,7.7,,,2188139.0
1596631458.1875,9.81,,,2189201.0
1596631458.203125,11.87,,,2189827.0
1596631458.21875,13.72,,,2189512.0
1596631458.234375,15.31,,,2186925.0
1596631458.25,16.6,,,2183395.0
1596631458.265625,17.66,,,2179979.0
1596631458.28125,18.62,,,2177077.0
1596631458.296875,19.62,,,2174440.0
1596631458.3125,20.76,,,2172253.0
1596631458.328125,22.08,,,2170273.0
1596631458.34375,23.54,,,2168547.0
1596631458.359375,25.03,,,2166647.0
1596631458.375,26.35,,,2164940.0
1596631458.390625,27.33,,,2163913.0
1596631458.40625,27.87,,,2162957.0
1596631458.421875,27.99,,,2162606.0
1596631458.4375,27.82,,,2162343.0
1596631458.453125,27.53,,,2162482.0
1596631458.46875,27.21,,,2162856.0
1596631458.484375,26.84,,,2163265.0
1596631458.5,26.33,,,2163284.0
1596631458.515625,25.62,,,2164124.0
1596631458.53125,24.74,,,2165003.0
1596631458.546875,23.79,,,2165786.0
1596631458.5625,22.9,,,2166723.0
1596631458.578125,22.18,,,2167460.0
1596631458.59375,21.58,,,2168721.0
1596631458.609375,21.04,,,2169812.0
1596631458.625,20.48,,,2170790.0
1596631458.640625,19.87,,,2172121.0
1596631458.65625,19.29,,,2172830.0
1596631458.671875,18.83,,,2172582.0
1596631458.6875,18.58,,,2169643.0
1596631458.703125,18.49,,,2166082.0
1596631458.71875,18.44,,,2160186.0
1596631458.734375,18.22,,,2157443.0
1596631458.75,17.69,,,2155891.0
1596631458.765625,16.76,,,2153800.0
1596631458.78125,15.47,,,2163229.0
1596631458.796875,13.91,,,2152062.0
1596631458.8125,12.18,,,2150352.0
1596631458.828125,10.2,,,2148421.0
1596631458.84375,7.81,,,2147661.0
1596631458.859375,4.76,,,2146695.0
1596631458.875,0.94,,,2146294.0
1596631458.890625,-3.53,,,2146272.0
1596631458.90625,-8.24,,,2146294.0
1596631458.921875,-12.65,,,2145852.0
1596631458.9375,-16.47,,,2146092.0
1596631458.953125,-19.89,,,2146275.0
1596631458.96875,-23.62,,,2146873.0
1596631458.984375,-28.59,,,2147552.0
1596631459.0,-35.47,,,2148235.0
1596631459.015625,-44.29,,,2149451.0
1596631459.03125,-54.33,,,2150706.0
1596631459.046875,-64.28,,,2151430.0
1596631459.0625,-72.71,,,2153169.0
1596631459.078125,-78.39,,,2154576.0
1596631459.09375,-80.56,,,2156522.0
1596631459.109375,-78.92,,,2154689.0
1596631459.125,-73.65,,,2149318.0
1596631459.140625,-65.3,,,2151507.0
1596631459.15625,-54.78,,,2156005.0
1596631459.171875,-43.25,,,2152761.0
1596631459.1875,-31.93,,,2156620.0
1596631459.203125,-21.83,,,2160850.0
1596631459.21875,-13.57,,,2165925.0
1596631459.234375,-7.27,,,2168054.0
1596631459.25,-2.62,,,2167889.0
1596631459.265625,0.91,,,2167225.0
1596631459.28125,3.87,,,2162423.0
1596631459.296875,6.66,,,2160547.0
1596631459.3125,9.5,,,2159249.0
1596631459.328125,12.35,,,2158654.0
1596631459.34375,15.07,,,2158386.0
1596631459.359375,17.45,,,2158022.0
1596631459.375,19.4,,,2158368.0
1596631459.390625,20.94,,,2158694.0
1596631459.40625,22.2,,,2159381.0
1596631459.421875,23.36,,,2159982.0
1596631459.4375,24.54,,,2160338.0
1596631459.453125,25.72,,,2161477.0
1596631459.46875,26.85,,,2162148.0
1596631459.484375,27.81,,,2164661.0
1596631459.5,28.53,,,2164932.0
1596631459.515625,28.97,,,2167523.0
1596631459.53125,29.14,,,2167493.0
1596631459.546875,29.06,,,2164542.0
1596631459.5625,28.75,,,2160920.0
1596631459.578125,28.19,,,2157294.0
1596631459.59375,27.36,,,2163604.0
1596631459.609375,26.2,,,2166379.0
1596631459.625,24.74,,,2153752.0
1596631459.640625,23.07,,,2151220.0
1596631459.65625,21.36,,,2148728.0
1596631459.671875,19.81,,,2147006.0
1596631459.6875,18.55,,,2145270.0
1596631459.703125,17.57,,,2143177.0
1596631459.71875,16.69,,,2141833.0
1596631459.734375,15.69,,,2140395.0
1596631459.75,14.42,,,2139602.0
1596631459.765625,12.87,,,2139691.0
1596631459.78125,11.18,,,2139794.0
1596631459.796875,9.54,,,2139973.0
1596631459.8125,8.08,,,2140311.0
1596631459.828125,6.78,,,2141050.0
1596631459.84375,5.51,,,2143801.0
1596631459.859375,4.1,,,2149094.0
1596631459.875,2.44,,,2154652.0
1596631459.890625,0.5,,,2160252.0
1596631459.90625,-1.69,,,2166441.0
1596631459.921875,-4.07,,,2169473.0
1596631459.9375,-6.58,,,2171928.0
1596631459.953125,-9.16,,,2173055.0
1596631459.96875,-11.73,,,2173918.0
1596631459.984375,-14.2,,,2174644.0
1596631460.0,-16.46,,,2175196.0
1596631460.015625,-18.48,,,2175053.0
1596631460.03125,-20.28,,,2173750.0
1596631460.046875,-22.01,,,2170353.0
1596631460.0625,-23.86,,,2166106.0
1596631460.078125,-26.08,,,2162449.0
1596631460.09375,-28.89,,,2159143.0
1596631460.109375,-32.43,,,2156422.0
1596631460.125,-36.64,,,2154887.0
1596631460.140625,-41.18,,,2153406.0
1596631460.15625,-45.46,,,2151146.0
1596631460.171875,-48.65,,,2149248.0
1596631460.1875,-49.92,,,2147988.0
1596631460.203125,-48.65,,,2147287.0
1596631460.21875,-44.71,,,2146990.0
1596631460.234375,-38.52,,,2146772.0
1596631460.25,-30.97,,,2146912.0
1596631460.265625,-23.09,,,2147314.0
1596631460.28125,-15.86,,,2147867.0
1596631460.296875,-9.86,,,2148389.0
1596631460.3125,-5.22,,,2148950.0
1596631460.328125,-1.68,,,2150012.0
1596631460.34375,1.19,,,2150974.0
1596631460.359375,3.88,,,2152124.0
1596631460.375,6.66,,,2153114.0
1596631460.390625,9.64,,,2154725.0
1596631460.40625,12.69,,,2156177.0
1596631460.421875,15.52,,,2158025.0
1596631460.4375,17.81,,,2158992.0
1596631460.453125,19.36,,,2159454.0
1596631460.46875,20.13,,,2156640.0
1596631460.484375,20.3,,,2153294.0
1596631460.5,20.22,,,2150241.0
1596631460.515625,20.31,,,2150451.0
1596631460.53125,20.85,,,2154061.0
1596631460.546875,21.98,,,2159213.0
1596631460.5625,23.58,,,2168095.0
1596631460.578125,25.39,,,2170701.0
1596631460.59375,27.15,,,2171865.0
1596631460.609375,28.58,,,2171600.0
1596631460.625,29.54,,,2169973.0
1596631460.640625,29.91,,,2167047.0
1596631460.65625,29.67,,,2164467.0
1596631460.671875,28.83,,,2162482.0
1596631460.6875,27.49,,,2161294.0
1596631460.703125,25.84,,,2160386.0
1596631460.71875,24.16,,,2159752.0
1596631460.734375,22.69,,,2159435.0
1596631460.75,21.55,,,2159782.0
1596631460.765625,20.75,,,2159834.0
1596631460.78125,20.08,,,2160422.0
1596631460.796875,19.32,,,2161290.0
1596631460.8125,18.3,,,2161903.0
1596631460.828125,17.0,,,2162963.0
1596631460.84375,15.55,,,2163670.0
1596631460.859375,14.14,,,2165118.0
1596631460.875,12.92,,,2166414.0
1596631460.890625,11.92,,,2167826.0
1596631460.90625,11.05,,,2168710.0
1596631460.921875,10.09,,,2168597.0
1596631460.9375,8.9,,,2165733.0
1596631460.953125,7.37,,,2160829.0
1596631460.96875,5.55,,,2156856.0
1596631460.984375,3.58,,,2153340.0
1596631461.0,1.56,,,2150253.0
1596631461.015625,-0.45,,,2147699.0
1596631461.03125,-2.48,,,2145354.0
1596631461.046875,-4.65,,,2142971.0
1596631461.0625,-7.04,,,2140872.0
1596631461.078125,-9.64,,,2138787.0
1596631461.09375,-12.31,,,2136843.0
1596631461.109375,-14.86,,,2136097.0
1596631461.125,-17.13,,,2135007.0
1596631461.140625,-19.07,,,2134855.0
1596631461.15625,-20.74,,,2134309.0
1596631461.171875,-22.34,,,2135984.0
1596631461.1875,-24.11,,,2139972.0
1596631461.203125,-26.29,,,2145827.0
1596631461.21875,-29.06,,,2155066.0
1596631461.234375,-32.51,,,2160905.0
1596631461.25,-36.57,,,2162823.0
1596631461.265625,-40.94,,,2164576.0
1596631461.28125,-45.05,,,2165367.0
1596631461.296875,-48.17,,,2164371.0
1596631461.3125,-49.51,,,2163391.0
1596631461.328125,-48.48,,,2163066.0
1596631461.34375,-44.87,,,2162635.0
1596631461.359375,-38.97,,,2161966.0
1596631461.375,-31.58,,,2159057.0
1596631461.390625,-23.69,,,2154341.0
1596631461.40625,-16.26,,,2148962.0
1596631461.421875,-9.93,,,2144214.0
1596631461.4375,-4.84,,,2140085.0
1596631461.453125,-0.73,,,2136820.0
1596631461.46875,2.84,,,2134192.0
1596631461.484375,6.29,,,2131279.0
1596631461.5,9.77,,,2128289.0
1596631461.515625,13.18,,,2125910.0
1596631461.53125,16.26,,,2123553.0
1596631461.546875,18.77,,,2122087.0
1596631461.5625,20.62,,,2121084.0
1596631461.578125,21.86,,,2120418.0
1596631461.59375,22.66,,,2119679.0
1596631461.609375,23.19,,,2119545.0
1596631461.625,23.55,,,2119349.0
1596631461.640625,23.85,,,2119274.0
1596631461.65625,24.14,,,2119654.0
1596631461.671875,24.5,,,2119919.0
1596631461.6875,24.97,,,2120279.0
1596631461.703125,25.54,,,2121015.0
1596631461.71875,26.13,,,2121392.0
1596631461.734375,26.57,,,2122680.0
1596631461.75,26.72,,,2123572.0
1596631461.765625,26.52,,,2124628.0
1596631461.78125,25.99,,,2125707.0
1596631461.796875,25.2,,,2125130.0
1596631461.8125,24.28,,,2121144.0
1596631461.828125,23.26,,,2116511.0
1596631461.84375,22.18,,,2115162.0
1596631461.859375,21.08,,,2117950.0
1596631461.875,20.01,,,2121409.0
1596631461.890625,19.03,,,2127638.0
1596631461.90625,18.15,,,2129550.0
1596631461.921875,17.35,,,2129826.0
1596631461.9375,16.54,,,2128414.0
1596631461.953125,15.63,,,2125151.0
1596631461.96875,14.57,,,2120979.0
1596631461.984375,13.43,,,2117368.0
1596631462.0,12.3,,,2114444.0
1596631462.015625,11.29,,,2112223.0
1596631462.03125,10.47,,,2110799.0
1596631462.046875,9.84,,,2109643.0
1596631462.0625,9.29,,,2108964.0
1596631462.078125,8.69,,,2108408.0
1596631462.09375,7.84,,,2107775.0
1596631462.109375,6.6,,,2108085.0
1596631462.125,4.86,,,2107900.0
1596631462.140625,2.66,,,2108263.0
1596631462.15625,0.12,,,2108836.0
1596631462.171875,-2.57,,,2109984.0
1596631462.1875,-5.2,,,2110617.0
1596631462.203125,-7.63,,,2112222.0
1596631462.21875,-9.79,,,2113240.0
1596631462.234375,-11.74,,,2114473.0
1596631462.25,-13.58,,,2114721.0
1596631462.265625,-15.51,,,2112196.0
1596631462.28125,-17.65,,,2106974.0
1596631462.296875,-20.11,,,2101495.0
1596631462.3125,-22.8,,,2097402.0
1596631462.328125,-25.56,,,2093609.0
1596631462.34375,-28.2,,,2090215.0
1596631462.359375,-30.68,,,2087855.0
1596631462.375,-33.15,,,2085565.0
1596631462.390625,-35.97,,,2083223.0
1596631462.40625,-39.49,,,2080832.0
1596631462.421875,-43.81,,,2079281.0
1596631462.4375,-48.57,,,2078111.0
1596631462.453125,-52.94,,,2078011.0
1596631462.46875,-55.84,,,2077532.0
1596631462.484375,-56.27,,,2077543.0
1596631462.5,-53.68,,,2077475.0
1596631462.515625,-48.19,,,2077761.0
1596631462.53125,-40.5,,,2078004.0
1596631462.546875,-31.73,,,2078771.0
1596631462.5625,-23.0,,,2079298.0
1596631462.578125,-15.18,,,2080219.0
1596631462.59375,-8.75,,,2082767.0
1596631462.609375,-3.72,,,2087318.0
1596631462.625,0.18,,,2092416.0
1596631462.640625,3.39,,,2096615.0
1596631462.65625,6.36,,,2100019.0
1596631462.671875,9.4,,,2103747.0
1596631462.6875,12.63,,,2104227.0
1596631462.703125,15.98,,,2101441.0
1596631462.71875,19.18,,,2096322.0
1596631462.734375,21.97,,,2091157.0
1596631462.75,24.13,,,2086332.0
1596631462.765625,25.67,,,2081643.0
1596631462.78125,26.75,,,2078439.0
1596631462.796875,27.62,,,2075781.0
1596631462.8125,28.47,,,2073155.0
1596631462.828125,29.36,,,2070586.0
1596631462.84375,30.21,,,2068275.0
1596631462.859375,30.89,,,2066709.0
1596631462.875,31.33,,,2065862.0
1596631462.890625,31.57,,,2065093.0
1596631462.90625,31.66,,,2064740.0
1596631462.921875,31.61,,,2064873.0
1596631462.9375,31.33,,,2064848.0
1596631462.953125,30.68,,,2065258.0
1596631462.96875,29.59,,,2065861.0
1596631462.984375,28.13,,,2066626.0
1596631463.0,26.47,,,2067730.0
1596631463.015625,24.81,,,2069005.0
1596631463.03125,23.29,,,2069005.0
1596631463.046875,21.91,,,2070412.0
1596631463.0625,20.61,,,2071871.0
1596631463.078125,19.33,,,2073489.0
1596631463.09375,18.1,,,2075105.0
1596631463.109375,17.0,,,2077083.0
1596631463.125,16.08,,,2079251.0
1596631463.140625,15.31,,,2081206.0
1596631463.15625,14.57,,,2071374.0
1596631463.171875,13.69,,,2066457.0
1596631463.1875,12.62,,,2062576.0
1596631463.203125,11.4,,,2058499.0
1596631463.21875,10.17,,,2055943.0
1596631463.234375,9.02,,,2052625.0
1596631463.25,7.91,,,2050098.0
1596631463.265625,6.65,,,2080806.0
1596631463.28125,5.08,,,2076945.0
1596631463.296875,3.12,,,2050433.0
1596631463.3125,0.95,,,2052063.0
1596631463.328125,-1.13,,,2053797.0
1596631463.34375,-2.78,,,2055584.0
1596631463.359375,-3.9,,,2057283.0
1596631463.375,-4.62,,,2057799.0
1596631463.390625,-5.32,,,2058464.0
1596631463.40625,-6.4,,,2058417.0
1596631463.421875,-8.08,,,2058352.0
1596631463.4375,-10.36,,,2058855.0
1596631463.453125,-13.02,,,2059741.0
1596631463.46875,-15.78,,,2060368.0
1596631463.484375,-18.39,,,2061617.0
1596631463.5,-20.72,,,2062685.0
1596631463.515625,-22.75,,,2058596.0
1596631463.53125,-24.51,,,2064098.0
1596631463.546875,-26.14,,,2065601.0
1596631463.5625,-27.81,,,2066667.0
1596631463.578125,-29.84,,,2068024.0
1596631463.59375,-32.51,,,2069521.0
1596631463.609375,-36.01,,,2067788.0
1596631463.625,-40.21,,,2062240.0
1596631463.640625,-44.58,,,2055866.0
1596631463.65625,-48.26,,,2046407.0
1596631463.671875,-50.25,,,2042744.0
1596631463.6875,-49.76,,,2050895.0
1596631463.703125,-46.47,,,2040062.0
1596631463.71875,-40.65,,,2037529.0
1596631463.734375,-33.08,,,2035002.0
1596631463.75,-24.85,,,2032844.0
1596631463.765625,-16.97,,,2030974.0
1596631463.78125,-10.22,,,2029931.0
1596631463.796875,-4.91,,,2029747.0
1596631463.8125,-0.97,,,2029611.0
1596631463.828125,1.97,,,2030456.0
1596631463.84375,4.4,,,2031296.0
1596631463.859375,6.77,,,2032052.0
1596631463.875,9.36,,,2033414.0
1596631463.890625,12.25,,,2034763.0
1596631463.90625,15.25,,,2077309.0
1596631463.921875,18.03,,,2038648.0
1596631463.9375,20.25,,,2036710.0
1596631463.953125,21.74,,,2040620.0
1596631463.96875,22.53,,,2049744.0
1596631463.984375,22.89,,,2059883.0
1596631464.0,23.13,,,2029965.0
1596631464.015625,23.51,,,2081336.0
1596631464.03125,24.13,,,2043399.0
1596631464.046875,24.94,,,2069620.0
1596631464.0625,25.84,,,2079007.0
1596631464.078125,26.71,,,2073807.0
1596631464.09375,27.52,,,2069268.0
1596631464.109375,28.18,,,2064322.0
1596631464.125,28.54,,,2056946.0
1596631464.140625,28.39,,,2060192.0
1596631464.15625,27.54,,,2055065.0
1596631464.171875,25.96,,,2051393.0
1596631464.1875,23.85,,,2053059.0
1596631464.203125,21.64,,,2049326.0
1596631464.21875,19.8,,,2050172.0
1596631464.234375,18.61,,,2049104.0
1596631464.25,18.07,,,2049766.0
1596631464.265625,17.88,,,2050242.0
1596631464.28125,17.6,,,2050880.0
1596631464.296875,16.91,,,2052083.0
1596631464.3125,15.73,,,2053483.0
1596631464.328125,14.18,,,2054904.0
1596631464.34375,12.56,,,2056359.0
1596631464.359375,11.1,,,2058541.0
1596631464.375,9.91,,,2060765.0
1596631464.390625,8.94,,,2063010.0
1596631464.40625,8.0,,,2065403.0
1596631464.421875,6.93,,,2068364.0
1596631464.4375,5.64,,,2070673.0
1596631464.453125,4.16,,,2073582.0
1596631464.46875,2.61,,,2076370.0
1596631464.484375,1.11,,,2077360.0
1596631464.5,-0.25,,,2075051.0
1596631464.515625,-1.47,,,2072884.0
1596631464.53125,-2.64,,,2070875.0
1596631464.546875,-3.9,,,2069538.0
1596631464.5625,-5.39,,,2068864.0
1596631464.578125,-7.19,,,2069135.0
1596631464.59375,-9.27,,,2069385.0
1596631464.609375,-11.48,,,2069588.0
1596631464.625,-13.54,,,2069916.0
1596631464.640625,-15.22,,,2070671.0
1596631464.65625,-16.33,,,2072333.0
1596631464.671875,-16.94,,,2076545.0
1596631464.6875,-17.32,,,2083000.0
1596631464.703125,-17.91,,,2088128.0
1596631464.71875,-19.19,,,2093615.0
1596631464.734375,-21.44,,,2097575.0
1596631464.75,-24.64,,,2101078.0
1596631464.765625,-28.44,,,2104625.0
1596631464.78125,-32.18,,,2108547.0
1596631464.796875,-35.05,,,2111832.0
1596631464.8125,-36.27,,,2114995.0
1596631464.828125,-35.25,,,2118219.0
1596631464.84375,-31.78,,,2120851.0
1596631464.859375,-26.06,,,2123726.0
1596631464.875,-18.76,,,2126396.0
1596631464.890625,-10.78,,,2129499.0
1596631464.90625,-3.06,,,2132187.0
1596631464.921875,3.66,,,2135531.0
1596631464.9375,9.03,,,2135531.0
1596631464.953125,13.02,,,2138008.0
1596631464.96875,15.71,,,2139087.0
1596631464.984375,17.09,,,2138016.0
1596631465.0,16.94,,,2137723.0
1596631465.015625,14.88,,,2137368.0
1596631465.03125,10.66,,,2137501.0
1596631465.046875,4.47,,,2138157.0
1596631465.0625,-2.96,,,2139337.0
1596631465.078125,-10.49,,,2140376.0
1596631465.09375,-16.86,,,2141094.0
1596631465.109375,-21.16,,,2142222.0
1596631465.125,-22.98,,,2143553.0
1596631465.140625,-22.51,,,2145273.0
1596631465.15625,-20.3,,,2146632.0
1596631465.171875,-16.92,,,2148668.0
1596631465.1875,-12.8,,,2150301.0
1596631465.203125,-8.14,,,2152372.0
1596631465.21875,-3.08,,,2154577.0
1596631465.234375,2.15,,,2156876.0
1596631465.25,7.13,,,2158942.0
1596631465.265625,11.31,,,2161444.0
1596631465.28125,14.23,,,2163684.0
1596631465.296875,15.73,,,2166161.0
1596631465.3125,16.03,,,2168519.0
1596631465.328125,15.69,,,2171144.0
1596631465.34375,15.34,,,2173612.0
1596631465.359375,15.48,,,2175982.0
1596631465.375,16.2,,,2178797.0
1596631465.390625,17.28,,,2181025.0
1596631465.40625,18.25,,,2181713.0
1596631465.421875,18.69,,,2183195.0
1596631465.4375,18.38,,,2187398.0
1596631465.453125,17.41,,,2192413.0
1596631465.46875,16.07,,,2197616.0
1596631465.484375,14.66,,,2201687.0
1596631465.5,13.37,,,2202878.0
1596631465.515625,12.26,,,2202821.0
1596631465.53125,11.27,,,2202485.0
1596631465.546875,10.35,,,2201736.0
1596631465.5625,9.48,,,2201326.0
1596631465.578125,8.61,,,2201125.0
1596631465.59375,7.7,,,2201331.0
1596631465.609375,6.63,,,2201825.0
1596631465.625,5.33,,,2202583.0
1596631465.640625,3.79,,,2204152.0
1596631465.65625,2.11,,,2205234.0
1596631465.671875,0.46,,,2206710.0
1596631465.6875,-1.03,,,2207707.0
1596631465.703125,-2.33,,,2209334.0
1596631465.71875,-3.52,,,2211085.0
1596631465.734375,-4.79,,,2212463.0
1596631465.75,-6.26,,,2214207.0
1596631465.765625,-7.97,,,2216365.0
1596631465.78125,-9.91,,,2218044.0
1596631465.796875,-12.0,,,2219936.0
1596631465.8125,-14.21,,,2221515.0
1596631465.828125,-16.51,,,2222198.0
1596631465.84375,-18.89,,,2221155.0
1596631465.859375,-21.32,,,2220094.0
1596631465.875,-23.77,,,2219393.0
1596631465.890625,-26.32,,,2218639.0
1596631465.90625,-29.14,,,2218498.0
1596631465.921875,-32.45,,,2218741.0
1596631465.9375,-36.37,,,2219120.0
1596631465.953125,-40.74,,,2218968.0
1596631465.96875,-44.96,,,2219693.0
1596631465.984375,-48.14,,,2219659.0
1596631466.0,-49.3,,,2220171.0
1596631466.015625,-47.73,,,2220739.0
1596631466.03125,-43.32,,,2221636.0
1596631466.046875,-36.6,,,2222900.0
1596631466.0625,-28.58,,,2223980.0
1596631466.078125,-20.41,,,2224613.0
1596631466.09375,-13.05,,,2225805.0
1596631466.109375,-7.02,,,2227049.0
1596631466.125,-2.36,,,2228406.0
1596631466.140625,1.24,,,2229535.0
1596631466.15625,4.25,,,2231031.0
1596631466.171875,7.05,,,2232362.0
1596631466.1875,9.84,,,2234080.0
1596631466.203125,12.59,,,2235511.0
1596631466.21875,15.1,,,2237020.0
1596631466.234375,17.14,,,2238671.0
1596631466.25,18.58,,,2240128.0
1596631466.265625,19.39,,,2241225.0
1596631466.28125,19.77,,,2239827.0
1596631466.296875,19.9,,,2238184.0
1596631466.3125,20.01,,,2236730.0
1596631466.328125,20.25,,,2235495.0
1596631466.34375,20.65,,,2234777.0
1596631466.359375,21.2,,,2233970.0
1596631466.375,21.87,,,2234011.0
1596631466.390625,22.68,,,2233456.0
1596631466.40625,23.57,,,2233288.0
1596631466.421875,24.48,,,2232873.0
1596631466.4375,25.23,,,2232628.0
1596631466.453125,25.61,,,2233232.0
1596631466.46875,25.46,,,2233718.0
1596631466.484375,24.72,,,2233975.0
1596631466.5,23.53,,,2234641.0
1596631466.515625,22.14,,,2235058.0
1596631466.53125,20.79,,,2236089.0
1596631466.546875,19.63,,,2236939.0
1596631466.5625,18.61,,,2237638.0
1596631466.578125,17.54,,,2238738.0
1596631466.59375,16.23,,,2240044.0
1596631466.609375,14.6,,,2241063.0
1596631466.625,12.72,,,2242044.0
1596631466.640625,10.86,,,2243405.0
1596631466.65625,9.29,,,2244512.0
1596631466.671875,8.18,,,2245436.0
1596631466.6875,7.55,,,2244467.0
1596631466.703125,7.21,,,2242432.0
1596631466.71875,6.9,,,2240137.0
1596631466.734375,6.36,,,2238439.0
1596631466.75,5.45,,,2236702.0
1596631466.765625,4.18,,,2235582.0
1596631466.78125,2.63,,,2234942.0
1596631466.796875,0.96,,,2234194.0
1596631466.8125,-0.75,,,2233051.0
1596631466.828125,-2.52,,,2232048.0
1596631466.84375,-4.43,,,2231723.0
1596631466.859375,-6.58,,,2231540.0
1596631466.875,-8.96,,,2232166.0
1596631466.890625,-11.48,,,2234482.0
1596631466.90625,-14.04,,,2235501.0
1596631466.921875,-16.55,,,2237397.0
1596631466.9375,-19.0,,,2238074.0
1596631466.953125,-21.46,,,2240530.0
1596631466.96875,-23.95,,,2242706.0
1596631466.984375,-26.49,,,2244565.0
1596631467.0,-29.08,,,2249522.0
1596631467.015625,-31.78,,,2254607.0
1596631467.03125,-34.79,,,2257226.0
1596631467.046875,-38.33,,,2259265.0
1596631467.0625,-42.48,,,2260838.0
1596631467.078125,-46.94,,,2261580.0
1596631467.09375,-50.99,,,2262684.0
1596631467.109375,-53.62,,,2262667.0
1596631467.125,-53.87,,,2262814.0
1596631467.140625,-51.26,,,2261939.0
1596631467.15625,-45.96,,,2259349.0
1596631467.171875,-38.7,,,2255762.0
1596631467.1875,-30.56,,,2253205.0
1596631467.203125,-22.56,,,2250603.0
1596631467.21875,-15.39,,,2248234.0
1596631467.234375,-9.41,,,2246457.0
1596631467.25,-4.6,,,2244991.0
1596631467.265625,-0.74,,,2243245.0
1596631467.28125,2.5,,,2241950.0
1596631467.296875,5.45,,,2240465.0
1596631467.3125,8.36,,,2239738.0
1596631467.328125,11.32,,,2238829.0
1596631467.34375,14.23,,,2238459.0
1596631467.359375,16.88,,,2238199.0
1596631467.375,19.04,,,2238408.0
1596631467.390625,20.59,,,2238393.0
1596631467.40625,21.59,,,2238788.0
1596631467.421875,22.21,,,2238655.0
1596631467.4375,22.7,,,2239233.0
1596631467.453125,23.24,,,2239654.0
1596631467.46875,23.93,,,2239827.0
1596631467.484375,24.75,,,2240878.0
1596631467.5,25.65,,,2241273.0
1596631467.515625,26.55,,,2242363.0
1596631467.53125,27.41,,,2243237.0
1596631467.546875,28.16,,,2243972.0
1596631467.5625,28.74,,,2244604.0
1596631467.578125,29.05,,,2243677.0
1596631467.59375,28.99,,,2241352.0
1596631467.609375,28.5,,,2238731.0
1596631467.625,27.62,,,2236205.0
1596631467.640625,26.48,,,2234387.0
1596631467.65625,25.27,,,2232562.0
1596631467.671875,24.16,,,2231685.0
1596631467.6875,23.18,,,2231454.0
1596631467.703125,22.23,,,2232427.0
1596631467.71875,21.15,,,2236629.0
1596631467.734375,19.77,,,2241269.0
1596631467.75,18.1,,,2248020.0
1596631467.765625,16.3,,,2252337.0
1596631467.78125,14.59,,,2251966.0
1596631467.796875,13.19,,,2251722.0
1596631467.8125,12.19,,,2249633.0
1596631467.828125,11.51,,,2246813.0
1596631467.84375,11.01,,,2244431.0
1596631467.859375,10.53,,,2242831.0
1596631467.875,9.94,,,2241465.0
1596631467.890625,9.16,,,2240815.0
1596631467.90625,8.07,,,2241040.0
1596631467.921875,6.58,,,2240550.0
1596631467.9375,4.65,,,2240554.0
1596631467.953125,2.34,,,2241131.0
1596631467.96875,-0.13,,,2241124.0
1596631467.984375,-2.52,,,2241686.0
1596631468.0,-4.57,,,2240845.0
1596631468.015625,-6.19,,,2238614.0
1596631468.03125,-7.46,,,2234885.0
1596631468.046875,-8.61,,,2231233.0
1596631468.0625,-9.93,,,2228060.0
1596631468.078125,-11.61,,,2225057.0
1596631468.09375,-13.69,,,2222802.0
1596631468.109375,-16.07,,,2220477.0
1596631468.125,-18.56,,,2218486.0
1596631468.140625,-20.99,,,2216227.0
1596631468.15625,-23.28,,,2214095.0
1596631468.171875,-25.44,,,2212955.0
1596631468.1875,-27.52,,,2211609.0
1596631468.203125,-29.64,,,2210977.0
1596631468.21875,-31.91,,,2210370.0
1596631468.234375,-34.58,,,2209769.0
1596631468.25,-37.9,,,2209683.0
1596631468.265625,-42.05,,,2209368.0
1596631468.28125,-46.86,,,2209390.0
1596631468.296875,-51.68,,,2209432.0
1596631468.3125,-55.43,,,2209514.0
1596631468.328125,-56.88,,,2209921.0
1596631468.34375,-55.18,,,2210625.0
1596631468.359375,-50.22,,,2210805.0
1596631468.375,-42.71,,,2211829.0
1596631468.390625,-33.96,,,2212211.0
1596631468.40625,-25.34,,,2213511.0
1596631468.421875,-17.87,,,2213902.0
1596631468.4375,-11.95,,,2214790.0
1596631468.453125,-7.47,,,2213901.0
1596631468.46875,-4.06,,,2211497.0
1596631468.484375,-1.29,,,2207654.0
1596631468.5,1.17,,,2204470.0
1596631468.515625,3.57,,,2201983.0
1596631468.53125,6.06,,,2198876.0
1596631468.546875,8.74,,,2197010.0
1596631468.5625,11.6,,,2195030.0
1596631468.578125,14.45,,,2193009.0
1596631468.59375,17.03,,,2190544.0
1596631468.609375,19.11,,,2188945.0
1596631468.625,20.59,,,2187636.0
1596631468.640625,21.6,,,2186633.0
1596631468.65625,22.34,,,2185932.0
1596631468.671875,23.05,,,2185384.0
1596631468.6875,23.83,,,2185274.0
1596631468.703125,24.64,,,2184980.0
1596631468.71875,25.39,,,2185076.0
1596631468.734375,26.0,,,2185589.0
1596631468.75,26.47,,,2185719.0
1596631468.765625,26.86,,,2185968.0
1596631468.78125,27.21,,,2185968.0
1596631468.796875,27.44,,,2186525.0
1596631468.8125,27.42,,,2187971.0
1596631468.828125,27.01,,,2187461.0
1596631468.84375,26.16,,,2188383.0
1596631468.859375,24.92,,,2189656.0
1596631468.875,23.46,,,2189471.0
1596631468.890625,21.91,,,2187539.0
1596631468.90625,20.39,,,2184157.0
1596631468.921875,18.92,,,2180394.0
1596631468.9375,17.52,,,2177093.0
1596631468.953125,16.18,,,2174287.0
1596631468.96875,14.95,,,2172029.0
1596631468.984375,13.84,,,2170772.0
1596631469.0,12.81,,,2169068.0
1596631469.015625,11.79,,,2166954.0
1596631469.03125,10.64,,,2165234.0
1596631469.046875,9.28,,,2164200.0
1596631469.0625,7.69,,,2163006.0
1596631469.078125,5.93,,,2162652.0
1596631469.09375,4.1,,,2162652.0
1596631469.109375,2.27,,,2162534.0
1596631469.125,0.41,,,2163015.0
1596631469.140625,-1.59,,,2163244.0
1596631469.15625,-3.85,,,2164084.0
1596631469.171875,-6.42,,,2164615.0
1596631469.1875,-9.23,,,2165432.0
1596631469.203125,-12.08,,,2166099.0
1596631469.21875,-14.77,,,2167339.0
1596631469.234375,-17.16,,,2169535.0
1596631469.25,-19.28,,,2172631.0
1596631469.265625,-21.26,,,2175736.0
1596631469.28125,-23.31,,,2178475.0
1596631469.296875,-25.62,,,2180514.0
1596631469.3125,-28.33,,,2182367.0
1596631469.328125,-31.53,,,2181642.0
1596631469.34375,-35.27,,,2180041.0
1596631469.359375,-39.5,,,2176384.0
1596631469.375,-43.98,,,2173492.0
1596631469.390625,-48.16,,,2170014.0
1596631469.40625,-51.24,,,2167115.0
