Timestamp,Participant_11,Participant_12,Participant_13,Participant_14,Participant_15,Participant_16,Participant_17,Participant_18,Participant_22,Participant_23,Participant_24,Average
0.0,2001950.0,1902611.0,1968652.0,1935418.0,2010849.0,1727829.0,2097152.0,2097152.0,2075647.0,2097152.0,2097152.0,2001051.2727272727
0.015625,2007080.0,1900105.0,1967706.0,1935896.0,2011806.0,1719890.0,2386264.0,2097152.0,2075717.0,2361530.0,2330299.0,2072131.3636363635
0.03125,2012251.0,1898304.0,1965974.0,1936283.0,2013162.0,1717444.0,2386534.0,2337174.0,2076205.0,2361484.0,2097152.0,2072906.0909090908
0.046875,2016901.0,1897017.0,1964109.0,1936968.0,2014616.0,1716289.0,2386527.0,2337195.0,2076566.0,2361392.0,2330505.0,2094371.3636363635
0.0625,2023137.0,1896209.0,1962585.0,1937560.0,2016099.0,1714388.0,2386566.0,2337196.0,2076749.0,2361386.0,2330599.0,2094770.3636363635
0.078125,2030404.0,1895345.0,1961582.0,1938475.0,2017328.0,1711127.0,2386535.0,2337328.0,2077242.0,2361459.0,2330525.0,2095213.6363636365
0.09375,2036579.0,1894657.0,1960811.0,1939326.0,2018876.0,1707083.0,2386254.0,2337364.0,2077053.0,2361593.0,2330697.0,2095481.1818181819
0.109375,2042655.0,1893672.0,1960864.0,1937948.0,2020323.0,1704468.0,2385601.0,2337053.0,2077754.0,2361533.0,2330831.0,2095700.1818181819
0.125,2048267.0,1892951.0,1961247.0,1933424.0,2022365.0,1701837.0,2384866.0,2336608.0,2077918.0,2361611.0,2331118.0,2095655.6363636365
0.140625,2051978.0,1892145.0,1961758.0,1927719.0,2024119.0,1698061.0,2383939.0,2336205.0,2078390.0,2217564.0,2331448.0,2082120.5454545454
0.15625,2054941.0,1891702.0,1964236.0,1922628.0,2026504.0,1694502.0,2115551.0,2335888.0,2078306.0,2361579.0,2331649.0,2070680.5454545454
0.171875,2057281.0,1890945.0,1975368.0,1918942.0,2027660.0,1691030.0,2115705.0,2200117.0,2078010.0,2217603.0,2331983.0,2045876.7272727273
0.1875,2061331.0,1890494.0,1983756.0,1915503.0,2023299.0,1687524.0,2115724.0,2199954.0,2078114.0,2217614.0,2196570.0,2033625.7272727273
0.203125,2065791.0,1890683.0,1991017.0,1913114.0,2017609.0,1684316.0,2115510.0,2199707.0,2078394.0,2217424.0,2196919.0,2033680.3636363635
0.21875,2070741.0,1891137.0,1996720.0,1911569.0,2013280.0,1681574.0,2115080.0,2199511.0,2078362.0,2216899.0,2197581.0,2033859.4545454546
0.234375,2077452.0,1891108.0,2001314.0,1909444.0,2010770.0,1679030.0,2103245.0,2199347.0,2078262.0,2120263.0,2198195.0,2024402.7272727273
0.25,2083325.0,1889682.0,2004302.0,1906965.0,2009895.0,1677228.0,2103476.0,2117254.0,2078714.0,2119480.0,2117078.0,2009763.5454545454
0.265625,2088479.0,1887345.0,2005585.0,1904224.0,2009686.0,1676130.0,2104146.0,2117257.0,2078653.0,2119247.0,2118415.0,2009924.2727272727
0.28125,2093023.0,1884898.0,2008133.0,1901836.0,2009861.0,1674560.0,2104308.0,2117296.0,2078996.0,2119181.0,2198741.0,2017348.4545454546
0.296875,2097083.0,1883269.0,2010848.0,1900076.0,2008245.0,1671931.0,2117032.0,2117569.0,2079683.0,2119503.0,2119879.0,2011374.3636363635
0.3125,2101029.0,1882347.0,2015304.0,1898949.0,2007978.0,1670428.0,2104270.0,2117909.0,2080462.0,2074289.0,2121336.0,2006754.6363636365
0.328125,2104076.0,1882846.0,2020501.0,1897975.0,2008704.0,1668477.0,2117674.0,2069444.0,2081504.0,2076354.0,2122581.0,2004557.8181818181
0.34375,2106844.0,1884338.0,2024308.0,1897681.0,2009290.0,1667046.0,2115953.0,2070469.0,2082233.0,2081586.0,2081667.0,2001946.8181818181
0.359375,2110488.0,1886515.0,2028354.0,1897608.0,2009742.0,1665820.0,2115609.0,2069814.0,2082968.0,2085574.0,2082382.0,2003170.3636363635
0.375,2113706.0,1889216.0,2033515.0,1897308.0,2011147.0,1665311.0,2112701.0,2066446.0,2083421.0,2078598.0,2083530.0,2003172.6363636365
0.390625,2116648.0,1892226.0,2039142.0,1897354.0,2016879.0,1665480.0,2114644.0,2062614.0,2083629.0,2089994.0,2082894.0,2005591.2727272727
0.40625,2119550.0,1895652.0,2044849.0,1897355.0,2018600.0,1665558.0,2114418.0,2058751.0,2083581.0,2094570.0,2085515.0,2007127.1818181819
0.421875,2122397.0,1898490.0,2049319.0,1897483.0,2020738.0,1666171.0,2113503.0,2055736.0,2083912.0,2099263.0,2087587.0,2008599.9090909092
0.4375,2125764.0,1901303.0,2053011.0,1897617.0,2022386.0,1667002.0,2109067.0,2053334.0,2084842.0,2104021.0,2089362.0,2009791.7272727273
0.453125,2126114.0,1904210.0,2055504.0,1898032.0,2024733.0,1668049.0,2109133.0,2051957.0,2089659.0,2108191.0,2091234.0,2011528.7272727273
0.46875,2125122.0,1907164.0,2057781.0,1898601.0,2027105.0,1669419.0,2109409.0,2050704.0,2093866.0,2121433.0,2093070.0,2013970.3636363635
0.484375,2124562.0,1910814.0,2058537.0,1899277.0,2029383.0,1682858.0,2108399.0,2049167.0,2100280.0,2117475.0,2095160.0,2015992.0
0.5,2124428.0,1914666.0,2057155.0,1900186.0,2030597.0,1699475.0,2108820.0,2048497.0,2086896.0,2113120.0,2096987.0,2016438.8181818181
0.515625,2125222.0,1916802.0,2056108.0,1901125.0,2025600.0,1703347.0,2109279.0,2047441.0,2113528.0,2123091.0,2098827.0,2020033.6363636365
0.53125,2125885.0,1917417.0,2054838.0,1902303.0,2019189.0,1704405.0,2113315.0,2047173.0,2107744.0,2122435.0,2100685.0,2019580.8181818181
0.546875,2126743.0,1917511.0,2052902.0,1903621.0,2014094.0,1701756.0,2125494.0,2046287.0,2118157.0,2122650.0,2102465.0,2021061.8181818181
0.5625,2127492.0,1917821.0,2050237.0,1902556.0,2014578.0,1697909.0,2135084.0,2045564.0,2128411.0,2123778.0,2104495.0,2022538.6363636365
0.578125,2127729.0,1921958.0,2049855.0,1897830.0,2013076.0,1696708.0,2147978.0,2044183.0,2123290.0,2125212.0,2106159.0,2023088.9090909092
0.59375,2127383.0,1919439.0,2049471.0,1892121.0,2011398.0,1698300.0,2157730.0,2045194.0,2133302.0,2127274.0,2107614.0,2024475.0909090908
0.609375,2127764.0,1928447.0,2050226.0,1887487.0,2009018.0,1699540.0,2165137.0,2042912.0,2138311.0,2130013.0,2107853.0,2026064.3636363635
0.625,2129844.0,1932237.0,2047174.0,1884299.0,2007530.0,1700739.0,2170925.0,2039521.0,2143242.0,2131620.0,2106101.0,2026657.4545454546
0.640625,2130528.0,1935599.0,2036800.0,1882349.0,2007146.0,1701158.0,2177531.0,2026409.0,2152435.0,2133656.0,2104675.0,2026207.8181818181
0.65625,2131817.0,1938620.0,2042357.0,1881072.0,2004904.0,1700213.0,2184762.0,2032887.0,2149309.0,2135411.0,2103070.0,2027674.7272727273
0.671875,2132463.0,1925286.0,2037342.0,1880504.0,2006344.0,1698673.0,2190213.0,2020677.0,2152846.0,2138081.0,2101716.0,2025831.3636363635
0.6875,2133267.0,1941484.0,2035613.0,1879740.0,2005177.0,1697410.0,2194215.0,2015063.0,2152982.0,2141041.0,2099786.0,2026888.9090909092
0.703125,2134421.0,1943900.0,2037714.0,1877938.0,2005480.0,1696520.0,2197614.0,2010411.0,2152803.0,2146502.0,2098614.0,2027447.0
0.71875,2135740.0,1946789.0,2040025.0,1876439.0,2005775.0,1695563.0,2200408.0,2005162.0,2152489.0,2143615.0,2090190.0,2026563.1818181819
0.734375,2137136.0,1953208.0,2041648.0,1875247.0,2007206.0,1695451.0,2218036.0,2000158.0,2153102.0,2149603.0,2083941.0,2028612.3636363635
0.75,2138551.0,1949639.0,2042761.0,1874678.0,2008949.0,1698159.0,2208998.0,1995250.0,2153233.0,2152186.0,2077826.0,2027293.6363636365
0.765625,2139597.0,1955286.0,2042728.0,1874746.0,2010592.0,1700413.0,2218916.0,1989615.0,2154046.0,2154625.0,2071138.0,2028336.5454545454
0.78125,2141367.0,1954803.0,2041126.0,1875112.0,2012516.0,1700318.0,2210023.0,1985679.0,2155349.0,2157153.0,2066538.0,2027271.2727272727
0.796875,2142763.0,1952949.0,2040850.0,1875729.0,2014284.0,1698969.0,2219389.0,1980603.0,2157532.0,2159937.0,2064894.0,2027990.8181818181
0.8125,2143977.0,1950886.0,2035891.0,1876576.0,2015973.0,1697381.0,2220143.0,1976023.0,2159211.0,2161570.0,2057164.0,2026799.5454545454
0.828125,2145412.0,1952411.0,2040274.0,1877655.0,2018430.0,1696291.0,2221043.0,1970650.0,2160908.0,2159914.0,2037196.0,2025471.2727272727
0.84375,2146684.0,1954053.0,2037941.0,1878529.0,2020248.0,1695186.0,2222263.0,1965962.0,2162845.0,2157746.0,2029419.0,2024625.0909090908
0.859375,2147292.0,1951286.0,2037125.0,1879521.0,2022714.0,1694015.0,2212673.0,1961907.0,2163628.0,2156876.0,2020499.0,2022503.2727272727
0.875,2144646.0,1951353.0,2038219.0,1880634.0,2025191.0,1690968.0,2216141.0,1956538.0,2163866.0,2156453.0,2010617.0,2021329.6363636365
0.890625,2141256.0,1955664.0,2042102.0,1881516.0,2027657.0,1684496.0,2216715.0,1947552.0,2163976.0,2156878.0,2000880.0,2019881.0909090908
0.90625,2139535.0,1958549.0,2040321.0,1882878.0,2024964.0,1675100.0,2213614.0,1937559.0,2164458.0,2157719.0,1991668.0,2016942.2727272727
0.921875,2140152.0,1957404.0,2043623.0,1884352.0,2018796.0,1664794.0,2214620.0,1926583.0,2164211.0,2158582.0,1983112.0,2014202.6363636365
0.9375,2139182.0,1959929.0,2047056.0,1885902.0,2013559.0,1656754.0,2222824.0,1916871.0,2165673.0,2159244.0,1975031.0,2012911.3636363635
0.953125,2139165.0,1959258.0,2051313.0,1887432.0,2010035.0,1651007.0,2205512.0,1908028.0,2167101.0,2159590.0,2095862.0,2021300.2727272727
0.96875,2138757.0,1960860.0,2053679.0,1889430.0,2007894.0,1646212.0,2215244.0,1899871.0,2168186.0,2160737.0,2045300.0,2016924.5454545454
0.984375,2138409.0,1961033.0,2055527.0,1889463.0,2005945.0,1640462.0,2211340.0,1894341.0,2169782.0,2162213.0,1967172.0,2008698.8181818181
1.0,2137940.0,1960201.0,2056375.0,1886554.0,2004981.0,1629476.0,2207405.0,1888519.0,2171359.0,2163628.0,1959175.0,2005964.8181818181
1.015625,2137542.0,1956885.0,2056973.0,1883110.0,2004360.0,1614764.0,2202961.0,1883593.0,2172929.0,2165725.0,1951576.0,2002765.2727272727
1.03125,2137180.0,1951407.0,2057510.0,1880839.0,2004958.0,1600234.0,2223846.0,1873362.0,2176735.0,2167072.0,1943775.0,2001538.0
1.046875,2137463.0,1946470.0,2058386.0,1879902.0,2003534.0,1587888.0,2224461.0,1869638.0,2174921.0,2171914.0,1936538.0,1999192.2727272727
1.0625,2137512.0,1942290.0,2060691.0,1879902.0,2004060.0,1577119.0,2225122.0,1866347.0,2178657.0,2168647.0,1929580.0,1997266.0909090908
1.078125,2138183.0,1938655.0,2062085.0,1880700.0,2004212.0,1569339.0,2225879.0,1863593.0,2180137.0,2173359.0,1923484.0,1996329.6363636365
1.09375,2139699.0,1935096.0,2063059.0,1880495.0,2007104.0,1565216.0,2226719.0,1877858.0,2181360.0,2175037.0,1917394.0,1997185.1818181819
1.109375,2138726.0,1932513.0,2063212.0,1878856.0,2005438.0,1563872.0,2223641.0,1859806.0,2181821.0,2174976.0,1910363.0,1993929.4545454546
1.125,2140378.0,1930159.0,2063703.0,1875951.0,2008728.0,1565757.0,2227334.0,1855234.0,2180820.0,2168084.0,1900809.0,1992450.6363636365
1.140625,2140929.0,1927806.0,2063758.0,1873716.0,2011931.0,1568749.0,2227859.0,1848221.0,2181752.0,2171306.0,1890674.0,1991518.2727272727
1.15625,2142300.0,1925522.0,2063932.0,1873113.0,2013616.0,1571754.0,2228364.0,1843851.0,2179362.0,2168279.0,1880705.0,1990072.5454545454
1.171875,2142978.0,1923229.0,2062463.0,1873726.0,2010122.0,1574989.0,2229369.0,1838119.0,2175749.0,2170605.0,1871100.0,1988404.4545454546
1.1875,2143847.0,1921219.0,2061039.0,1875828.0,2014888.0,1578568.0,2230445.0,1830619.0,2177829.0,2169404.0,1862653.0,1987849.0
1.203125,2145086.0,1919683.0,2059845.0,1879307.0,2015933.0,1581960.0,2229817.0,1824699.0,2170034.0,2168207.0,1855454.0,1986365.9090909092
1.21875,2146178.0,1918234.0,2058627.0,1883369.0,2018489.0,1585503.0,2231406.0,1818992.0,2164725.0,2169068.0,1848405.0,1985726.9090909092
1.234375,2147107.0,1917760.0,2057518.0,1888028.0,2021030.0,1589274.0,2232128.0,1814625.0,2162492.0,2169501.0,1841162.0,1985511.3636363635
1.25,2148473.0,1918273.0,2056273.0,1894108.0,2023746.0,1592290.0,2233442.0,1811212.0,2160465.0,2169188.0,1834024.0,1985590.3636363635
1.265625,2149622.0,1916602.0,2055555.0,1902025.0,2026518.0,1594981.0,2232936.0,1808310.0,2158727.0,2169557.0,1827052.0,1985625.9090909092
1.28125,2150446.0,1912675.0,2054781.0,1911620.0,2024839.0,1602315.0,2234081.0,1806203.0,2157209.0,2170872.0,1820611.0,1985968.3636363635
1.296875,2151758.0,1902663.0,2053894.0,1922981.0,2019325.0,1598351.0,2234383.0,1804031.0,2155312.0,2169897.0,1814593.0,1984289.8181818181
1.3125,2149795.0,1907248.0,2052876.0,1934376.0,2014839.0,1608501.0,2234374.0,1801832.0,2167109.0,2172020.0,1809209.0,1986561.7272727273
1.328125,2146544.0,1897426.0,2052075.0,1945418.0,2011067.0,1616931.0,2234695.0,1799163.0,2173359.0,2173203.0,1804170.0,1986731.9090909092
1.34375,2143042.0,1898838.0,2051652.0,1956511.0,2009294.0,1628363.0,2234915.0,1795085.0,2154006.0,2174179.0,1799170.0,1985914.0909090908
1.359375,2140857.0,1898450.0,2051661.0,1967374.0,2007702.0,1644559.0,2234758.0,1790285.0,2152367.0,2175807.0,1792286.0,1986918.7272727273
1.375,2139527.0,1900562.0,2051249.0,1976978.0,2008029.0,1665373.0,2235414.0,1783250.0,2151033.0,2176702.0,1783681.0,1988345.2727272727
1.390625,2139387.0,1902609.0,2051143.0,1984827.0,2008259.0,1684050.0,2235557.0,1775573.0,2149638.0,2177644.0,1774738.0,1989402.2727272727
1.40625,2139797.0,1903539.0,2051752.0,1988449.0,2007905.0,1698742.0,2235762.0,1767901.0,2148246.0,2179172.0,1766280.0,1989776.8181818181
1.421875,2139757.0,1903220.0,2050999.0,1990896.0,2007164.0,1708824.0,2235993.0,1760947.0,2146913.0,2173521.0,1758745.0,1988816.2727272727
1.4375,2139239.0,1903015.0,2049206.0,1993838.0,2007221.0,1715579.0,2236650.0,1754392.0,2146103.0,2177769.0,1752426.0,1988676.1818181819
1.453125,2139331.0,1902016.0,2047210.0,1997922.0,2007751.0,1721778.0,2237051.0,1748869.0,2143997.0,2170693.0,1746708.0,1987575.0909090908
1.46875,2139439.0,1900529.0,2044868.0,2002408.0,2008833.0,1727332.0,2237230.0,1744150.0,2143290.0,2168399.0,1740632.0,1987010.0
1.484375,2140288.0,1899061.0,2042741.0,2007750.0,2010073.0,1732016.0,2237601.0,1738848.0,2142219.0,2167101.0,1734949.0,1986604.2727272727
1.5,2140242.0,1896987.0,2040929.0,2013299.0,2011403.0,1733570.0,2237975.0,1733970.0,2141563.0,2167583.0,1729126.0,1986058.8181818181
1.515625,2142089.0,1894852.0,2039344.0,2018004.0,2012303.0,1733927.0,2238694.0,1729868.0,2140704.0,2167150.0,1724058.0,1985544.8181818181
1.53125,2143743.0,1895043.0,2037774.0,2022278.0,2013508.0,1734894.0,2238857.0,1726212.0,2140257.0,2166053.0,1719450.0,1985279.0
1.546875,2144843.0,1894482.0,2036065.0,2026493.0,2014836.0,1735307.0,2239392.0,1723181.0,2138144.0,2164275.0,1714964.0,1984725.6363636365
1.5625,2145513.0,1889921.0,2034473.0,2031008.0,2016107.0,1735114.0,2239576.0,1720357.0,2135187.0,2163062.0,1710792.0,1983737.2727272727
1.578125,2145929.0,1885907.0,2033174.0,2035743.0,2017348.0,1736332.0,2239196.0,1717524.0,2144922.0,2162580.0,1707047.0,1984154.7272727273
1.59375,2146535.0,1881196.0,2032211.0,2040865.0,2018558.0,1739865.0,2238983.0,1714455.0,2132381.0,2162292.0,1702891.0,1982748.3636363635
1.609375,2147024.0,1877437.0,2031085.0,2046006.0,2019317.0,1744596.0,2238801.0,1709219.0,2129424.0,2161443.0,1696224.0,1981870.5454545454
1.625,2148029.0,1876447.0,2030380.0,2050659.0,2020677.0,1750446.0,2238635.0,1702941.0,2126947.0,2159903.0,1688890.0,1981268.5454545454
1.640625,2148679.0,1876144.0,2029698.0,2055454.0,2019608.0,1758150.0,2238312.0,1696325.0,2124413.0,2158406.0,1681876.0,1980642.2727272727
1.65625,2149262.0,1876541.0,2028726.0,2060294.0,2014971.0,1766241.0,2238230.0,1690848.0,2121889.0,2156994.0,1675794.0,1979980.9090909092
1.671875,2150235.0,1876829.0,2027978.0,2064499.0,2009720.0,1773358.0,2238284.0,1686481.0,2119887.0,2155884.0,1670883.0,1979458.0
1.6875,2097152.0,1877866.0,2025506.0,2068785.0,2005721.0,1779423.0,2238087.0,1683057.0,2117101.0,2153929.0,1666639.0,1973933.2727272727
1.703125,2324039.0,1879036.0,2022222.0,2073062.0,2003964.0,1785701.0,2238659.0,1679306.0,2114805.0,2152524.0,1662225.0,1994140.2727272727
1.71875,2324009.0,1881706.0,2018420.0,2076739.0,2002924.0,1791351.0,2238389.0,1676285.0,2112368.0,2148363.0,1657999.0,1993504.8181818181
1.734375,2323557.0,1885034.0,2015121.0,2080232.0,2003488.0,1795279.0,2238507.0,1673229.0,2110423.0,2143816.0,1653812.0,1992954.3636363635
1.75,2323002.0,1888356.0,2011978.0,2083941.0,2003990.0,1796573.0,2238708.0,1670329.0,2108712.0,2139782.0,1650037.0,1992309.8181818181
1.765625,2322683.0,1892015.0,2009442.0,2087721.0,2004069.0,1797170.0,2238905.0,1668197.0,2105028.0,2137892.0,1646414.0,1991776.0
1.78125,2322417.0,1895297.0,2007472.0,2091114.0,2004072.0,1798175.0,2239271.0,1666178.0,2103355.0,2136038.0,1643099.0,1991498.9090909092
1.796875,2322348.0,1898457.0,2006173.0,2094686.0,2004214.0,1800470.0,2239690.0,1664623.0,2100443.0,2135020.0,1640185.0,1991482.6363636365
1.8125,2322414.0,1901591.0,2004567.0,2098289.0,2005169.0,1803722.0,2239746.0,1663053.0,2098631.0,2134682.0,1637682.0,1991776.9090909092
1.828125,2322421.0,1904103.0,2003372.0,2100533.0,2006924.0,1808193.0,2240330.0,1660935.0,2097370.0,2133437.0,1634757.0,1992034.0909090908
1.84375,2195841.0,1906483.0,2002654.0,2100361.0,2008275.0,1813080.0,2240417.0,1656524.0,2106718.0,2130536.0,1630323.0,1981019.2727272727
1.859375,2195498.0,1905919.0,2001636.0,2100445.0,2010301.0,1817969.0,2241010.0,1651411.0,2101936.0,2128246.0,1624708.0,1979916.2727272727
1.875,2195276.0,1904085.0,2000965.0,2101625.0,2012651.0,1822319.0,2241049.0,1646641.0,2094802.0,2125681.0,1618869.0,1978542.0909090908
1.890625,2195134.0,1901156.0,2000267.0,2103803.0,2014148.0,1825621.0,2240694.0,1642981.0,2096110.0,2121371.0,1613903.0,1977744.3636363635
1.90625,2194945.0,1899639.0,1999894.0,2105825.0,2016306.0,1827974.0,2240219.0,1640068.0,2087660.0,2114636.0,1609527.0,1976063.0
1.921875,2110066.0,1898867.0,1999501.0,2108200.0,2018723.0,1830169.0,2240073.0,1637916.0,2083304.0,2106393.0,1606555.0,1967251.5454545454
1.9375,2110019.0,1899778.0,1999061.0,2110865.0,2021049.0,1832094.0,2239772.0,1635851.0,2091809.0,2099185.0,1603380.0,1967533.0
1.953125,2110060.0,1900792.0,1997887.0,2113415.0,2021049.0,1833777.0,2239484.0,1633310.0,2079801.0,2092016.0,1600037.0,1965602.5454545454
1.96875,2110181.0,1902411.0,1994493.0,2115315.0,2024055.0,1835321.0,2239277.0,1631405.0,2076331.0,2085747.0,1596807.0,1964667.5454545454
1.984375,2110047.0,1903641.0,1991138.0,2117159.0,2027235.0,1837260.0,2239144.0,1629956.0,2072725.0,2080165.0,1594015.0,1963862.2727272727
2.0,2047519.0,1904769.0,1988140.0,2119083.0,2029854.0,1839532.0,2239009.0,1628557.0,2070017.0,2071426.0,1591250.0,1957196.0
2.015625,2047450.0,1905870.0,1984927.0,2121135.0,2032089.0,1841053.0,2239166.0,1627346.0,2066593.0,2056951.0,1588743.0,1955574.8181818181
2.03125,2047747.0,1907076.0,1982562.0,2124555.0,2029981.0,1842857.0,2239104.0,1626352.0,2060287.0,2041109.0,1586640.0,1953479.0909090908
2.046875,2048146.0,1908475.0,1980655.0,2126852.0,2025903.0,1844377.0,2239273.0,1625672.0,2063238.0,2028173.0,1584539.0,1952300.2727272727
2.0625,2048600.0,1909935.0,1979000.0,2122869.0,2021917.0,1846131.0,2239653.0,1622801.0,2057261.0,2017199.0,1582590.0,1949814.1818181819
2.078125,2132445.0,1911545.0,1977344.0,2128986.0,2019434.0,1846955.0,2239552.0,1618392.0,2054739.0,2007203.0,1579868.0,1956042.0909090908
2.09375,2132727.0,1913411.0,1975845.0,2130709.0,2017500.0,1847906.0,2240014.0,1613533.0,2051948.0,1999596.0,1575177.0,1954396.9090909092
2.109375,2132685.0,1915657.0,1974604.0,2132075.0,2016193.0,1848674.0,2239891.0,1609169.0,2049417.0,1992087.0,1570066.0,1952774.3636363635
2.125,2133112.0,1917670.0,1973624.0,2133855.0,2016346.0,1849260.0,2240297.0,1605627.0,2046403.0,1984080.0,1565331.0,1951418.6363636365
2.140625,2133008.0,1917267.0,1972787.0,2135736.0,2016490.0,1850012.0,2240453.0,1603115.0,2044367.0,1976111.0,1561245.0,1950053.7272727273
2.15625,2129121.0,1914754.0,1971967.0,2137028.0,2016322.0,1850536.0,2240833.0,1601390.0,2042432.0,1969565.0,1558302.0,1948386.3636363635
2.171875,2122723.0,1911911.0,1971317.0,2138481.0,2016505.0,1851037.0,2240944.0,1599618.0,2040365.0,1964357.0,1555934.0,1946653.8181818181
2.1875,2116513.0,1909731.0,1970906.0,2140068.0,2016989.0,1852234.0,2241283.0,1597767.0,2038616.0,1959971.0,1553432.0,1945228.1818181819
2.203125,2112407.0,1908515.0,1970610.0,2141588.0,2017837.0,1853295.0,2241486.0,1596401.0,2037146.0,1956057.0,1550907.0,1944204.4545454546
2.21875,2104806.0,1908532.0,1970454.0,2142637.0,2019535.0,1854594.0,2241137.0,1595290.0,2035610.0,1952427.0,1548438.0,1943041.8181818181
2.234375,2106600.0,1909153.0,1969926.0,2143704.0,2020995.0,1855955.0,2240725.0,1594404.0,2034123.0,1948048.0,1546014.0,1942695.1818181819
2.25,2109382.0,1910546.0,1967601.0,2144718.0,2023228.0,1857485.0,2240584.0,1593590.0,2030979.0,1943942.0,1544078.0,1942375.7272727273
2.265625,2102477.0,1911799.0,1961334.0,2145112.0,2025235.0,1859129.0,2240101.0,1593106.0,2026453.0,1940104.0,1542458.0,1940664.3636363635
2.28125,2099527.0,1912918.0,1964580.0,2145686.0,2027383.0,1860585.0,2240001.0,1592378.0,2021339.0,1935799.0,1541041.0,1940112.4545454546
2.296875,2096484.0,1914489.0,1958655.0,2145276.0,2029495.0,1861937.0,2239646.0,1589971.0,2017160.0,1925364.0,1539565.0,1938003.8181818181
2.3125,2093398.0,1915899.0,1956313.0,2141200.0,2031696.0,1864818.0,2239663.0,1586166.0,2013360.0,1910999.0,1538290.0,1935618.3636363635
2.328125,2090034.0,1917558.0,1954203.0,2134452.0,2034085.0,1863511.0,2239712.0,1581589.0,2009141.0,1898835.0,1535741.0,1932623.7272727273
2.34375,2087813.0,1919434.0,1952895.0,2126525.0,2036149.0,1866039.0,2239376.0,1577307.0,2005967.0,1888804.0,1531829.0,1930194.3636363635
2.359375,2085348.0,1921092.0,1951369.0,2118238.0,2038991.0,1868890.0,2239512.0,1574248.0,2002445.0,1879843.0,1527126.0,1927918.3636363635
2.375,2082759.0,1922869.0,1950173.0,2110463.0,2041569.0,1867702.0,2239609.0,1571844.0,1999040.0,1872441.0,1523701.0,1925651.8181818181
2.390625,2077942.0,1924836.0,1949054.0,2102578.0,2044558.0,1870083.0,2239441.0,1570164.0,1995886.0,1865474.0,1520716.0,1923702.9090909092
2.40625,2075907.0,1926392.0,1948209.0,2095592.0,2045619.0,1870908.0,2239669.0,1568852.0,1992766.0,1857743.0,1518757.0,1921855.8181818181
2.421875,2074248.0,1925316.0,1947532.0,2088220.0,2042792.0,1871517.0,2239738.0,1567289.0,1990601.0,1849709.0,1517025.0,1919453.3636363635
2.4375,2080535.0,1922634.0,1947094.0,2080070.0,2038925.0,1872339.0,2239681.0,1566173.0,1988082.0,1843406.0,1515222.0,1917651.0
2.453125,2073001.0,1919460.0,1946573.0,2070639.0,2035630.0,1873391.0,2240088.0,1565324.0,1985801.0,1838477.0,1513319.0,1914700.2727272727
2.46875,2073405.0,1916810.0,1946311.0,2059980.0,2032983.0,1874305.0,2240489.0,1564490.0,1983849.0,1833626.0,1511551.0,1912527.1818181819
2.484375,2071987.0,1914786.0,1946214.0,2050074.0,2032251.0,1875306.0,2240603.0,1563854.0,1981904.0,1829601.0,1509923.0,1910591.1818181819
2.5,2072007.0,1914193.0,1946568.0,2040462.0,2032330.0,1876144.0,2240789.0,1563598.0,1980045.0,1826476.0,1508783.0,1909217.7272727273
2.515625,2072051.0,1914019.0,1946147.0,2032177.0,2033339.0,1877514.0,2240825.0,1563043.0,1978305.0,1822868.0,1507568.0,1907986.9090909092
2.53125,2072037.0,1914486.0,1946329.0,2024502.0,2034730.0,1878223.0,2241255.0,1562448.0,1976418.0,1819899.0,1506879.0,1907018.7272727273
2.546875,2071965.0,1915927.0,1946509.0,2017513.0,2036546.0,1879227.0,2241773.0,1560501.0,1974841.0,1817391.0,1506214.0,1906218.8181818181
2.5625,2072042.0,1916803.0,1941595.0,2011059.0,2038592.0,1880455.0,2241239.0,1556744.0,1973413.0,1813992.0,1505615.0,1904686.2727272727
2.578125,2071944.0,1915039.0,1944640.0,1999587.0,2041755.0,1881134.0,2240744.0,1553214.0,1972083.0,1805069.0,1505146.0,1902759.5454545454
2.59375,2069729.0,1918139.0,1939135.0,1993990.0,2045202.0,1882008.0,2240738.0,1549772.0,1970317.0,1793584.0,1503867.0,1900589.1818181819
2.609375,2064103.0,1919307.0,1937073.0,1988624.0,2049051.0,1884059.0,2240294.0,1546925.0,1966306.0,1784543.0,1500970.0,1898295.9090909092
2.625,2056717.0,1920853.0,1934941.0,2005135.0,2052641.0,1882813.0,2240173.0,1545319.0,1961384.0,1778180.0,1498014.0,1897833.6363636365
2.640625,2042155.0,1922282.0,1933563.0,1983584.0,2056224.0,1885053.0,2240034.0,1544233.0,1957141.0,1772910.0,1495720.0,1893899.9090909092
2.65625,2039054.0,1923669.0,1932694.0,1978950.0,2059904.0,1883465.0,2239854.0,1543270.0,1953218.0,1768808.0,1493852.0,1892430.7272727273
2.671875,2050656.0,1925394.0,1931043.0,1974386.0,2062395.0,1886372.0,2239898.0,1542190.0,1949391.0,1765337.0,1492636.0,1892699.8181818181
2.6875,2045997.0,1927101.0,1930507.0,1970510.0,2064331.0,1887322.0,2239798.0,1540919.0,1945780.0,1760803.0,1491888.0,1891359.6363636365
2.703125,2036703.0,1927377.0,1931858.0,1966988.0,2065467.0,1885702.0,2239887.0,1540216.0,1942389.0,1756630.0,1491132.0,1889486.2727272727
2.71875,2033807.0,1924716.0,1930053.0,1960747.0,2066017.0,1887573.0,2240216.0,1539791.0,1939275.0,1753903.0,1490207.0,1887845.9090909092
2.734375,2030879.0,1921059.0,1929657.0,1963528.0,2066623.0,1887570.0,2240187.0,1539390.0,1936015.0,1751928.0,1489520.0,1886941.4545454546
2.75,2025629.0,1917838.0,1929565.0,1957920.0,2066844.0,1887804.0,2240183.0,1538847.0,1933042.0,1750785.0,1488877.0,1885212.1818181819
2.765625,2027869.0,1915224.0,1929972.0,1953281.0,2067207.0,1887942.0,2240172.0,1538687.0,1930861.0,1750240.0,1488937.0,1884581.0909090908
2.78125,2023680.0,1913820.0,1930310.0,1943247.0,2067177.0,1889067.0,2240260.0,1538273.0,1929055.0,1749801.0,1489050.0,1883067.2727272727
2.796875,2022753.0,1912910.0,1930541.0,1931340.0,2067225.0,1888535.0,2240427.0,1538188.0,1927498.0,1749236.0,1489024.0,1881607.0
2.8125,2021574.0,1913179.0,1930857.0,1919798.0,2063333.0,1890448.0,2240467.0,1536711.0,1925975.0,1749097.0,1489529.0,1880088.0
2.828125,2020630.0,1914371.0,1931403.0,1910526.0,2057747.0,1889622.0,2240955.0,1533922.0,1924073.0,1748909.0,1489770.0,1878357.0909090908
2.84375,2021241.0,1915362.0,1932145.0,1903170.0,2052957.0,1891197.0,2240502.0,1530476.0,1922277.0,1744180.0,1490583.0,1876735.4545454546
2.859375,2020217.0,1913383.0,1932704.0,1897516.0,2050204.0,1892077.0,2240823.0,1527752.0,1920801.0,1735217.0,1491216.0,1874719.0909090908
2.875,2019563.0,1918825.0,1933319.0,1893046.0,2047725.0,1892682.0,2241066.0,1525593.0,1919538.0,1727936.0,1491655.0,1873722.5454545454
2.890625,2019155.0,1916995.0,1931944.0,1887987.0,2046642.0,1893593.0,2241023.0,1524285.0,1918731.0,1723033.0,1490496.0,1872171.2727272727
2.90625,2019090.0,1920617.0,1929905.0,1882002.0,2046357.0,1894386.0,2240513.0,1523528.0,1917939.0,1718392.0,1488924.0,1871059.3636363635
2.921875,2018760.0,1922490.0,1927856.0,1876116.0,2045886.0,1895278.0,2240247.0,1522489.0,1917152.0,1715445.0,1487617.0,1869939.6363636365
2.9375,2019135.0,1924613.0,1926326.0,1870385.0,2045623.0,1896026.0,2239933.0,1521486.0,1916205.0,1713129.0,1486623.0,1869044.0
2.953125,2019188.0,1928536.0,1924810.0,1859959.0,2044829.0,1897013.0,2239357.0,1520778.0,1913455.0,1710552.0,1486243.0,1867701.8181818181
2.96875,2019764.0,1931895.0,1924097.0,1862629.0,2044507.0,1897954.0,2239131.0,1519842.0,1909066.0,1708140.0,1486775.0,1867618.1818181819
2.984375,2020330.0,1930628.0,1923854.0,1858032.0,2045292.0,1898526.0,2238712.0,1519445.0,1904890.0,1706450.0,1486947.0,1866646.0
3.0,2020400.0,1926679.0,1923502.0,1855927.0,2046231.0,1899630.0,2238885.0,1519161.0,1901814.0,1705576.0,1487284.0,1865917.1818181819
3.015625,2021092.0,1930754.0,1923232.0,1866005.0,2047921.0,1901708.0,2238751.0,1518786.0,1899665.0,1705749.0,1487642.0,1867391.3636363635
3.03125,2019411.0,1928138.0,1922829.0,1854149.0,2047179.0,1900404.0,2238626.0,1518656.0,1897458.0,1705987.0,1488459.0,1865572.3636363635
3.046875,2014141.0,1925437.0,1923018.0,1852487.0,2047203.0,1902193.0,2238439.0,1518031.0,1895463.0,1706389.0,1489491.0,1864753.8181818181
3.0625,2008008.0,1923848.0,1922891.0,1850957.0,2047386.0,1902556.0,2238357.0,1517951.0,1893520.0,1707035.0,1490879.0,1863944.3636363635
3.078125,2003609.0,1922901.0,1922928.0,1849739.0,2048693.0,1902985.0,2238502.0,1517924.0,1891242.0,1707327.0,1492304.0,1863468.5454545454
3.09375,2001216.0,1923403.0,1923270.0,1848835.0,2049724.0,1903585.0,2238388.0,1516729.0,1889213.0,1708497.0,1493828.0,1863335.2727272727
3.109375,1999257.0,1924951.0,1923543.0,1848997.0,2051451.0,1904324.0,2238374.0,1514434.0,1887496.0,1707407.0,1495349.0,1863234.8181818181
3.125,1998302.0,1926625.0,1924282.0,1849431.0,2052722.0,1905213.0,2238590.0,1511559.0,1886309.0,1701224.0,1496930.0,1862835.1818181819
3.140625,1997523.0,1927716.0,1925218.0,1848980.0,2054262.0,1905941.0,2238685.0,1509383.0,1885277.0,1694850.0,1498777.0,1862419.2727272727
3.15625,1995913.0,1928527.0,1925937.0,1846688.0,2055737.0,1907075.0,2238476.0,1507406.0,1884175.0,1690339.0,1500401.0,1861879.4545454546
3.171875,1993942.0,1929538.0,1926892.0,1840944.0,2057291.0,1907574.0,2238815.0,1506388.0,1883482.0,1687340.0,1500839.0,1861185.9090909092
3.1875,1992585.0,1931081.0,1927965.0,1834737.0,2057589.0,1908506.0,2239004.0,1505742.0,1884157.0,1684767.0,1500593.0,1860611.4545454546
3.203125,1991822.0,1932097.0,1927912.0,1829902.0,2054627.0,1909481.0,2239391.0,1504948.0,1886570.0,1684238.0,1500333.0,1860120.0909090908
3.21875,1991332.0,1932918.0,1928853.0,1827115.0,2050110.0,1910169.0,2238693.0,1503759.0,1889385.0,1683208.0,1500520.0,1859642.0
3.234375,1991632.0,1933882.0,1926516.0,1825798.0,2045778.0,1910997.0,2238322.0,1503305.0,1891838.0,1682728.0,1501157.0,1859268.4545454546
3.25,1991914.0,1934527.0,1925395.0,1826120.0,2045096.0,1911797.0,2237765.0,1502637.0,1894041.0,1681790.0,1502457.0,1859412.6363636365
3.265625,1992629.0,1935228.0,1924591.0,1826581.0,2045118.0,1912318.0,2237340.0,1502349.0,1894903.0,1682176.0,1503930.0,1859742.0909090908
3.28125,1993089.0,1935445.0,1923818.0,1826153.0,2045552.0,1912949.0,2236675.0,1501701.0,1895462.0,1682888.0,1504902.0,1859875.8181818181
3.296875,1993553.0,1932574.0,1923494.0,1825782.0,2046032.0,1913613.0,2236371.0,1501401.0,1895702.0,1684504.0,1505785.0,1859891.9090909092
3.3125,1994621.0,1929400.0,1923226.0,1825684.0,2046207.0,1914680.0,2236285.0,1501016.0,1893193.0,1686505.0,1506958.0,1859797.7272727273
3.328125,1995290.0,1926430.0,1923285.0,1826227.0,2046123.0,1915269.0,2236027.0,1500912.0,1889662.0,1688977.0,1508268.0,1859679.0909090908
3.34375,1995532.0,1924530.0,1922914.0,1827044.0,2046211.0,1915933.0,2235805.0,1500639.0,1886731.0,1690924.0,1510141.0,1859673.0909090908
3.359375,1996660.0,1923445.0,1922894.0,1828565.0,2047025.0,1916790.0,2235347.0,1500349.0,1884133.0,1693468.0,1511035.0,1859973.7272727273
3.375,1997553.0,1923816.0,1923005.0,1830206.0,2048721.0,1917464.0,2235311.0,1499609.0,1881827.0,1695928.0,1512400.0,1860530.9090909092
3.390625,1998652.0,1923471.0,1923145.0,1831964.0,2047513.0,1918050.0,2235151.0,1497532.0,1879009.0,1694925.0,1513830.0,1860294.7272727273
3.40625,1999987.0,1923534.0,1923539.0,1833664.0,2049826.0,1918260.0,2234964.0,1495285.0,1876778.0,1690703.0,1515184.0,1860156.7272727273
3.421875,2001307.0,1923775.0,1924263.0,1835637.0,2051639.0,1918388.0,2234890.0,1493978.0,1874193.0,1686432.0,1517143.0,1860149.5454545454
3.4375,2002685.0,1924416.0,1924626.0,1837519.0,2053060.0,1918416.0,2234595.0,1492295.0,1871096.0,1684218.0,1518410.0,1860121.4545454546
3.453125,2003966.0,1923636.0,1925335.0,1839497.0,2054736.0,1919094.0,2234591.0,1491359.0,1868506.0,1683149.0,1518116.0,1860180.4545454546
3.46875,2001142.0,1923738.0,1926029.0,1841571.0,2056090.0,1919477.0,2234496.0,1490691.0,1866290.0,1682401.0,1518558.0,1860043.9090909092
3.484375,1995761.0,1926265.0,1926774.0,1843673.0,2057750.0,1920162.0,2234403.0,1489901.0,1864270.0,1683172.0,1517341.0,1859952.0
3.5,1990822.0,1925151.0,1927295.0,1845864.0,2059442.0,1920685.0,2233930.0,1489095.0,1862255.0,1683732.0,1516502.0,1859524.8181818181
3.515625,1987007.0,1929006.0,1925053.0,1846127.0,2060825.0,1921405.0,2233650.0,1488605.0,1860449.0,1683541.0,1516480.0,1859286.1818181819
3.53125,1984910.0,1927651.0,1923257.0,1843263.0,2062744.0,1922060.0,2232899.0,1488008.0,1859122.0,1683978.0,1516239.0,1858557.3636363635
3.546875,1983476.0,1930500.0,1924115.0,1839165.0,2064437.0,1922756.0,2232581.0,1487560.0,1857907.0,1685371.0,1515716.0,1858507.6363636365
3.5625,1982559.0,1930580.0,1922733.0,1836240.0,2066459.0,1923326.0,2232124.0,1487004.0,1857183.0,1687555.0,1516306.0,1858369.9090909092
3.578125,1982340.0,1928135.0,1922530.0,1834508.0,2067978.0,1923665.0,2231352.0,1486628.0,1856610.0,1689859.0,1517277.0,1858262.0
3.59375,1981199.0,1924319.0,1922772.0,1834183.0,2065767.0,1924641.0,2231006.0,1486463.0,1856497.0,1692351.0,1518243.0,1857949.1818181819
3.609375,1980331.0,1921020.0,1926407.0,1835363.0,2062475.0,1925115.0,2230777.0,1485799.0,1856594.0,1694750.0,1518892.0,1857956.6363636365
3.625,1979500.0,1917955.0,1922943.0,1836682.0,2058272.0,1925953.0,2230399.0,1485933.0,1856676.0,1697637.0,1519235.0,1857380.4545454546
3.640625,1979426.0,1916125.0,1922807.0,1837293.0,2052271.0,1926367.0,2229960.0,1485405.0,1856327.0,1700271.0,1519580.0,1856893.8181818181
3.65625,1980064.0,1915459.0,1923679.0,1837473.0,2055139.0,1927102.0,2229479.0,1483955.0,1853736.0,1702828.0,1519729.0,1857149.3636363635
3.671875,1980474.0,1915251.0,1923292.0,1837210.0,2050292.0,1927577.0,2229606.0,1482341.0,1850563.0,1702102.0,1519959.0,1856242.4545454546
3.6875,1981220.0,1915522.0,1924730.0,1837223.0,2049119.0,1928259.0,2229043.0,1480772.0,1848442.0,1698133.0,1520079.0,1855685.6363636365
3.703125,1982621.0,1915837.0,1924294.0,1837397.0,2048330.0,1928797.0,2228897.0,1479859.0,1846463.0,1695219.0,1519373.0,1855189.7272727273
3.71875,1983577.0,1916205.0,1925437.0,1838080.0,2047373.0,1929323.0,2228647.0,1479170.0,1844653.0,1694836.0,1517862.0,1855014.8181818181
3.734375,1984415.0,1916267.0,1926117.0,1838896.0,2046283.0,1929900.0,2228050.0,1478519.0,1843431.0,1694388.0,1515741.0,1854727.9090909092
3.75,1986014.0,1916647.0,1926822.0,1840184.0,2046189.0,1930142.0,2227891.0,1477975.0,1842158.0,1694974.0,1515505.0,1854954.6363636365
3.765625,1987224.0,1917554.0,1927787.0,1841504.0,2046690.0,1930942.0,2228105.0,1477162.0,1840848.0,1695860.0,1516535.0,1855473.7272727273
3.78125,1988425.0,1918794.0,1928443.0,1842993.0,2047401.0,1930990.0,2227571.0,1476545.0,1839472.0,1696238.0,1516158.0,1855730.0
3.796875,1989896.0,1920165.0,1929251.0,1844658.0,2048032.0,1931262.0,2227018.0,1476215.0,1838331.0,1696702.0,1516978.0,1856228.0
3.8125,1991467.0,1921117.0,1928465.0,1845966.0,2048624.0,1931065.0,2225908.0,1475735.0,1837863.0,1697366.0,1517772.0,1856486.1818181819
3.828125,1993381.0,1922367.0,1927022.0,1847339.0,2049463.0,1931409.0,2225428.0,1475314.0,1837490.0,1699370.0,1522599.0,1857380.1818181819
3.84375,1995034.0,1923972.0,1925831.0,1848719.0,2050233.0,1931891.0,2223981.0,1475193.0,1837169.0,1701648.0,1519118.0,1857526.2727272727
3.859375,1997031.0,1923219.0,1924578.0,1849617.0,2051677.0,1932439.0,2223234.0,1474713.0,1837382.0,1703932.0,1528074.0,1858717.8181818181
3.875,1999029.0,1919807.0,1923586.0,1848969.0,2052634.0,1932955.0,2222856.0,1474604.0,1837167.0,1706925.0,1527258.0,1858708.1818181819
3.890625,2000947.0,1915322.0,1923005.0,1846968.0,2053929.0,1933787.0,2222396.0,1474273.0,1837325.0,1709194.0,1518944.0,1857826.3636363635
3.90625,2002805.0,1911741.0,1922661.0,1845831.0,2055464.0,1934146.0,2221778.0,1473436.0,1837438.0,1712225.0,1515769.0,1857572.1818181819
3.921875,2001455.0,1909624.0,1922529.0,1845286.0,2057005.0,1934597.0,2221382.0,1471803.0,1837846.0,1714934.0,1517017.0,1857588.9090909092
3.9375,1997629.0,1909020.0,1922335.0,1845283.0,2058531.0,1935143.0,2221200.0,1470121.0,1837730.0,1717172.0,1523639.0,1857982.0909090908
3.953125,1994364.0,1909528.0,1922102.0,1845819.0,2060372.0,1935659.0,2220577.0,1468584.0,1838405.0,1714914.0,1534434.0,1858614.3636363635
3.96875,1992123.0,1910250.0,1922226.0,1847721.0,2062059.0,1936276.0,2220065.0,1467542.0,1838869.0,1712009.0,1545491.0,1859511.9090909092
3.984375,1991285.0,1910096.0,1922258.0,1849851.0,2061084.0,1936693.0,2219731.0,1466853.0,1838356.0,1710607.0,1561529.0,1860758.4545454546
4.0,1990862.0,1909390.0,1922553.0,1852284.0,2056531.0,1937232.0,2219511.0,1466308.0,1835761.0,1710768.0,1553808.0,1859546.1818181819
4.015625,1991318.0,1908730.0,1922904.0,1854619.0,2050900.0,1937898.0,2219127.0,1465675.0,1832654.0,1711160.0,1575028.0,1860910.2727272727
4.03125,1991452.0,1908006.0,1923232.0,1857646.0,2047105.0,1938414.0,2218879.0,1465047.0,1830347.0,1712411.0,1569270.0,1860164.4545454546
4.046875,1991587.0,1907075.0,1923691.0,1861012.0,2043705.0,1938710.0,2218538.0,1464229.0,1828328.0,1713293.0,1577268.0,1860676.0
4.0625,1991460.0,1906549.0,1924370.0,1864813.0,2041561.0,1939419.0,2218025.0,1463910.0,1826329.0,1714125.0,1576801.0,1860669.2727272727
4.078125,1991371.0,1906179.0,1924700.0,1868547.0,2039687.0,1939776.0,2217177.0,1463256.0,1825108.0,1714825.0,1572190.0,1860256.0
4.09375,1992080.0,1905950.0,1925430.0,1872444.0,2038639.0,1940346.0,2216123.0,1462952.0,1823862.0,1716305.0,1564231.0,1859851.0909090908
4.109375,1993135.0,1905976.0,1925365.0,1876262.0,2037564.0,1940765.0,2214652.0,1462563.0,1822876.0,1718648.0,1556990.0,1859526.9090909092
4.125,1993969.0,1906485.0,1923912.0,1880426.0,2036002.0,1941250.0,2213306.0,1462440.0,1821747.0,1721001.0,1553115.0,1859423.0
4.140625,1995276.0,1905421.0,1922445.0,1884270.0,2034623.0,1941670.0,2212176.0,1462305.0,1821087.0,1723668.0,1555527.0,1859860.7272727273
4.15625,1996784.0,1902078.0,1920827.0,1888364.0,2034623.0,1941595.0,2211084.0,1461626.0,1820763.0,1725847.0,1554004.0,1859781.3636363635
4.171875,1998359.0,1897544.0,1919755.0,1892341.0,2034702.0,1941861.0,2210326.0,1459993.0,1820630.0,1728801.0,1550183.0,1859499.5454545454
4.1875,1999511.0,1892433.0,1918667.0,1896175.0,2034857.0,1941385.0,2209455.0,1458137.0,1820823.0,1731403.0,1553790.0,1859694.1818181819
4.203125,2000919.0,1889416.0,1918044.0,1900419.0,2035678.0,1941668.0,2208790.0,1456423.0,1821223.0,1734212.0,1559806.0,1860599.8181818181
4.21875,2002452.0,1877807.0,1917768.0,1904661.0,2036548.0,1941984.0,2207785.0,1455181.0,1821701.0,1733656.0,1561775.0,1860119.8181818181
4.234375,2004270.0,1862341.0,1917354.0,1906346.0,2037360.0,1942114.0,2207060.0,1454207.0,1822237.0,1730166.0,1560737.0,1858562.9090909092
4.25,2005883.0,1849359.0,1917309.0,1906612.0,2038345.0,1942638.0,2206269.0,1453801.0,1823330.0,1727639.0,1561807.0,1857544.7272727273
4.265625,2007768.0,1841058.0,1917067.0,1907561.0,2039202.0,1943194.0,2205444.0,1452838.0,1824108.0,1726578.0,1563949.0,1857160.6363636365
4.28125,2009722.0,1834047.0,1916999.0,1909159.0,2040553.0,1943385.0,2204824.0,1452168.0,1824911.0,1726199.0,1564984.0,1856995.5454545454
4.296875,2011673.0,1828843.0,1917174.0,1910830.0,2041638.0,1943840.0,2204626.0,1451638.0,1825852.0,1726451.0,1566361.0,1857175.0909090908
4.3125,2013183.0,1829094.0,1917533.0,1912576.0,2042977.0,1943956.0,2203828.0,1451157.0,1826811.0,1727576.0,1567839.0,1857866.3636363635
4.328125,2015362.0,1827807.0,1917799.0,1914929.0,2044340.0,1944473.0,2203118.0,1450552.0,1827381.0,1728498.0,1569025.0,1858480.3636363635
4.34375,2017451.0,1826310.0,1918144.0,1916774.0,2046279.0,1944859.0,2202966.0,1450312.0,1825894.0,1728905.0,1570306.0,1858927.2727272727
4.359375,2017424.0,1834757.0,1918592.0,1918571.0,2047072.0,1945154.0,2202287.0,1450125.0,1823047.0,1729960.0,1571090.0,1859825.3636363635
4.375,2014458.0,1850156.0,1919491.0,1920252.0,2044360.0,1945437.0,2201194.0,1449803.0,1820689.0,1731510.0,1574063.0,1861037.5454545454
4.390625,2011820.0,1875835.0,1921664.0,1922104.0,2033719.0,1946127.0,2199587.0,1449306.0,1818934.0,1733825.0,1577257.0,1862743.4545454546
4.40625,2010159.0,1896268.0,1924284.0,1923987.0,2033059.0,1946323.0,2198040.0,1448556.0,1817377.0,1736313.0,1580137.0,1864954.8181818181
4.421875,2010005.0,1909861.0,1926359.0,1926791.0,2035368.0,1947044.0,2196607.0,1446824.0,1815670.0,1738752.0,1582698.0,1866907.1818181819
4.4375,2010016.0,1919210.0,1926831.0,1929160.0,2032802.0,1947653.0,2194956.0,1444810.0,1814604.0,1740980.0,1582516.0,1867594.3636363635
4.453125,2010625.0,1919113.0,1927391.0,1931975.0,2033739.0,1948071.0,2193384.0,1443348.0,1813532.0,1743684.0,1582768.0,1867966.3636363635
4.46875,2011783.0,1917782.0,1928631.0,1935062.0,2033926.0,1948430.0,2192276.0,1441993.0,1812375.0,1746538.0,1582157.0,1868268.4545454546
4.484375,2011813.0,1917437.0,1930736.0,1938049.0,2034645.0,1949285.0,2191001.0,1441227.0,1811309.0,1748893.0,1581147.0,1868685.6363636365
4.5,2011884.0,1915366.0,1933334.0,1941543.0,2035639.0,1949315.0,2189863.0,1440416.0,1810618.0,1747422.0,1581215.0,1868783.1818181819
4.515625,2012289.0,1911350.0,1936251.0,1944810.0,2037045.0,1949873.0,2188678.0,1439756.0,1810481.0,1743940.0,1586003.0,1869134.1818181819
4.53125,2012841.0,1908878.0,1942065.0,1948275.0,2039128.0,1949731.0,2187977.0,1438634.0,1810509.0,1741243.0,1594820.0,1870372.8181818181
4.546875,2013896.0,1907893.0,1948624.0,1952056.0,2039335.0,1949856.0,2187014.0,1438226.0,1810754.0,1739650.0,1602205.0,1871773.5454545454
4.5625,2015207.0,1907688.0,1953756.0,1955379.0,2042259.0,1950103.0,2186097.0,1437360.0,1811037.0,1738945.0,1629207.0,1875185.2727272727
4.578125,2016961.0,1907783.0,1957510.0,1957118.0,2045843.0,1950091.0,2185500.0,1436921.0,1811446.0,1738730.0,1612997.0,1874627.2727272727
4.59375,2018376.0,1907895.0,1962200.0,1958495.0,2049213.0,1950696.0,2184248.0,1436664.0,1811840.0,1738876.0,1650631.0,1879012.1818181819
4.609375,2019656.0,1908993.0,1968060.0,1960303.0,2052945.0,1951187.0,2183164.0,1436161.0,1812608.0,1739397.0,1650411.0,1880262.2727272727
4.625,2021307.0,1913025.0,1973758.0,1962795.0,2054469.0,1951591.0,2182128.0,1435966.0,1813433.0,1739056.0,1641770.0,1880845.2727272727
4.640625,2022777.0,1917030.0,1979237.0,1965860.0,2054896.0,1952110.0,2181767.0,1435691.0,1814205.0,1739931.0,1640468.0,1882179.2727272727
4.65625,2024429.0,1920125.0,1983412.0,1968504.0,2055207.0,1952146.0,2180864.0,1434717.0,1815347.0,1741072.0,1638452.0,1883115.9090909092
4.671875,2025772.0,1921383.0,1986953.0,1971630.0,2056918.0,1952549.0,2180230.0,1432964.0,1816240.0,1742549.0,1645707.0,1884808.6363636365
4.6875,2027538.0,1918976.0,1988604.0,1974439.0,2054478.0,1952629.0,2179790.0,1431300.0,1816018.0,1744622.0,1638469.0,1884260.2727272727
4.703125,2029296.0,1915824.0,1988879.0,1976679.0,2058854.0,1952803.0,2179152.0,1429790.0,1813923.0,1746418.0,1636876.0,1884408.5454545454
4.71875,2030980.0,1909765.0,1988306.0,1978363.0,2060853.0,1953162.0,2177406.0,1428699.0,1811901.0,1748210.0,1642307.0,1884541.0909090908
4.734375,2032667.0,1900370.0,1987168.0,1980102.0,2062603.0,1953401.0,2175622.0,1427841.0,1810627.0,1750414.0,1646761.0,1884325.0909090908
4.75,2034608.0,1891032.0,1985935.0,1982372.0,2060626.0,1953505.0,2173846.0,1427240.0,1809965.0,1752470.0,1646399.0,1883454.3636363635
4.765625,2036678.0,1880867.0,1984360.0,1984329.0,2055803.0,1954059.0,2172004.0,1426535.0,1808783.0,1754655.0,1648561.0,1882421.2727272727
4.78125,2038329.0,1869439.0,1985474.0,1986411.0,2050549.0,1954239.0,2170166.0,1425996.0,1808753.0,1754683.0,1655399.0,1881767.0909090908
4.796875,2038798.0,1864541.0,1985852.0,1988527.0,2047103.0,1954383.0,2168501.0,1425548.0,1808148.0,1750345.0,1661141.0,1881171.5454545454
4.8125,2036275.0,1863266.0,1988488.0,1990637.0,2044343.0,1954867.0,2167124.0,1425168.0,1807742.0,1746919.0,1662760.0,1880689.9090909092
4.828125,2033542.0,1862923.0,1992051.0,1992842.0,2041952.0,1955178.0,2165872.0,1424689.0,1807426.0,1744763.0,1664197.0,1880494.0909090908
4.84375,2031529.0,1866390.0,1995571.0,1995138.0,2040825.0,1955565.0,2164453.0,1424488.0,1807416.0,1743627.0,1664818.0,1880892.7272727273
4.859375,2030847.0,1874923.0,1999220.0,1997392.0,2039909.0,1955403.0,2163324.0,1424266.0,1808000.0,1743272.0,1663412.0,1881815.2727272727
4.875,2030658.0,1885521.0,2003777.0,2000009.0,2038854.0,1955726.0,2161999.0,1423788.0,1808557.0,1743464.0,1665442.0,1883435.9090909092
4.890625,2030794.0,1902262.0,2007488.0,2001809.0,2037698.0,1955716.0,2161138.0,1423650.0,1809390.0,1743266.0,1668984.0,1885654.0909090908
4.90625,2031296.0,1916769.0,2013681.0,2002400.0,2036846.0,1955319.0,2160097.0,1423823.0,1810155.0,1742937.0,1672548.0,1887806.4545454546
4.921875,2031525.0,1925107.0,2017636.0,2002227.0,2036466.0,1955409.0,2159320.0,1421112.0,1810993.0,1742873.0,1675298.0,1888906.0
4.9375,2031705.0,1931007.0,2022590.0,2002461.0,2037008.0,1956312.0,2158419.0,1422606.0,1812087.0,1743307.0,1675505.0,1890273.3636363635
4.953125,2031575.0,1938014.0,2026720.0,2003537.0,2037564.0,1956752.0,2157463.0,1419676.0,1812778.0,1744894.0,1675725.0,1891336.1818181819
4.96875,2031533.0,1943576.0,2032298.0,2004790.0,2039274.0,1955821.0,2156987.0,1418620.0,1813787.0,1745945.0,1678127.0,1892796.1818181819
4.984375,2032158.0,1946447.0,2037876.0,2006008.0,2040161.0,1957324.0,2156463.0,1417995.0,1815164.0,1747797.0,1681012.0,1894400.4545454546
5.0,2033087.0,1947843.0,2043470.0,2007553.0,2038341.0,1957501.0,2155652.0,1417552.0,1816303.0,1749503.0,1682498.0,1895391.1818181819
5.015625,2034356.0,1947364.0,2048698.0,2008839.0,2041167.0,1957809.0,2154961.0,1417249.0,1817391.0,1751103.0,1684728.0,1896696.8181818181
5.03125,2035554.0,1944099.0,2053587.0,2009637.0,2042323.0,1957996.0,2154072.0,1416774.0,1817021.0,1751575.0,1687506.0,1897285.8181818181
5.046875,2036538.0,1938633.0,2054742.0,2010521.0,2045337.0,1958374.0,2153663.0,1416363.0,1814464.0,1747631.0,1689594.0,1896896.3636363635
5.0625,2037816.0,1933233.0,2054441.0,2011429.0,2047054.0,1958661.0,2152597.0,1416158.0,1811646.0,1745181.0,1691561.0,1896343.3636363635
5.078125,2038785.0,1927646.0,2053978.0,2012459.0,2043514.0,1958855.0,2150629.0,1415841.0,1809514.0,1752820.0,1693188.0,1896111.7272727273
5.09375,2039956.0,1921985.0,2053373.0,2013958.0,2048525.0,1956981.0,2148775.0,1415772.0,1807633.0,1755331.0,1695001.0,1896117.2727272727
5.109375,2041097.0,1917277.0,2052984.0,2015248.0,2051019.0,1959642.0,2147081.0,1415755.0,1805890.0,1743907.0,1696097.0,1895090.6363636365
5.125,2042572.0,1914010.0,2054199.0,2016651.0,2052744.0,1959306.0,2145148.0,1415701.0,1805737.0,1743270.0,1697393.0,1895157.3636363635
5.140625,2044099.0,1911195.0,2056050.0,2018210.0,2052634.0,1959936.0,2143741.0,1415678.0,1806475.0,1755370.0,1698644.0,1896548.3636363635
5.15625,2045648.0,1909365.0,2056856.0,2019664.0,2048019.0,1959986.0,2142406.0,1415700.0,1807249.0,1743645.0,1699985.0,1895320.2727272727
5.171875,2047226.0,1907379.0,2057568.0,2022548.0,2042383.0,1960748.0,2141123.0,1415758.0,1808554.0,1743412.0,1701519.0,1895292.5454545454
5.1875,2048646.0,1904998.0,2058292.0,2020998.0,2038219.0,1960601.0,2140215.0,1415358.0,1810281.0,1742989.0,1702786.0,1894853.0
5.203125,2050366.0,1901930.0,2059146.0,2023747.0,2035474.0,1961017.0,2138923.0,1414379.0,1812058.0,1742720.0,1702184.0,1894722.1818181819
5.21875,2052090.0,1900110.0,2060221.0,2025345.0,2032866.0,1961433.0,2137991.0,1413276.0,1813939.0,1743663.0,1700747.0,1894698.2727272727
5.234375,2053558.0,1898989.0,2061280.0,2025293.0,2031739.0,1961363.0,2137250.0,1412650.0,1815827.0,1744999.0,1698611.0,1894687.1818181819
5.25,2052608.0,1898644.0,2063142.0,2023755.0,2030524.0,1961155.0,2136241.0,1411972.0,1819253.0,1746509.0,1697051.0,1894623.0909090908
5.265625,2049838.0,1897799.0,2064290.0,2022713.0,2029681.0,1960967.0,2135200.0,1411876.0,1822630.0,1748736.0,1696082.0,1894528.3636363635
5.28125,2046568.0,1897353.0,2065120.0,2022787.0,2027978.0,1960793.0,2134701.0,1411800.0,1825592.0,1750908.0,1695924.0,1894502.1818181819
5.296875,2045194.0,1899273.0,2064964.0,2023062.0,2027182.0,1961082.0,2133957.0,1411772.0,1827912.0,1753058.0,1695977.0,1894857.5454545454
5.3125,2044636.0,1900143.0,2063823.0,2023782.0,2026783.0,1961347.0,2133361.0,1411425.0,1829905.0,1755445.0,1695608.0,1895114.3636363635
5.328125,2044046.0,1900256.0,2063457.0,2024907.0,2026986.0,1961612.0,2132764.0,1411260.0,1831302.0,1758093.0,1694904.0,1895417.0
5.34375,2044308.0,1902765.0,2062930.0,2025444.0,2027454.0,1961783.0,2132368.0,1411474.0,1832940.0,1759311.0,1694730.0,1895955.1818181819
5.359375,2044773.0,1902001.0,2061279.0,2025653.0,2028253.0,1962037.0,2131770.0,1411692.0,1834892.0,1756020.0,1694531.0,1895718.2727272727
5.375,2044585.0,1898922.0,2059563.0,2025843.0,2029527.0,1961938.0,2131556.0,1411519.0,1837226.0,1749176.0,1694897.0,1894977.4545454546
5.390625,2044306.0,1893107.0,2058296.0,2026193.0,2030218.0,1962311.0,2131262.0,1411654.0,1837860.0,1747689.0,1695650.0,1894413.2727272727
5.40625,2043987.0,1888176.0,2056629.0,2026933.0,2031636.0,1962462.0,2130913.0,1411886.0,1836515.0,1746560.0,1696631.0,1893848.0
5.421875,2044053.0,1883877.0,2055402.0,2027454.0,2032886.0,1962664.0,2129923.0,1412270.0,1834137.0,1746499.0,1697634.0,1893345.3636363635
5.4375,2044306.0,1881455.0,2054335.0,2028501.0,2034419.0,1963255.0,2128496.0,1412520.0,1831447.0,1751933.0,1698310.0,1893543.3636363635
5.453125,2045026.0,1879898.0,2053271.0,2029474.0,2035511.0,1963459.0,2127275.0,1412249.0,1828608.0,1746399.0,1696784.0,1892541.2727272727
5.46875,2045884.0,1878880.0,2052473.0,2030481.0,2037251.0,1963999.0,2125905.0,1411628.0,1825847.0,1746625.0,1695527.0,1892227.2727272727
5.484375,2046403.0,1879673.0,2051822.0,2031675.0,2038881.0,1964256.0,2124709.0,1410945.0,1823415.0,1746041.0,1693743.0,1891960.2727272727
5.5,2047350.0,1879624.0,2051536.0,2032479.0,2042870.0,1964718.0,2123607.0,1410610.0,1821739.0,1746553.0,1693285.0,1892215.5454545454
5.515625,2048049.0,1876753.0,2051211.0,2033528.0,2043093.0,1965012.0,2122951.0,1410527.0,1819811.0,1747806.0,1693342.0,1892007.5454545454
5.53125,2048912.0,1872743.0,2051233.0,2034559.0,2041147.0,1965339.0,2122287.0,1410370.0,1818242.0,1750049.0,1693630.0,1891682.8181818181
5.546875,2049744.0,1868852.0,2051168.0,2035476.0,2038795.0,1965712.0,2121485.0,1410672.0,1817421.0,1751798.0,1694139.0,1891387.4545454546
5.5625,2050384.0,1866209.0,2051691.0,2036585.0,2033920.0,1966093.0,2120854.0,1410675.0,1816597.0,1753934.0,1694291.0,1891021.1818181819
5.578125,2051588.0,1863216.0,2052372.0,2037463.0,2030108.0,1966322.0,2120184.0,1410345.0,1815984.0,1755994.0,1694496.0,1890733.8181818181
5.59375,2052822.0,1861026.0,2052387.0,2035867.0,2027828.0,1966380.0,2119684.0,1410862.0,1815868.0,1758330.0,1695142.0,1890563.2727272727
5.609375,2053870.0,1858769.0,2051377.0,2032584.0,2026231.0,1966496.0,2119377.0,1411089.0,1815647.0,1762750.0,1695929.0,1890374.4545454546
5.625,2054681.0,1856955.0,2050354.0,2029861.0,2025416.0,1966246.0,2119247.0,1411434.0,1815745.0,1761254.0,1696451.0,1889785.8181818181
5.640625,2055963.0,1855917.0,2049832.0,2028067.0,2024841.0,1966255.0,2118835.0,1411440.0,1815783.0,1755845.0,1697710.0,1889135.2727272727
5.65625,2057289.0,1857110.0,2049026.0,2026630.0,2023869.0,1966813.0,2118401.0,1411657.0,1816142.0,1751731.0,1699059.0,1888884.2727272727
5.671875,2058582.0,1857313.0,2049045.0,2025674.0,2022744.0,1967213.0,2118278.0,1412040.0,1816534.0,1749060.0,1700292.0,1888797.7272727273
5.6875,2056918.0,1858634.0,2049264.0,2025581.0,2021868.0,1967738.0,2118195.0,1412292.0,1817094.0,1747367.0,1700838.0,1888708.0909090908
5.703125,2053179.0,1861536.0,2049467.0,2025005.0,2022102.0,1967985.0,2117509.0,1412390.0,1817848.0,1760709.0,1699542.0,1889752.0
5.71875,2049887.0,1867115.0,2049299.0,2023634.0,2022573.0,1968459.0,2117784.0,1411670.0,1818195.0,1745041.0,1698204.0,1888351.0
5.734375,2047949.0,1873276.0,2049716.0,2022512.0,2023146.0,1968458.0,2117803.0,1410785.0,1816751.0,1744602.0,1697015.0,1888364.8181818181
5.75,2046849.0,1877228.0,2050060.0,2021699.0,2024380.0,1968959.0,2116088.0,1410156.0,1814409.0,1744508.0,1696656.0,1888272.0
5.765625,2046419.0,1879305.0,2050508.0,2021079.0,2025571.0,1969241.0,2117154.0,1412367.0,1812464.0,1745632.0,1697969.0,1888882.6363636365
5.78125,2046580.0,1881289.0,2050873.0,2020571.0,2026844.0,1969656.0,2114037.0,1409758.0,1811242.0,1745854.0,1699814.0,1888774.3636363635
5.796875,2046248.0,1883637.0,2051311.0,2020435.0,2028245.0,1969950.0,2114808.0,1409735.0,1810025.0,1746505.0,1701256.0,1889286.8181818181
5.8125,2045384.0,1887095.0,2052305.0,2020544.0,2029901.0,1970268.0,2117818.0,1409796.0,1809041.0,1749897.0,1702087.0,1890376.0
5.828125,2044549.0,1891299.0,2053203.0,2020969.0,2031227.0,1970685.0,2112903.0,1410043.0,1808410.0,1751975.0,1703324.0,1890780.6363636365
5.84375,2043904.0,1894534.0,2054074.0,2021416.0,2033239.0,1970944.0,2112258.0,1409787.0,1807945.0,1753847.0,1704189.0,1891467.0
5.859375,2043670.0,1897471.0,2055164.0,2022012.0,2035075.0,1971288.0,2111745.0,1409957.0,1809046.0,1745143.0,1705144.0,1891428.6363636365
5.875,2043395.0,1900207.0,2055582.0,2022234.0,2037122.0,1971692.0,2111374.0,1410319.0,1810600.0,1748382.0,1706719.0,1892511.4545454546
5.890625,2043623.0,1903436.0,2054424.0,2022697.0,2039177.0,1971999.0,2110805.0,1410576.0,1812507.0,1756012.0,1708910.0,1894015.0909090908
5.90625,2043944.0,1906182.0,2053007.0,2022783.0,2039798.0,1972537.0,2110474.0,1410486.0,1814417.0,1758098.0,1713560.0,1895026.0
5.921875,2044792.0,1909162.0,2052054.0,2023240.0,2035961.0,1972804.0,2109938.0,1410853.0,1816598.0,1760559.0,1721468.0,1896129.9090909092
5.9375,2045126.0,1912280.0,2050945.0,2023830.0,2027705.0,1972979.0,2109688.0,1411023.0,1819413.0,1760775.0,1730731.0,1896772.2727272727
5.953125,2045918.0,1914831.0,2049924.0,2024650.0,2031264.0,1973105.0,2109256.0,1411540.0,1823192.0,1756320.0,1741903.0,1898354.8181818181
5.96875,2046625.0,1914149.0,2049412.0,2025054.0,2025311.0,1973067.0,2109016.0,1411860.0,1827770.0,1751405.0,1757139.0,1899164.3636363635
5.984375,2047158.0,1911143.0,2049055.0,2026103.0,2023509.0,1972785.0,2109494.0,1411756.0,1832098.0,1748082.0,1751304.0,1898407.9090909092
6.0,2047373.0,1906989.0,2048627.0,2026925.0,2022952.0,1972513.0,2108752.0,1410516.0,1835939.0,1745737.0,1767226.0,1899413.5454545454
6.015625,2048401.0,1903946.0,2048247.0,2027611.0,2022762.0,1972530.0,2108694.0,1411378.0,1839628.0,1744274.0,1761982.0,1899041.1818181819
6.03125,2049222.0,1902204.0,2047899.0,2028773.0,2020881.0,1972819.0,2108370.0,1409795.0,1842821.0,1743601.0,1771759.0,1899831.2727272727
6.046875,2050053.0,1900875.0,2047799.0,2028925.0,2022101.0,1973090.0,2108592.0,1409393.0,1845630.0,1743078.0,1773646.0,1900289.2727272727
6.0625,2051408.0,1899850.0,2047923.0,2025333.0,2021435.0,1973603.0,2108415.0,1409075.0,1847240.0,1742600.0,1774854.0,1900157.8181818181
6.078125,2052319.0,1899208.0,2048429.0,2020649.0,2021057.0,1973926.0,2108706.0,1409097.0,1847072.0,1741784.0,1773545.0,1899617.4545454546
6.09375,2053217.0,1898499.0,2048780.0,2016260.0,2021447.0,1974029.0,2108538.0,1409100.0,1846661.0,1742198.0,1772990.0,1899247.1818181819
6.109375,2053961.0,1899456.0,2049200.0,2013468.0,2023018.0,1974314.0,2107532.0,1409079.0,1847166.0,1743007.0,1771463.0,1899242.1818181819
6.125,2051606.0,1901156.0,2049669.0,2011223.0,2024283.0,1974542.0,2106764.0,1409197.0,1847563.0,1744326.0,1767216.0,1898867.7272727273
6.140625,2046920.0,1906240.0,2050419.0,2009866.0,2025504.0,1974891.0,2105487.0,1409143.0,1848369.0,1745778.0,1764063.0,1898789.0909090908
6.15625,2042379.0,1912612.0,2051026.0,2008761.0,2026448.0,1975296.0,2103963.0,1409538.0,1849291.0,1747689.0,1760593.0,1898872.3636363635
6.171875,2039218.0,1917700.0,2051681.0,2008068.0,2027782.0,1975665.0,2104706.0,1409515.0,1850880.0,1749196.0,1758052.0,1899314.8181818181
6.1875,2037244.0,1919908.0,2052059.0,2006224.0,2029327.0,1975815.0,2102991.0,1409743.0,1852569.0,1751369.0,1758554.0,1899618.4545454546
6.203125,2036072.0,1918144.0,2049511.0,2004429.0,2031270.0,1976175.0,2102389.0,1410087.0,1853017.0,1753210.0,1757501.0,1899255.0
6.21875,2034489.0,1914935.0,2050935.0,2002795.0,2032919.0,1976472.0,2103275.0,1410461.0,1853399.0,1755451.0,1758902.0,1899457.5454545454
6.234375,2033808.0,1912175.0,2048062.0,2001466.0,2034989.0,1976954.0,2101893.0,1410682.0,1853538.0,1757830.0,1758504.0,1899081.9090909092
6.25,2032115.0,1910043.0,2047105.0,2000787.0,2037131.0,1977132.0,2101535.0,1411122.0,1854103.0,1758327.0,1757540.0,1898812.7272727273
6.265625,2030663.0,1908180.0,2045909.0,2000254.0,2039354.0,1977396.0,2100958.0,1410702.0,1854697.0,1754146.0,1756748.0,1898091.5454545454
6.28125,2029191.0,1907049.0,2045428.0,1999884.0,2041386.0,1977553.0,2100916.0,1410184.0,1855795.0,1749214.0,1756768.0,1897578.9090909092
6.296875,2028019.0,1906548.0,2045413.0,2000018.0,2040864.0,1977850.0,2100600.0,1409483.0,1856693.0,1746005.0,1756915.0,1897128.0
6.3125,2027544.0,1906359.0,2045346.0,1999821.0,2036857.0,1978170.0,2100258.0,1408614.0,1857582.0,1744139.0,1755628.0,1896392.5454545454
6.328125,2027183.0,1906169.0,2045578.0,1999963.0,2032783.0,1978492.0,2100235.0,1408102.0,1858510.0,1742187.0,1749159.0,1895305.5454545454
6.34375,2027204.0,1905817.0,2045600.0,2000191.0,2029490.0,1978710.0,2100224.0,1407852.0,1859202.0,1741749.0,1742989.0,1894457.0909090908
6.359375,2027527.0,1905310.0,2045867.0,2000664.0,2027530.0,1978235.0,2099815.0,1407641.0,1860073.0,1741347.0,1738374.0,1893853.0
6.375,2027507.0,1905468.0,2046465.0,2000784.0,2025595.0,1977768.0,2099930.0,1407751.0,1860797.0,1739219.0,1735146.0,1893311.8181818181
6.390625,2027367.0,1905811.0,2047045.0,2001327.0,2024761.0,1977380.0,2099934.0,1407926.0,1861451.0,1740113.0,1733557.0,1893333.8181818181
6.40625,2027731.0,1905753.0,2047870.0,2002033.0,2024712.0,1977718.0,2099741.0,1407829.0,1861813.0,1739814.0,1732763.0,1893434.2727272727
6.421875,2027950.0,1906055.0,2048668.0,2002734.0,2024319.0,1977629.0,2099046.0,1407938.0,1860823.0,1740051.0,1733213.0,1893493.2727272727
6.4375,2028254.0,1906328.0,2049518.0,2003627.0,2023718.0,1978050.0,2097024.0,1408269.0,1857438.0,1740963.0,1733952.0,1893376.4545454546
6.453125,2028728.0,1905079.0,2050051.0,2004300.0,2023787.0,1978234.0,2099626.0,1408442.0,1854184.0,1742637.0,1734623.0,1893608.2727272727
6.46875,2029469.0,1901941.0,2051040.0,2005470.0,2024129.0,1978531.0,2098158.0,1408754.0,1849519.0,1743942.0,1734174.0,1893193.3636363635
6.484375,2030566.0,1898447.0,2051913.0,2006268.0,2024987.0,1978496.0,2095957.0,1409060.0,1851808.0,1745458.0,1731615.0,1893143.1818181819
6.5,2031958.0,1895647.0,2052628.0,2007468.0,2026367.0,1978629.0,2096415.0,1409300.0,1847357.0,1747002.0,1728879.0,1892877.2727272727
6.515625,2032740.0,1893330.0,2053770.0,2008422.0,2027302.0,1978832.0,2095531.0,1410047.0,1843514.0,1749160.0,1726241.0,1892626.2727272727
6.53125,2033877.0,1891546.0,2054544.0,2007441.0,2029062.0,1979286.0,2094922.0,1409538.0,1841433.0,1751189.0,1723773.0,1892419.1818181819
6.546875,2031205.0,1890735.0,2054205.0,2003487.0,2030505.0,1979477.0,2094512.0,1409750.0,1845166.0,1753293.0,1722045.0,1892216.3636363635
6.5625,2032728.0,1890019.0,2052107.0,1999469.0,2032204.0,1979455.0,2094272.0,1409017.0,1839321.0,1754590.0,1720483.0,1891242.2727272727
6.578125,2028297.0,1889467.0,2053248.0,1996620.0,2033555.0,1979983.0,2093574.0,1408151.0,1837933.0,1750776.0,1718993.0,1890054.2727272727
6.59375,2023092.0,1889004.0,2049956.0,1995135.0,2035625.0,1980243.0,2093318.0,1407885.0,1837096.0,1746696.0,1717275.0,1888665.9090909092
6.609375,2019200.0,1888311.0,2051297.0,1993815.0,2037366.0,1980228.0,2093311.0,1407653.0,1836075.0,1744338.0,1715972.0,1887960.5454545454
6.625,2017122.0,1888164.0,2050304.0,1993148.0,2039286.0,1980760.0,2093080.0,1407405.0,1835593.0,1743345.0,1714620.0,1887529.7272727273
6.640625,2015325.0,1888231.0,2050622.0,1993018.0,2041195.0,1981057.0,2093179.0,1407562.0,1835106.0,1742660.0,1713277.0,1887384.7272727273
6.65625,2014090.0,1888423.0,2050451.0,1992615.0,2043797.0,1981202.0,2093869.0,1407855.0,1834815.0,1743082.0,1711827.0,1887456.9090909092
6.671875,2013614.0,1888759.0,2050795.0,1991355.0,2044672.0,1981448.0,2093171.0,1407975.0,1834638.0,1743340.0,1710698.0,1887315.0
6.6875,2012175.0,1889775.0,2051007.0,1990372.0,2041974.0,1981655.0,2093406.0,1408180.0,1834527.0,1742912.0,1709684.0,1886878.8181818181
6.703125,2010562.0,1891327.0,2051490.0,1989547.0,2037512.0,1981969.0,2093395.0,1408705.0,1834572.0,1742929.0,1708687.0,1886426.8181818181
6.71875,2009461.0,1892807.0,2052021.0,1989318.0,2034565.0,1982424.0,2093098.0,1408843.0,1834872.0,1743845.0,1706890.0,1886194.9090909092
6.734375,2008585.0,1893803.0,2052397.0,1989389.0,2032523.0,1982677.0,2092732.0,1409092.0,1834853.0,1745743.0,1703496.0,1885935.4545454546
6.75,2008416.0,1893922.0,2053031.0,1990072.0,2031202.0,1982341.0,2091716.0,1409395.0,1833500.0,1747311.0,1699706.0,1885510.1818181819
6.765625,2008349.0,1892795.0,2053674.0,1991154.0,2030964.0,1981984.0,2089841.0,1409592.0,1830444.0,1749396.0,1696358.0,1884959.1818181819
6.78125,2008519.0,1892424.0,2051018.0,1993338.0,2030802.0,1981400.0,2090800.0,1410231.0,1827443.0,1752082.0,1693419.0,1884679.6363636365
6.796875,2008701.0,1892734.0,2055089.0,1995532.0,2030613.0,1981557.0,2088448.0,1410581.0,1825361.0,1754148.0,1691326.0,1884917.2727272727
6.8125,2008790.0,1893597.0,2054416.0,1998161.0,2029663.0,1981418.0,2089188.0,1410322.0,1823052.0,1756310.0,1689577.0,1884954.0
6.828125,2009338.0,1894598.0,2055928.0,2000537.0,2029649.0,1981865.0,2087931.0,1409691.0,1821249.0,1759314.0,1687488.0,1885235.2727272727
6.84375,2009658.0,1897127.0,2056773.0,2003358.0,2029962.0,1982426.0,2087265.0,1409211.0,1819843.0,1761942.0,1685240.0,1885709.5454545454
6.859375,2010117.0,1899771.0,2057593.0,2005863.0,2030805.0,1982713.0,2086428.0,1408744.0,1818893.0,1764374.0,1683179.0,1886225.4545454546
6.875,2010520.0,1902346.0,2057321.0,2008924.0,2031924.0,1982713.0,2086924.0,1408579.0,1817608.0,1762612.0,1681037.0,1886409.8181818181
6.890625,2011003.0,1904366.0,2056634.0,2012084.0,2033134.0,1983303.0,2085911.0,1408777.0,1816707.0,1758279.0,1679267.0,1886315.0
6.90625,2012860.0,1905614.0,2055735.0,2014908.0,2034818.0,1983361.0,2085671.0,1409216.0,1816178.0,1755332.0,1677565.0,1886478.0
6.921875,2013919.0,1906800.0,2054934.0,2018365.0,2036264.0,1983532.0,2085415.0,1409467.0,1816065.0,1754156.0,1675664.0,1886780.0909090908
6.9375,2011941.0,1908402.0,2055231.0,2021834.0,2037957.0,1983873.0,2085397.0,1409657.0,1816009.0,1752881.0,1674285.0,1887042.4545454546
6.953125,2014692.0,1911237.0,2054994.0,2025419.0,2039362.0,1984220.0,2085084.0,1409862.0,1816234.0,1752824.0,1672745.0,1887879.3636363635
6.96875,2015960.0,1914020.0,2054673.0,2028227.0,2041274.0,1984494.0,2084904.0,1410146.0,1816541.0,1753135.0,1670138.0,1888501.0909090908
6.984375,2016929.0,1916911.0,2055412.0,2028802.0,2042770.0,1984781.0,2084772.0,1410486.0,1816960.0,1753147.0,1666359.0,1888848.0909090908
7.0,2016307.0,1920558.0,2056020.0,2028186.0,2044816.0,1984843.0,2085033.0,1410844.0,1817593.0,1753095.0,1663255.0,1889140.9090909092
7.015625,2012198.0,1922895.0,2056048.0,2028226.0,2047099.0,1985126.0,2084905.0,1411436.0,1818039.0,1753554.0,1662081.0,1889237.0
7.03125,2007857.0,1927652.0,2056372.0,2028861.0,2048596.0,1985508.0,2084391.0,1411445.0,1818761.0,1754521.0,1662472.0,1889676.0
7.046875,2004724.0,1932528.0,2057617.0,2030813.0,2045555.0,1985689.0,2083496.0,1411893.0,1819716.0,1756608.0,1660603.0,1889931.0909090908
7.0625,2002934.0,1933268.0,2057146.0,2033278.0,2040909.0,1985700.0,2082498.0,1412286.0,1820460.0,1758366.0,1660407.0,1889750.1818181819
7.078125,2002162.0,1933569.0,2058166.0,2035795.0,2037439.0,1986123.0,2081163.0,1411654.0,1821695.0,1760424.0,1661338.0,1889957.0909090908
7.09375,2002019.0,1938376.0,2059092.0,2038411.0,2035005.0,1986195.0,2080160.0,1410956.0,1820800.0,1763109.0,1661988.0,1890555.5454545454
7.109375,2001694.0,1952281.0,2059861.0,2039916.0,2033285.0,1986286.0,2079129.0,1410082.0,1818413.0,1764913.0,1662725.0,1891689.5454545454
7.125,2000134.0,1968564.0,2060720.0,2041966.0,2031767.0,1986361.0,2078299.0,1409570.0,1816025.0,1767354.0,1662180.0,1892994.5454545454
7.140625,1999313.0,1976898.0,2061289.0,2043302.0,2031514.0,1986126.0,2077758.0,1409257.0,1814306.0,1770222.0,1662094.0,1893825.3636363635
7.15625,1999379.0,1978559.0,2062527.0,2045504.0,2031155.0,1985411.0,2076497.0,1409107.0,1812681.0,1772454.0,1663643.0,1894265.1818181819
7.171875,1999787.0,1979575.0,2062245.0,2048040.0,2030744.0,1984743.0,2077135.0,1409283.0,1811105.0,1771821.0,1663918.0,1894399.6363636365
7.1875,2012153.0,1978227.0,2061630.0,2050261.0,2030360.0,1984847.0,2076066.0,1409243.0,1809971.0,1767794.0,1663322.0,1894897.6363636365
7.203125,2001032.0,1977170.0,2060753.0,2052624.0,2030665.0,1984877.0,2075132.0,1409311.0,1809288.0,1763346.0,1661705.0,1893263.9090909092
7.21875,2000272.0,1976038.0,2060059.0,2055347.0,2031077.0,1984758.0,2074661.0,1409713.0,1808286.0,1761523.0,1658918.0,1892786.5454545454
7.234375,2001653.0,1973008.0,2059907.0,2057603.0,2031799.0,1984855.0,2074890.0,1409561.0,1807700.0,1759826.0,1654540.0,1892303.8181818181
7.25,2002647.0,1971216.0,2059619.0,2059912.0,2033487.0,1985153.0,2075827.0,1409889.0,1807152.0,1759278.0,1649540.0,1892156.3636363635
7.265625,2003780.0,1970639.0,2059655.0,2062110.0,2034867.0,1985308.0,2074387.0,1410199.0,1807168.0,1759063.0,1644693.0,1891988.0909090908
7.28125,2004815.0,1970686.0,2059973.0,2064281.0,2035973.0,1985479.0,2074185.0,1410588.0,1807230.0,1758936.0,1641070.0,1892110.5454545454
7.296875,2005637.0,1972252.0,2060010.0,2066838.0,2037833.0,1985779.0,2074241.0,1410876.0,1807764.0,1758614.0,1637869.0,1892519.3636363635
7.3125,2006505.0,1972946.0,2060206.0,2069094.0,2039451.0,1986061.0,2074079.0,1411253.0,1807767.0,1758511.0,1635486.0,1892850.8181818181
7.328125,2008177.0,1972404.0,2060355.0,2071119.0,2040905.0,1986474.0,2074125.0,1411122.0,1808223.0,1759144.0,1632986.0,1893184.9090909092
7.34375,2013682.0,1970773.0,2060801.0,2073558.0,2042807.0,1986887.0,2074190.0,1411338.0,1808764.0,1760435.0,1630248.0,1893953.0
7.359375,2015205.0,1966655.0,2061145.0,2075721.0,2044993.0,1987277.0,2073999.0,1410528.0,1809508.0,1761946.0,1627735.0,1894064.7272727273
7.375,2009468.0,1961389.0,2061630.0,2077970.0,2046846.0,1987729.0,2073218.0,1409358.0,1810097.0,1764229.0,1622990.0,1893174.9090909092
7.390625,2010637.0,1956472.0,2062275.0,2080282.0,2049304.0,1988085.0,2072184.0,1408471.0,1810819.0,1765884.0,1625396.0,1893619.0
7.40625,2017044.0,1952499.0,2062851.0,2081604.0,2050571.0,1988550.0,2071165.0,1407950.0,1811689.0,1768335.0,1620506.0,1893887.6363636365
7.421875,2000895.0,1949728.0,2063239.0,2080668.0,2047675.0,1988852.0,2069883.0,1407862.0,1812695.0,1770365.0,1618332.0,1891835.8181818181
7.4375,2016946.0,1947776.0,2063946.0,2079606.0,2042920.0,1988984.0,2068578.0,1407762.0,1813321.0,1772392.0,1616172.0,1892582.0909090908
7.453125,2008507.0,1945930.0,2063734.0,2078951.0,2039069.0,1989470.0,2067928.0,1407746.0,1811803.0,1774929.0,1614356.0,1891129.3636363635
7.46875,2005797.0,1944975.0,2063002.0,2079584.0,2034867.0,1989796.0,2067092.0,1407767.0,1809832.0,1775392.0,1611742.0,1889986.0
7.484375,2012635.0,1943457.0,2062299.0,2081241.0,2032113.0,1990437.0,2066533.0,1408244.0,1808205.0,1771451.0,1607952.0,1889506.0909090908
7.5,2004359.0,1940975.0,2061461.0,2082945.0,2028910.0,1990676.0,2065779.0,1408235.0,1807426.0,1766810.0,1603115.0,1887335.5454545454
7.515625,2003200.0,1939119.0,2061006.0,2084661.0,2027297.0,1990789.0,2065221.0,1408545.0,1806739.0,1764834.0,1598725.0,1886376.0
7.53125,2002917.0,1937410.0,2060578.0,2086526.0,2025648.0,1990523.0,2064874.0,1408712.0,1805937.0,1762719.0,1595223.0,1885551.5454545454
7.546875,2002427.0,1936317.0,2060950.0,2087560.0,2024215.0,1989878.0,2064350.0,1409160.0,1805848.0,1761477.0,1592003.0,1884925.9090909092
7.5625,2002073.0,1935513.0,2061074.0,2088459.0,2022938.0,1989666.0,2064054.0,1409631.0,1806158.0,1761727.0,1589586.0,1884625.3636363635
7.578125,2002870.0,1934853.0,2061551.0,2089271.0,2022697.0,1990274.0,2063544.0,1409932.0,1806478.0,1761227.0,1587245.0,1884540.1818181819
7.59375,2001564.0,1934054.0,2061754.0,2090293.0,2022939.0,1990179.0,2063400.0,1410267.0,1807546.0,1760383.0,1584500.0,1884261.7272727273
7.609375,2001116.0,1933782.0,2062264.0,2091783.0,2024155.0,1990286.0,2062957.0,1410698.0,1809728.0,1760323.0,1581712.0,1884436.7272727273
7.625,2001446.0,1933834.0,2062799.0,2093463.0,2024987.0,1990360.0,2062983.0,1409739.0,1812973.0,1760351.0,1579341.0,1884752.3636363635
7.640625,2002414.0,1934572.0,2063450.0,2095228.0,2025980.0,1990195.0,2062930.0,1408755.0,1816301.0,1761284.0,1576962.0,1885279.1818181819
7.65625,2004284.0,1934658.0,2063813.0,2096828.0,2027076.0,1990158.0,2062972.0,1407733.0,1819930.0,1762876.0,1574824.0,1885922.9090909092
7.671875,2003294.0,1933875.0,2064797.0,2098662.0,2028121.0,1990728.0,2062722.0,1407484.0,1823382.0,1763944.0,1572506.0,1886319.5454545454
7.6875,2005077.0,1934002.0,2065383.0,2101652.0,2028706.0,1991134.0,2062823.0,1407151.0,1826147.0,1766045.0,1571073.0,1887199.3636363635
7.703125,2006265.0,1934476.0,2066090.0,2104783.0,2030250.0,1991508.0,2063112.0,1406938.0,1829257.0,1767410.0,1569280.0,1888124.4545454546
7.71875,2007286.0,1934719.0,2066761.0,2107283.0,2031107.0,1991760.0,2063016.0,1407054.0,1832533.0,1769505.0,1567162.0,1888926.0
7.734375,2008624.0,1934979.0,2067376.0,2110766.0,2032850.0,1992275.0,2062539.0,1407248.0,1835297.0,1771247.0,1563663.0,1889714.9090909092
7.75,2009685.0,1935139.0,2066634.0,2113860.0,2034699.0,1992417.0,2061608.0,1407461.0,1838281.0,1773284.0,1559419.0,1890226.0909090908
7.765625,2010915.0,1935821.0,2065795.0,2115419.0,2036547.0,1992809.0,2060585.0,1407522.0,1841761.0,1775280.0,1555485.0,1890721.7272727273
7.78125,2012897.0,1936932.0,2065019.0,2114574.0,2038575.0,1993095.0,2059565.0,1407809.0,1845271.0,1773766.0,1551890.0,1890853.9090909092
7.796875,2014143.0,1937840.0,2064523.0,2112793.0,2038993.0,1993515.0,2058507.0,1408219.0,1847578.0,1769026.0,1548630.0,1890342.4545454546
7.8125,2015868.0,1939810.0,2064334.0,2110070.0,2035237.0,1993806.0,2057910.0,1408342.0,1847514.0,1765127.0,1546363.0,1889489.1818181819
7.828125,2017663.0,1942893.0,2064150.0,2108431.0,2030225.0,1994107.0,2057157.0,1408916.0,1846922.0,1763428.0,1544185.0,1888916.0909090908
7.84375,2019129.0,1951944.0,2064480.0,2106353.0,2026488.0,1994633.0,2056680.0,1409245.0,1846832.0,1762064.0,1541708.0,1889050.5454545454
7.859375,2020884.0,1960862.0,2064885.0,2102165.0,2023871.0,1995005.0,2055896.0,1409553.0,1846959.0,1761771.0,1539249.0,1889190.9090909092
7.875,2022477.0,1964202.0,2064937.0,2097660.0,2021771.0,1994955.0,2055656.0,1410225.0,1847128.0,1761553.0,1536829.0,1888853.9090909092
7.890625,2021722.0,1964446.0,2065170.0,2095701.0,2020296.0,1995391.0,2055067.0,1410398.0,1847142.0,1761063.0,1534856.0,1888295.6363636365
7.90625,2017781.0,1966067.0,2065511.0,2098558.0,2020016.0,1995571.0,2054619.0,1409637.0,1847068.0,1759992.0,1532912.0,1887975.6363636365
7.921875,2014243.0,1969657.0,2065897.0,2104604.0,2019563.0,1996075.0,2054302.0,1408848.0,1846832.0,1760279.0,1531414.0,1888337.6363636365
7.9375,2012220.0,1973053.0,2066509.0,2114244.0,2018930.0,1996134.0,2054119.0,1408110.0,1846383.0,1761082.0,1529792.0,1889143.2727272727
7.953125,2011255.0,1975701.0,2066967.0,2122955.0,2018687.0,1996691.0,2054054.0,1407763.0,1846269.0,1762206.0,1528226.0,1890070.3636363635
7.96875,2010786.0,1976922.0,2067613.0,2128754.0,2018249.0,1996531.0,2054162.0,1407671.0,1846604.0,1764234.0,1526213.0,1890703.5454545454
7.984375,2010826.0,1976655.0,2068236.0,2131705.0,2018656.0,1996152.0,2053928.0,1408046.0,1847129.0,1765618.0,1524446.0,1891036.0909090908
8.0,2010946.0,1976038.0,2068982.0,2134198.0,2019094.0,1995141.0,2053646.0,1408526.0,1847681.0,1767788.0,1520992.0,1891184.7272727273
8.015625,2010892.0,1974811.0,2069880.0,2131070.0,2019877.0,1994762.0,2053848.0,1408856.0,1848374.0,1769357.0,1516444.0,1890742.8181818181
8.03125,2010614.0,1974868.0,2070513.0,2125539.0,2020969.0,1995062.0,2053936.0,1408933.0,1848431.0,1771452.0,1512375.0,1890244.7272727273
8.046875,2010214.0,1975322.0,2071325.0,2123680.0,2022445.0,1994853.0,2053889.0,1409578.0,1849168.0,1773917.0,1509308.0,1890336.2727272727
8.0625,2010870.0,1975543.0,2071523.0,2124195.0,2024285.0,1995210.0,2054150.0,1409823.0,1849980.0,1775827.0,1506700.0,1890736.9090909092
8.078125,2010352.0,1975564.0,2070515.0,2122874.0,2025981.0,1995466.0,2054362.0,1410418.0,1850423.0,1775027.0,1504881.0,1890533.0
8.09375,2012592.0,1975646.0,2069717.0,2119781.0,2027224.0,1995692.0,2054032.0,1410923.0,1851505.0,1770584.0,1502924.0,1890056.3636363635
8.109375,2011754.0,1975374.0,2069321.0,2115246.0,2029135.0,1995905.0,2052786.0,1411206.0,1853156.0,1767455.0,1500840.0,1889288.9090909092
8.125,2015140.0,1976159.0,2068972.0,2110819.0,2030669.0,1996063.0,2051791.0,1411919.0,1854546.0,1765820.0,1498428.0,1889120.5454545454
8.140625,2013739.0,1976141.0,2068968.0,2108931.0,2032866.0,1996297.0,2050979.0,1412144.0,1855074.0,1764683.0,1496317.0,1888739.9090909092
8.15625,2015684.0,1975899.0,2069241.0,2108054.0,2035231.0,1996426.0,2050258.0,1412546.0,1854778.0,1764785.0,1494595.0,1888863.3636363635
8.171875,2017563.0,1978037.0,2069810.0,2108182.0,2035707.0,1996907.0,2049493.0,1412022.0,1852541.0,1764716.0,1493274.0,1888932.0
8.1875,2016723.0,1978828.0,2070165.0,2108512.0,2032509.0,1996848.0,2049109.0,1411171.0,1849379.0,1764479.0,1492326.0,1888186.2727272727
8.203125,2018749.0,1979110.0,2070735.0,2108940.0,2032509.0,1997410.0,2048486.0,1410425.0,1847140.0,1764329.0,1491636.0,1888133.5454545454
8.21875,2019855.0,1979045.0,2071326.0,2109764.0,2029487.0,1997733.0,2048362.0,1409646.0,1844857.0,1764855.0,1491204.0,1887830.3636363635
8.234375,2021277.0,1978845.0,2071647.0,2110471.0,2026255.0,1998264.0,2047900.0,1409200.0,1842851.0,1765554.0,1490840.0,1887554.9090909092
8.25,2022394.0,1978664.0,2072389.0,2109661.0,2025453.0,1998393.0,2047696.0,1409171.0,1841002.0,1767342.0,1490488.0,1887513.9090909092
8.265625,2023681.0,1978399.0,2073101.0,2104813.0,2025956.0,1998705.0,2047534.0,1409494.0,1839574.0,1769464.0,1489616.0,1887303.3636363635
8.28125,2025370.0,1977504.0,2073868.0,2099398.0,2027228.0,1998791.0,2047355.0,1409760.0,1838247.0,1771135.0,1487219.0,1886897.7272727273
8.296875,2026765.0,1976776.0,2074649.0,2095390.0,2026988.0,1998885.0,2047320.0,1410182.0,1837144.0,1773265.0,1484524.0,1886535.2727272727
8.3125,2028154.0,1976403.0,2075058.0,2092771.0,2026002.0,1999322.0,2047451.0,1411255.0,1836469.0,1775276.0,1481795.0,1886359.6363636365
8.328125,2028920.0,1976759.0,2075943.0,2091439.0,2024074.0,1999742.0,2047543.0,1412605.0,1836081.0,1777671.0,1479430.0,1886382.4545454546
8.34375,2025561.0,1977077.0,2076766.0,2090379.0,2021527.0,1999749.0,2047437.0,1413832.0,1835839.0,1779837.0,1478370.0,1886034.0
8.359375,2021946.0,1976975.0,2077564.0,2088901.0,2019502.0,2000169.0,2047544.0,1414812.0,1836209.0,1782165.0,1477602.0,1885762.6363636365
8.375,2019550.0,1976490.0,2078080.0,2087162.0,2017682.0,2000194.0,2047903.0,1415742.0,1836613.0,1780050.0,1477042.0,1885137.0909090908
8.390625,2018532.0,1975641.0,2077859.0,2085490.0,2016223.0,2000220.0,2048329.0,1416481.0,1837168.0,1775028.0,1476878.0,1884349.9090909092
8.40625,2017971.0,1974417.0,2076768.0,2084087.0,2014798.0,2000006.0,2048583.0,1416733.0,1837739.0,1771465.0,1477679.0,1883658.7272727273
8.421875,2017807.0,1973765.0,2076065.0,2083358.0,2014486.0,2000034.0,2048713.0,1416333.0,1838478.0,1769621.0,1478167.0,1883347.9090909092
8.4375,2018559.0,1973330.0,2075735.0,2083179.0,2013858.0,1999928.0,2048780.0,1415655.0,1839421.0,1768328.0,1478223.0,1883181.4545454546
8.453125,2018094.0,1972203.0,2078419.0,2082765.0,2013782.0,1998925.0,2048066.0,1414734.0,1840310.0,1767261.0,1478589.0,1883013.4545454546
8.46875,2017641.0,1971338.0,2075352.0,2082397.0,2013402.0,1998306.0,2047853.0,1414746.0,1841163.0,1766981.0,1479071.0,1882568.1818181819
8.484375,2017136.0,1970342.0,2075573.0,2082568.0,2014087.0,1998100.0,2047305.0,1416100.0,1842076.0,1766442.0,1478612.0,1882576.4545454546
8.5,2017022.0,1969268.0,2075975.0,2082827.0,2015253.0,1998241.0,2047052.0,1417278.0,1842821.0,1765953.0,1478067.0,1882705.1818181819
8.515625,2017639.0,1967888.0,2075978.0,2083064.0,2016425.0,1998480.0,2046789.0,1421886.0,1842481.0,1766106.0,1477597.0,1883121.1818181819
8.53125,2018174.0,1965262.0,2076283.0,2083101.0,2018794.0,1998572.0,2046777.0,1434139.0,1840476.0,1766638.0,1477483.0,1884154.4545454546
8.546875,2019131.0,1963175.0,2076545.0,2083562.0,2020069.0,1999030.0,2046713.0,1448937.0,1838931.0,1767847.0,1476266.0,1885473.2727272727
8.5625,2019873.0,1961570.0,2077029.0,2083946.0,2017126.0,1999049.0,2046737.0,1464048.0,1838030.0,1769599.0,1474582.0,1886508.0909090908
8.578125,2021149.0,1959841.0,2076573.0,2084480.0,2011265.0,1999316.0,2047050.0,1479331.0,1836997.0,1771330.0,1472432.0,1887251.2727272727
8.59375,2022114.0,1958595.0,2077961.0,2085014.0,2005920.0,1999667.0,2047369.0,1492875.0,1836043.0,1773363.0,1470655.0,1888143.2727272727
8.609375,2022886.0,1957693.0,2077408.0,2085657.0,2001563.0,2000098.0,2047558.0,1505511.0,1835748.0,1775188.0,1468919.0,1888929.9090909092
8.625,2024025.0,1956976.0,2078457.0,2086695.0,1998161.0,2000469.0,2047760.0,1517283.0,1835817.0,1777062.0,1467475.0,1890016.3636363635
8.640625,2025115.0,1955672.0,2079012.0,2088548.0,1994981.0,2000885.0,2047935.0,1528516.0,1835467.0,1779288.0,1466208.0,1891057.0
8.65625,2026175.0,1954073.0,2079642.0,2082644.0,1992366.0,2001387.0,2048495.0,1541098.0,1835259.0,1781835.0,1465079.0,1891641.1818181819
8.671875,2028726.0,1952409.0,2080181.0,2088045.0,1990488.0,2001580.0,2048939.0,1553105.0,1835494.0,1781640.0,1464539.0,1893195.0909090908
8.6875,2027278.0,1950415.0,2081035.0,2075851.0,1988802.0,2002062.0,2049059.0,1564728.0,1835974.0,1777431.0,1466450.0,1892644.0909090908
8.703125,2029848.0,1948128.0,2080592.0,2069701.0,1986740.0,2002719.0,2049212.0,1574657.0,1836683.0,1772921.0,1470923.0,1892920.3636363635
8.71875,2031301.0,1945362.0,2080915.0,2066602.0,1985759.0,2002640.0,2050114.0,1584547.0,1837348.0,1770297.0,1477435.0,1893847.2727272727
8.734375,2032538.0,1946515.0,2078860.0,2064270.0,1985202.0,2003207.0,2050926.0,1593733.0,1838454.0,1768515.0,1489889.0,1895646.2727272727
8.75,2034191.0,1944130.0,2079439.0,2063189.0,1984606.0,2003671.0,2051561.0,1602902.0,1839159.0,1766978.0,1505234.0,1897732.7272727273
8.765625,2035660.0,1942922.0,2078353.0,2062837.0,1984893.0,2004067.0,2051515.0,1611794.0,1840528.0,1766544.0,1519062.0,1899834.0909090908
8.78125,2033200.0,1942375.0,2078060.0,2062836.0,1984874.0,2003819.0,2051009.0,1620587.0,1841738.0,1766233.0,1534384.0,1901737.7272727273
8.796875,2028926.0,1941232.0,2078042.0,2061478.0,1985639.0,2004516.0,2050431.0,1629318.0,1843442.0,1765287.0,1549871.0,1903471.0909090908
8.8125,2025567.0,1937743.0,2078365.0,2059679.0,1986719.0,2004712.0,2050708.0,1637777.0,1844727.0,1765162.0,1563704.0,1904987.5454545454
8.828125,2023203.0,1934677.0,2078442.0,2058264.0,1987265.0,2004744.0,2050861.0,1646366.0,1846175.0,1765656.0,1576900.0,1906595.7272727273
8.84375,2021855.0,1932171.0,2078447.0,2057534.0,1988165.0,2004041.0,2050918.0,1655071.0,1847494.0,1766560.0,1589586.0,1908349.2727272727
8.859375,2021073.0,1935922.0,2078553.0,2057563.0,1989503.0,2003438.0,2050642.0,1663955.0,1848552.0,1768192.0,1603835.0,1911020.7272727273
8.875,2021088.0,1933384.0,2078995.0,2057872.0,1991149.0,2003015.0,2050580.0,1680294.0,1848316.0,1769847.0,1608700.0,1913021.8181818181
8.890625,2020665.0,1939477.0,2079117.0,2058474.0,1992793.0,2003144.0,2050583.0,1672411.0,1846297.0,1771652.0,1598420.0,1912093.9090909092
8.90625,2020015.0,1930920.0,2079431.0,2059091.0,1994521.0,2003406.0,2051065.0,1688274.0,1845061.0,1773967.0,1613017.0,1914433.4545454546
8.921875,2019285.0,1929707.0,2079970.0,2060212.0,1995360.0,2003614.0,2051270.0,1695698.0,1844432.0,1775554.0,1615313.0,1915492.2727272727
8.9375,2018593.0,1928598.0,2080340.0,2060935.0,1991527.0,2003709.0,2051700.0,1702339.0,1845285.0,1777526.0,1619961.0,1916410.2727272727
8.953125,2018352.0,1927188.0,2080870.0,2061858.0,1986053.0,2004336.0,2052307.0,1708168.0,1847819.0,1780162.0,1625707.0,1917529.0909090908
8.96875,2018567.0,1925096.0,2081349.0,2062422.0,1981377.0,2004605.0,2052541.0,1719868.0,1850516.0,1782433.0,1629344.0,1918919.8181818181
8.984375,2019174.0,1923663.0,2082157.0,2062993.0,1977329.0,2004987.0,2053361.0,1714188.0,1853213.0,1782367.0,1622418.0,1917804.5454545454
9.0,2019914.0,1922679.0,2082701.0,2064291.0,1974774.0,2004697.0,2053838.0,1725859.0,1855762.0,1777853.0,1618000.0,1918215.2727272727
9.015625,2021230.0,1921985.0,2082996.0,2065071.0,1974180.0,2005104.0,2054338.0,1731742.0,1858815.0,1773356.0,1633541.0,1920214.3636363635
9.03125,2022004.0,1921701.0,2082406.0,2066127.0,1973191.0,2005531.0,2055109.0,1737631.0,1861775.0,1771174.0,1631012.0,1920696.4545454546
9.046875,2022840.0,1921830.0,2081086.0,2066934.0,1971862.0,2005769.0,2055784.0,1743673.0,1865033.0,1769516.0,1637356.0,1921971.1818181819
9.0625,2023676.0,1922143.0,2080004.0,2068633.0,1970458.0,2006226.0,2056246.0,1749346.0,1867853.0,1768235.0,1635130.0,1922540.9090909092
9.078125,2024672.0,1920884.0,2079384.0,2069663.0,1969503.0,2006517.0,2056214.0,1755000.0,1871152.0,1767581.0,1640351.0,1923720.0909090908
9.09375,2025919.0,1917742.0,2078673.0,2069971.0,1969204.0,2007150.0,2056091.0,1760885.0,1874122.0,1767326.0,1644274.0,1924668.8181818181
9.109375,2027030.0,1914148.0,2078261.0,2058365.0,1968886.0,2007557.0,2056015.0,1766501.0,1877309.0,1766292.0,1647628.0,1924362.9090909092
9.125,2028183.0,1910865.0,2078079.0,2047345.0,1969752.0,2007653.0,2055867.0,1772106.0,1880221.0,1765671.0,1650187.0,1924175.3636363635
9.140625,2029797.0,1908294.0,2078208.0,2065356.0,1970139.0,2007897.0,2055865.0,1777678.0,1883073.0,1766237.0,1651600.0,1926740.3636363635
9.15625,2031517.0,1905655.0,2077968.0,2051583.0,1971286.0,2007870.0,2056217.0,1783034.0,1885800.0,1766974.0,1654101.0,1926545.9090909092
9.171875,2033005.0,1903929.0,2078172.0,2043169.0,1972512.0,2007915.0,2056531.0,1788308.0,1888552.0,1768216.0,1656788.0,1927008.8181818181
9.1875,2034461.0,1901877.0,2078045.0,2042291.0,1973653.0,2008064.0,2056937.0,1793421.0,1891333.0,1769366.0,1660014.0,1928132.9090909092
9.203125,2035992.0,1900133.0,2078308.0,2044945.0,1975061.0,2008428.0,2057463.0,1797037.0,1893868.0,1770979.0,1661753.0,1929451.5454545454
9.21875,2037722.0,1895529.0,2078685.0,2041564.0,1976508.0,2008625.0,2057900.0,1800732.0,1895387.0,1772154.0,1664353.0,1929923.5454545454
9.234375,2036579.0,1897907.0,2079043.0,2037951.0,1977875.0,2008819.0,2058518.0,1804239.0,1895167.0,1773765.0,1666800.0,1930605.7272727273
9.25,2032951.0,1893523.0,2079466.0,2040050.0,1979702.0,2008385.0,2058978.0,1807548.0,1894843.0,1775555.0,1668555.0,1930868.7272727273
9.265625,2029879.0,1889977.0,2080115.0,2035848.0,1981999.0,2007271.0,2059450.0,1811593.0,1895374.0,1777293.0,1670725.0,1930865.8181818181
9.28125,2028326.0,1891407.0,2080591.0,2034697.0,1983383.0,2006143.0,2060379.0,1815550.0,1896485.0,1779186.0,1672782.0,1931720.8181818181
9.296875,2028378.0,1889095.0,2080961.0,2034788.0,1980819.0,2005553.0,2061074.0,1819466.0,1897413.0,1779189.0,1675039.0,1931979.5454545454
9.3125,2028876.0,1887395.0,2081599.0,2034748.0,1977080.0,2005142.0,2061808.0,1823637.0,1898638.0,1774670.0,1676685.0,1931843.4545454546
9.328125,2028849.0,1885676.0,2081992.0,2035770.0,1974410.0,2005149.0,2062721.0,1827706.0,1899493.0,1770591.0,1678490.0,1931895.1818181819
9.34375,2029291.0,1883143.0,2082547.0,2036286.0,1973055.0,2005001.0,2063887.0,1831444.0,1900277.0,1768661.0,1681359.0,1932268.2727272727
9.359375,2028737.0,1888563.0,2082886.0,2037423.0,1972048.0,2005175.0,2064518.0,1835860.0,1901225.0,1767319.0,1684956.0,1933519.0909090908
9.375,2028451.0,1879231.0,2082112.0,2038729.0,1972009.0,2005142.0,2064865.0,1843864.0,1902686.0,1767153.0,1687530.0,1933797.4545454546
9.390625,2028433.0,1874639.0,2080305.0,2039497.0,1972733.0,2005545.0,2065243.0,1839641.0,1905005.0,1767218.0,1689356.0,1933419.5454545454
9.40625,2028724.0,1870318.0,2078723.0,2040836.0,1972862.0,2006498.0,2065493.0,1848160.0,1907905.0,1766700.0,1691570.0,1934344.4545454546
9.421875,2030079.0,1866578.0,2077587.0,2041819.0,1973347.0,2006365.0,2066028.0,1852006.0,1910502.0,1765829.0,1694082.0,1934929.2727272727
9.4375,2031770.0,1863841.0,2076379.0,2043314.0,1973867.0,2007276.0,2066323.0,1856223.0,1912840.0,1765810.0,1695348.0,1935726.4545454546
9.453125,2033493.0,1861474.0,2075410.0,2045186.0,1974623.0,2005799.0,2066611.0,1859551.0,1914748.0,1766115.0,1697045.0,1936368.6363636365
9.46875,2036130.0,1859212.0,2074970.0,2047073.0,1976404.0,2007928.0,2067263.0,1862169.0,1916735.0,1768840.0,1699919.0,1937876.6363636365
9.484375,2038471.0,1856832.0,2075163.0,2048958.0,1978182.0,2005605.0,2067685.0,1864621.0,1918658.0,1767707.0,1702801.0,1938607.5454545454
9.5,2040675.0,1854531.0,2075170.0,2051210.0,1979701.0,2006772.0,2068185.0,1866765.0,1920297.0,1770771.0,1704848.0,1939902.2727272727
9.515625,2042936.0,1852149.0,2075581.0,2053131.0,1981703.0,2008158.0,2068055.0,1868852.0,1922473.0,1772466.0,1706258.0,1941069.2727272727
9.53125,2045027.0,1850119.0,2076192.0,2051857.0,1983804.0,2008585.0,2068156.0,1871750.0,1924338.0,1774387.0,1708176.0,1942035.5454545454
9.546875,2046563.0,1845946.0,2076834.0,2047598.0,1986041.0,2009183.0,2068082.0,1874721.0,1926370.0,1776349.0,1710019.0,1942518.7272727273
9.5625,2047859.0,1847627.0,2077511.0,2044091.0,1988537.0,2009200.0,2068125.0,1877631.0,1927702.0,1778786.0,1711900.0,1943542.6363636365
9.578125,2049336.0,1843747.0,2078421.0,2042512.0,1990938.0,2009609.0,2068368.0,1880688.0,1926913.0,1780966.0,1713634.0,1944102.9090909092
9.59375,2051319.0,1841689.0,2079154.0,2042199.0,1993256.0,2009995.0,2068693.0,1883630.0,1925821.0,1781282.0,1715480.0,1944774.3636363635
9.609375,2052358.0,1839820.0,2079674.0,2042361.0,1995982.0,2010121.0,2068949.0,1886470.0,1925177.0,1777681.0,1716932.0,1945047.7272727273
9.625,2054511.0,1836958.0,2080154.0,2043806.0,1998685.0,2010356.0,2069056.0,1889304.0,1925028.0,1773548.0,1718538.0,1945449.4545454546
9.640625,2056536.0,1832512.0,2080708.0,2044970.0,2001631.0,2010907.0,2069538.0,1892127.0,1924255.0,1770900.0,1719829.0,1945810.2727272727
9.65625,2058338.0,1829150.0,2081213.0,2045322.0,2001590.0,2010488.0,2069573.0,1895206.0,1923914.0,1771116.0,1720979.0,1946080.8181818181
9.671875,2058817.0,1826255.0,2081743.0,2044991.0,1998413.0,2010991.0,2070026.0,1898465.0,1923644.0,1772028.0,1722264.0,1946148.8181818181
9.6875,2057115.0,1827329.0,2082339.0,2044352.0,1995940.0,2009981.0,2070291.0,1901668.0,1923113.0,1774010.0,1721897.0,1946185.0
9.703125,2054826.0,1826131.0,2082483.0,2044095.0,1994453.0,2009221.0,2070290.0,1905053.0,1922225.0,1775530.0,1721584.0,1945990.0909090908
9.71875,2053745.0,1825925.0,2081167.0,2044449.0,1993533.0,2009087.0,2070008.0,1908073.0,1921611.0,1777664.0,1720605.0,1945987.9090909092
9.734375,2053489.0,1825882.0,2078997.0,2045020.0,1993164.0,2008848.0,2069437.0,1910155.0,1920846.0,1772200.0,1719740.0,1945252.5454545454
9.75,2053665.0,1827189.0,2077374.0,2045791.0,1993897.0,2008896.0,2068832.0,1910982.0,1920727.0,1771307.0,1719042.0,1945245.6363636365
9.765625,2054596.0,1829434.0,2076190.0,2046888.0,1996130.0,2009095.0,2069158.0,1912595.0,1920360.0,1770935.0,1717446.0,1945711.5454545454
9.78125,2055440.0,1828158.0,2075322.0,2048084.0,1995555.0,2009180.0,2069125.0,1913754.0,1920318.0,1780030.0,1716812.0,1946525.2727272727
9.796875,2055909.0,1826459.0,2074529.0,2049289.0,1997053.0,2008990.0,2069155.0,1914677.0,1920290.0,1771489.0,1720073.0,1946173.9090909092
9.8125,2055130.0,1831334.0,2074353.0,2050933.0,1994699.0,2009270.0,2069802.0,1916248.0,1920261.0,1781989.0,1722722.0,1947885.5454545454
9.828125,2055248.0,1833276.0,2074483.0,2052601.0,1998697.0,2009172.0,2070290.0,1918221.0,1920721.0,1771155.0,1725111.0,1948088.6363636365
9.84375,2055679.0,1835186.0,2074491.0,2054034.0,2008414.0,2009578.0,2071365.0,1919547.0,1921138.0,1784474.0,1729021.0,1951175.1818181819
9.859375,2056568.0,1837714.0,2074944.0,2055377.0,2001684.0,2009836.0,2073474.0,1921195.0,1921493.0,1786794.0,1733681.0,1952069.0909090908
9.875,2057374.0,1840879.0,2075292.0,2057417.0,2012176.0,2010048.0,2074825.0,1922402.0,1922116.0,1789412.0,1736976.0,1954447.0
9.890625,2058634.0,1844500.0,2076242.0,2059522.0,2012145.0,2010062.0,2077551.0,1923675.0,1922756.0,1788748.0,1739333.0,1955742.5454545454
9.90625,2059470.0,1847864.0,2076868.0,2061446.0,2011135.0,2010623.0,2080438.0,1924670.0,1923200.0,1784451.0,1741254.0,1956492.6363636365
9.921875,2060591.0,1850515.0,2076732.0,2063766.0,2011702.0,2010872.0,2082587.0,1925682.0,1922407.0,1778531.0,1741442.0,1956802.4545454546
9.9375,2061884.0,1850621.0,2076280.0,2065693.0,2016109.0,2011033.0,2084590.0,1925659.0,1919993.0,1780276.0,1740779.0,1957537.9090909092
9.953125,2063377.0,1849420.0,2076731.0,2067659.0,2020085.0,2010994.0,2086887.0,1925280.0,1918220.0,1776559.0,1738111.0,1957574.8181818181
9.96875,2064308.0,1848198.0,2077158.0,2065238.0,2024869.0,2011289.0,2089150.0,1923993.0,1917111.0,1775808.0,1734575.0,1957427.0
9.984375,2064540.0,1847329.0,2077971.0,2060620.0,2013349.0,2011653.0,2091251.0,1921987.0,1915907.0,1775177.0,1731225.0,1955546.2727272727
10.0,2064447.0,1846018.0,2078557.0,2056398.0,2028812.0,2011616.0,2093383.0,1918224.0,1914881.0,1774797.0,1727668.0,1955891.0
10.015625,2065003.0,1845210.0,2079001.0,2053177.0,2032340.0,2012160.0,2095073.0,1913672.0,1914408.0,1774298.0,1724884.0,1955384.1818181819
10.03125,2065632.0,1844835.0,2079079.0,2051365.0,2035523.0,2012156.0,2096525.0,1908977.0,1913780.0,1774519.0,1722463.0,1954986.7272727273
10.046875,2066730.0,1844544.0,2077453.0,2049740.0,2037295.0,2012452.0,2097806.0,1906355.0,1913034.0,1774832.0,1719999.0,1954567.2727272727
10.0625,2065381.0,1843126.0,2075615.0,2048600.0,2036065.0,2012584.0,2099347.0,1904215.0,1912344.0,1775928.0,1716886.0,1953644.6363636365
10.078125,2061932.0,1840665.0,2074130.0,2047322.0,2034227.0,2012957.0,2100317.0,1903108.0,1912011.0,1777843.0,1713601.0,1952555.7272727273
10.09375,2058905.0,1838045.0,2072903.0,2046023.0,2033317.0,2012479.0,2101457.0,1900398.0,1912096.0,1779197.0,1711142.0,1951451.0909090908
10.109375,2057776.0,1835189.0,2071881.0,2044764.0,2033198.0,2013051.0,2102578.0,1898679.0,1912281.0,1781498.0,1708740.0,1950875.9090909092
10.125,2057899.0,1832123.0,2071236.0,2044266.0,2033058.0,2011462.0,2103547.0,1896842.0,1912595.0,1783124.0,1705874.0,1950184.1818181819
10.140625,2059626.0,1828715.0,2070909.0,2044126.0,2033058.0,2010740.0,2104599.0,1896169.0,1912836.0,1785181.0,1703514.0,1949952.0909090908
10.15625,2061032.0,1826568.0,2070510.0,2045275.0,2033662.0,2010753.0,2106088.0,1894940.0,1913315.0,1787211.0,1701440.0,1950072.1818181819
10.171875,2061284.0,1825544.0,2069902.0,2046740.0,2033863.0,2011217.0,2107061.0,1893403.0,1913723.0,1789515.0,1699355.0,1950146.0909090908
10.1875,2060256.0,1824410.0,2069021.0,2048210.0,2035076.0,2010957.0,2108942.0,1889372.0,1913998.0,1790943.0,1697340.0,1949865.9090909092
10.203125,2057516.0,1824827.0,2068693.0,2049631.0,2037224.0,2010973.0,2110650.0,1887922.0,1914665.0,1787079.0,1694926.0,1949464.1818181819
10.21875,2056122.0,1824927.0,2068141.0,2051194.0,2041246.0,2010598.0,2112451.0,1886796.0,1915236.0,1781026.0,1691796.0,1949048.4545454546
10.234375,2056032.0,1824978.0,2068080.0,2053719.0,2045306.0,2011061.0,2113962.0,1884379.0,1916145.0,1776432.0,1687172.0,1948842.3636363635
10.25,2057300.0,1823567.0,2067731.0,2056344.0,2048592.0,2011183.0,2115079.0,1881846.0,1916264.0,1771743.0,1682307.0,1948359.6363636365
10.265625,2058728.0,1819434.0,2067785.0,2058805.0,2052872.0,2011128.0,2116423.0,1891511.0,1914824.0,1766661.0,1677603.0,1948706.7272727273
10.28125,2061180.0,1816516.0,2067970.0,2062152.0,2056017.0,2011866.0,2116967.0,1879923.0,1913256.0,1762383.0,1673734.0,1947451.2727272727
10.296875,2062928.0,1817766.0,2067833.0,2065137.0,2059083.0,2011555.0,2117552.0,1877899.0,1912663.0,1760975.0,1670178.0,1947597.1818181819
10.3125,2063381.0,1815668.0,2067979.0,2068496.0,2062532.0,2012313.0,2117825.0,1875058.0,1912068.0,1765455.0,1667311.0,1948007.8181818181
10.328125,2063611.0,1815240.0,2068870.0,2071541.0,2065982.0,2012219.0,2118343.0,1872771.0,1911368.0,1768355.0,1664388.0,1948426.1818181819
10.34375,2063532.0,1814844.0,2069695.0,2074440.0,2069806.0,2012705.0,2119179.0,1869360.0,1910361.0,1772025.0,1661008.0,1948814.0909090908
10.359375,2064166.0,1814866.0,2068847.0,2077544.0,2072991.0,2012754.0,2119988.0,1871236.0,1909870.0,1774746.0,1658042.0,1949550.0
10.375,2064582.0,1821636.0,2066585.0,2080367.0,2076051.0,2013024.0,2121063.0,1866427.0,1909424.0,1777176.0,1655179.0,1950137.6363636365
10.390625,2064727.0,1814584.0,2061614.0,2082860.0,2079262.0,2013590.0,2121859.0,1864028.0,1909332.0,1779941.0,1652546.0,1949485.7272727273
10.40625,2064545.0,1814402.0,2063749.0,2084979.0,2081332.0,2013522.0,2122605.0,1862074.0,1910052.0,1782520.0,1649830.0,1949964.5454545454
10.421875,2064293.0,1814149.0,2059530.0,2083095.0,2087278.0,2014197.0,2123757.0,1860852.0,1912035.0,1786055.0,1647970.0,1950291.9090909092
10.4375,2060159.0,1813943.0,2057980.0,2079072.0,2085769.0,2014144.0,2124883.0,1859147.0,1917196.0,1788075.0,1645642.0,1949637.2727272727
10.453125,2054690.0,1813969.0,2057173.0,2075577.0,2083211.0,2014518.0,2126079.0,1858044.0,1919479.0,1794665.0,1643011.0,1949128.7272727273
10.46875,2048473.0,1813824.0,2056148.0,2074360.0,2088085.0,2015014.0,2127163.0,1856114.0,1914053.0,1799661.0,1640636.0,1948502.8181818181
10.484375,2042498.0,1813590.0,2054900.0,2074175.0,2083861.0,2014988.0,2128398.0,1857093.0,1921584.0,1798296.0,1638625.0,1948000.7272727273
10.5,2038004.0,1813161.0,2053894.0,2074682.0,2083363.0,2014991.0,2129663.0,1854809.0,1923919.0,1797688.0,1636327.0,1947318.2727272727
10.515625,2035682.0,1812926.0,2052625.0,2075109.0,2089649.0,2013500.0,2130533.0,1853247.0,1925983.0,1791164.0,1632121.0,1946594.4545454546
10.53125,2034510.0,1813034.0,2052084.0,2075221.0,2086112.0,2012546.0,2131608.0,1850111.0,1927916.0,1793683.0,1627547.0,1945852.0
10.546875,2032385.0,1812297.0,2051370.0,2074819.0,2081365.0,2012048.0,2132506.0,1846000.0,1930273.0,1793467.0,1622816.0,1944486.0
10.5625,2029526.0,1810072.0,2050986.0,2073711.0,2082085.0,2011522.0,2133175.0,1842099.0,1932735.0,1792963.0,1618706.0,1943416.3636363635
10.578125,2026652.0,1812781.0,2051120.0,2072684.0,2080121.0,2011667.0,2134564.0,1840097.0,1935533.0,1795576.0,1615125.0,1943265.4545454546
10.59375,2025201.0,1810925.0,2051084.0,2071984.0,2077411.0,2011265.0,2135499.0,1838395.0,1937910.0,1793432.0,1612161.0,1942297.0
10.609375,2025337.0,1814670.0,2051521.0,2072055.0,2074628.0,2011549.0,2136626.0,1837496.0,1938418.0,1792734.0,1609065.0,1942190.8181818181
10.625,2025843.0,1816391.0,2051671.0,2072063.0,2073017.0,2011857.0,2139430.0,1836877.0,1937541.0,1792677.0,1606048.0,1942128.6363636365
10.640625,2026498.0,1817471.0,2052137.0,2072619.0,2071921.0,2011735.0,2138436.0,1836806.0,1936764.0,1794109.0,1602865.0,1941941.9090909092
10.65625,2027220.0,1818319.0,2052364.0,2073453.0,2070677.0,2012330.0,2140694.0,1836677.0,1936472.0,1794817.0,1599654.0,1942061.5454545454
10.671875,2027459.0,1811327.0,2052525.0,2074205.0,2070710.0,2011707.0,2137649.0,1837121.0,1937797.0,1796044.0,1596998.0,1941231.0909090908
10.6875,2027808.0,1818936.0,2051098.0,2074946.0,2070929.0,2012702.0,2141849.0,1837364.0,1936807.0,1797120.0,1594245.0,1942164.0
10.703125,2028217.0,1819259.0,2048291.0,2075461.0,2070463.0,2013505.0,2143347.0,1837920.0,1937928.0,1792570.0,1591462.0,1941674.8181818181
10.71875,2028496.0,1818942.0,2045661.0,2075925.0,2070367.0,2014673.0,2145697.0,1839112.0,1937181.0,1793200.0,1588995.0,1941659.0
10.734375,2028341.0,1819412.0,2043491.0,2076528.0,2070499.0,2014402.0,2144552.0,1841516.0,1937141.0,1797509.0,1586801.0,1941835.6363636365
10.75,2028881.0,1820032.0,2041065.0,2076694.0,2071247.0,2015121.0,2147125.0,1844469.0,1937267.0,1797247.0,1584085.0,1942112.0909090908
10.765625,2029444.0,1820545.0,2038224.0,2077936.0,2071981.0,2015581.0,2148143.0,1846519.0,1938825.0,1797407.0,1581808.0,1942401.1818181819
10.78125,2030347.0,1821585.0,2039243.0,2077366.0,2072370.0,2015276.0,2149626.0,1846787.0,1938115.0,1794731.0,1579482.0,1942266.1818181819
10.796875,2031061.0,1823477.0,2037350.0,2078602.0,2073149.0,2016052.0,2150197.0,1846077.0,1939389.0,1796806.0,1575946.0,1942555.0909090908
10.8125,2031578.0,1822470.0,2036526.0,2079429.0,2073403.0,2016156.0,2148862.0,1845008.0,1939769.0,1788089.0,1571751.0,1941185.5454545454
10.828125,2028580.0,1824029.0,2035344.0,2080289.0,2074029.0,2016723.0,2150793.0,1844378.0,1941136.0,1780433.0,1567501.0,1940294.0909090908
10.84375,2024533.0,1823526.0,2034751.0,2081189.0,2074501.0,2017553.0,2151490.0,1844103.0,1942631.0,1774857.0,1563782.0,1939356.0
10.859375,2020775.0,1821420.0,2034359.0,2079992.0,2074962.0,2018571.0,2152283.0,1843954.0,1943807.0,1769538.0,1560832.0,1938226.6363636365
10.875,2018731.0,1819565.0,2033959.0,2074892.0,2074760.0,2018583.0,2153031.0,1843867.0,1945159.0,1763702.0,1558046.0,1936754.0909090908
10.890625,2017503.0,1818115.0,2033729.0,2068504.0,2070822.0,2019096.0,2153965.0,1843508.0,1946770.0,1759515.0,1555257.0,1935162.1818181819
10.90625,2016506.0,1817070.0,2033888.0,2063712.0,2065052.0,2019408.0,2154895.0,1842985.0,1951578.0,1755418.0,1552863.0,1933943.1818181819
10.921875,2016241.0,1816895.0,2034067.0,2061086.0,2059993.0,2019373.0,2155903.0,1841806.0,1955538.0,1750307.0,1550234.0,1932858.4545454546
10.9375,2016715.0,1817058.0,2033932.0,2059742.0,2055593.0,2019022.0,2156928.0,1840256.0,1948785.0,1746002.0,1547387.0,1931038.1818181819
10.953125,2016664.0,1817223.0,2034266.0,2059269.0,2052129.0,2017963.0,2157906.0,1838748.0,1957088.0,1739156.0,1545122.0,1930503.0909090908
10.96875,2017132.0,1817563.0,2034524.0,2058842.0,2048659.0,2017475.0,2158817.0,1838044.0,1957157.0,1742089.0,1543061.0,1930305.7272727273
10.984375,2017231.0,1817466.0,2034633.0,2057616.0,2046258.0,2017464.0,2159759.0,1837093.0,1956150.0,1736036.0,1540959.0,1929151.3636363635
11.0,2018343.0,1817555.0,2035003.0,2055795.0,2044401.0,2017629.0,2160847.0,1836516.0,1955216.0,1734021.0,1539028.0,1928577.6363636365
11.015625,2019525.0,1817648.0,2035610.0,2053467.0,2041887.0,2017956.0,2161703.0,1835242.0,1953836.0,1732236.0,1536950.0,1927823.6363636365
11.03125,2020683.0,1818019.0,2034560.0,2051681.0,2039042.0,2017922.0,2162848.0,1832112.0,1952197.0,1731470.0,1535109.0,1926876.6363636365
11.046875,2022001.0,1818302.0,2031776.0,2050687.0,2037517.0,2018267.0,2162918.0,1829326.0,1951395.0,1730645.0,1533299.0,1926012.0909090908
11.0625,2023623.0,1818123.0,2029471.0,2050527.0,2035099.0,2018229.0,2162681.0,1826174.0,1950857.0,1730523.0,1530784.0,1925099.1818181819
11.078125,2025488.0,1818302.0,2027267.0,2050565.0,2034597.0,2018305.0,2162557.0,1823301.0,1950422.0,1730161.0,1527705.0,1924424.5454545454
11.09375,2027345.0,1818434.0,2025198.0,2051087.0,2036661.0,2018260.0,2162855.0,1821408.0,1950354.0,1726514.0,1524188.0,1923845.8181818181
11.109375,2029507.0,1818969.0,2023279.0,2051481.0,2033303.0,2018590.0,2163318.0,1820083.0,1950364.0,1719803.0,1520823.0,1922683.6363636365
11.125,2031743.0,1818828.0,2022283.0,2051613.0,2030291.0,2019040.0,2164347.0,1819484.0,1950505.0,1713843.0,1517790.0,1921797.0
11.140625,2034010.0,1816918.0,2021748.0,2052027.0,2029623.0,2019163.0,2163751.0,1818216.0,1950516.0,1708729.0,1515442.0,1920922.0909090908
11.15625,2036481.0,1814669.0,2020731.0,2052098.0,2030941.0,2019604.0,2164708.0,1817006.0,1950575.0,1704396.0,1513253.0,1920405.6363636365
11.171875,2038851.0,1812323.0,2020058.0,2052498.0,2034239.0,2020070.0,2165417.0,1816375.0,1950314.0,1700631.0,1511288.0,1920187.6363636365
11.1875,2041413.0,1810557.0,2019192.0,2053209.0,2038908.0,2020277.0,2166886.0,1817042.0,1950211.0,1696982.0,1509213.0,1920353.6363636365
11.203125,2043912.0,1809764.0,2018782.0,2053823.0,2043027.0,2020811.0,2166550.0,1818278.0,1950535.0,1692573.0,1507172.0,1920475.1818181819
11.21875,2045249.0,1809349.0,2018804.0,2054658.0,2047152.0,2021152.0,2168628.0,1820185.0,1950693.0,1688412.0,1505329.0,1920873.7272727273
11.234375,2045056.0,1809114.0,2018768.0,2055471.0,2050139.0,2021525.0,2169613.0,1822419.0,1950891.0,1685178.0,1503649.0,1921074.8181818181
11.25,2044200.0,1809317.0,2019009.0,2056508.0,2053082.0,2021987.0,2170322.0,1824654.0,1951314.0,1682686.0,1502285.0,1921396.7272727273
11.265625,2044252.0,1809486.0,2019252.0,2057581.0,2055975.0,2021948.0,2167896.0,1825581.0,1951874.0,1680459.0,1501267.0,1921415.5454545454
11.28125,2045064.0,1809411.0,2019649.0,2059204.0,2057002.0,2022248.0,2171112.0,1824073.0,1951781.0,1679991.0,1500465.0,1921818.1818181819
11.296875,2046281.0,1809874.0,2020220.0,2060057.0,2053517.0,2022328.0,2172029.0,1821440.0,1949938.0,1679443.0,1499651.0,1921343.4545454546
11.3125,2047692.0,1809938.0,2020715.0,2056392.0,2048452.0,2022514.0,2173686.0,1819118.0,1947391.0,1678984.0,1499652.0,1920412.1818181819
11.328125,2049219.0,1810314.0,2021205.0,2049332.0,2044155.0,2022638.0,2173766.0,1816533.0,1945776.0,1678691.0,1499107.0,1919157.8181818181
11.34375,2050748.0,1810522.0,2021842.0,2041777.0,2040351.0,2023265.0,2172840.0,1814854.0,1943894.0,1678743.0,1497353.0,1917835.3636363635
11.359375,2052487.0,1810776.0,2022403.0,2037017.0,2037297.0,2023135.0,2174009.0,1813248.0,1941580.0,1679579.0,1495327.0,1916987.0909090908
11.375,2053797.0,1811289.0,2023226.0,2033625.0,2035083.0,2022225.0,2174061.0,1812216.0,1940008.0,1680039.0,1493493.0,1916278.3636363635
11.390625,2055583.0,1811603.0,2023547.0,2031268.0,2033863.0,2021351.0,2174165.0,1810868.0,1938733.0,1675677.0,1491881.0,1915321.7272727273
11.40625,2057285.0,1811800.0,2022200.0,2029954.0,2032900.0,2021308.0,2174185.0,1810040.0,1936750.0,1670617.0,1490498.0,1914321.5454545454
11.421875,2059029.0,1811056.0,2020147.0,2028726.0,2031252.0,2020993.0,2174458.0,1809439.0,1934842.0,1666449.0,1489797.0,1913289.8181818181
11.4375,2060990.0,1809343.0,2018190.0,2026531.0,2030132.0,2021162.0,2174884.0,1808591.0,1932903.0,1664310.0,1489596.0,1912421.0909090908
11.453125,2062920.0,1807358.0,2016695.0,2023629.0,2029243.0,2021229.0,2175578.0,1807652.0,1932112.0,1662302.0,1489284.0,1911636.5454545454
11.46875,2067495.0,1805663.0,2015653.0,2020838.0,2028945.0,2021632.0,2175878.0,1806212.0,1931075.0,1661810.0,1488748.0,1911268.0909090908
11.484375,2069368.0,1804743.0,2014559.0,2018394.0,2028708.0,2022060.0,2175723.0,1805738.0,1930218.0,1661545.0,1488804.0,1910896.3636363635
11.5,2065281.0,1804041.0,2014087.0,2016707.0,2028698.0,2021952.0,2175832.0,1804895.0,1930221.0,1661660.0,1489522.0,1910263.2727272727
11.515625,2071315.0,1804180.0,2013912.0,2015475.0,2029134.0,2022105.0,2176229.0,1802708.0,1930147.0,1661711.0,1490746.0,1910696.5454545454
11.53125,2073430.0,1804584.0,2013808.0,2014829.0,2029672.0,2022377.0,2176433.0,1800484.0,1930170.0,1662763.0,1491872.0,1910947.4545454546
11.546875,2075410.0,1805135.0,2013427.0,2014575.0,2030031.0,2022896.0,2176626.0,1798000.0,1930205.0,1663996.0,1493187.0,1911226.1818181819
11.5625,2077202.0,1805906.0,2013073.0,2014534.0,2030518.0,2023014.0,2176631.0,1796435.0,1930274.0,1666168.0,1494943.0,1911699.8181818181
11.578125,2079203.0,1806136.0,2013357.0,2014950.0,2030905.0,2023391.0,2176757.0,1794388.0,1930396.0,1668144.0,1496614.0,1912203.7272727273
11.59375,2081519.0,1806316.0,2013495.0,2016147.0,2030905.0,2023956.0,2177091.0,1793196.0,1930703.0,1671059.0,1498340.0,1912975.1818181819
11.609375,2083517.0,1806981.0,2014013.0,2017583.0,2032093.0,2024337.0,2177572.0,1792202.0,1930808.0,1673370.0,1499751.0,1913838.8181818181
11.625,2084795.0,1807308.0,2014622.0,2019494.0,2033435.0,2024693.0,2178508.0,1790612.0,1930452.0,1676139.0,1499917.0,1914543.1818181819
11.640625,2085134.0,1807799.0,2014812.0,2021742.0,2035600.0,2025024.0,2178159.0,1789726.0,1928500.0,1678802.0,1498303.0,1914872.8181818181
11.65625,2085630.0,1808297.0,2015357.0,2024266.0,2037131.0,2025046.0,2179627.0,1789121.0,1926068.0,1679682.0,1494966.0,1915017.3636363635
11.671875,2086422.0,1809114.0,2016167.0,2026855.0,2040093.0,2025662.0,2179089.0,1788835.0,1924427.0,1676291.0,1491980.0,1914994.0909090908
11.6875,2087743.0,1809605.0,2016840.0,2030000.0,2041226.0,2025776.0,2179972.0,1788815.0,1923257.0,1673121.0,1490176.0,1915139.1818181819
11.703125,2089120.0,1810284.0,2017287.0,2033989.0,2039127.0,2026177.0,2179670.0,1789530.0,1921929.0,1671785.0,1488364.0,1915205.6363636365
11.71875,2090543.0,1810236.0,2018063.0,2041228.0,2032905.0,2026594.0,2179691.0,1789512.0,1921169.0,1671130.0,1486364.0,1915221.3636363635
11.734375,2091672.0,1809226.0,2018594.0,2037569.0,2027315.0,2026932.0,2179627.0,1789962.0,1920419.0,1671767.0,1484595.0,1914334.3636363635
11.75,2092822.0,1807504.0,2019420.0,2050344.0,2022749.0,2027184.0,2179659.0,1789314.0,1919889.0,1672371.0,1482624.0,1914898.1818181819
11.765625,2094166.0,1806010.0,2019579.0,2051494.0,2017202.0,2027325.0,2180170.0,1787958.0,1919033.0,1673025.0,1481276.0,1914294.3636363635
11.78125,2095547.0,1805147.0,2017874.0,2047456.0,2012090.0,2027212.0,2180510.0,1786287.0,1918305.0,1673602.0,1479805.0,1913075.9090909092
11.796875,2096926.0,1804440.0,2015888.0,2045380.0,2007360.0,2026187.0,2181396.0,1785089.0,1918022.0,1674458.0,1478344.0,1912135.4545454546
11.8125,2098749.0,1804535.0,2014497.0,2042936.0,2002153.0,2025478.0,2180909.0,1783958.0,1918116.0,1676254.0,1477321.0,1911355.0909090908
11.828125,2100357.0,1805280.0,2013255.0,2041042.0,1997511.0,2024924.0,2181649.0,1783473.0,1918304.0,1678731.0,1476280.0,1910982.3636363635
11.84375,2101778.0,1807100.0,2012112.0,2041172.0,1993960.0,2024802.0,2181701.0,1783619.0,1918711.0,1681691.0,1475457.0,1911100.2727272727
11.859375,2103614.0,1811162.0,2011656.0,2042178.0,1991573.0,2024951.0,2182189.0,1782996.0,1919036.0,1685166.0,1474452.0,1911724.8181818181
11.875,2105715.0,1820819.0,2011205.0,2044021.0,1989079.0,2024873.0,2182057.0,1782952.0,1919466.0,1688459.0,1472972.0,1912874.3636363635
11.890625,2107314.0,1837564.0,2011005.0,2045388.0,1987894.0,2025331.0,2182597.0,1783056.0,1920112.0,1691881.0,1470896.0,1914821.6363636365
11.90625,2109192.0,1852127.0,2010755.0,2046048.0,1986341.0,2025259.0,2182925.0,1782975.0,1920683.0,1694934.0,1469006.0,1916385.9090909092
11.921875,2111400.0,1862309.0,2010497.0,2046286.0,1985180.0,2025190.0,2184462.0,1783273.0,1921166.0,1698389.0,1466988.0,1917740.0
11.9375,2113243.0,1868148.0,2010286.0,2047419.0,1984393.0,2025292.0,2184934.0,1783089.0,1922034.0,1698073.0,1465734.0,1918422.2727272727
11.953125,2115230.0,1871011.0,2010414.0,2050371.0,1984225.0,2025556.0,2185724.0,1783260.0,1923262.0,1695455.0,1465187.0,1919063.1818181819
11.96875,2116588.0,1872381.0,2010670.0,2046059.0,1984300.0,2026029.0,2186480.0,1783735.0,1924193.0,1693477.0,1464798.0,1918973.6363636365
11.984375,2117792.0,1872719.0,2011009.0,2054111.0,1984396.0,2026412.0,2187338.0,1784329.0,1922576.0,1692851.0,1464095.0,1919784.3636363635
12.0,2119048.0,1872830.0,2011415.0,2059310.0,1984937.0,2026933.0,2188037.0,1784458.0,1920122.0,1693168.0,1463347.0,1920327.7272727273
12.015625,2120598.0,1871545.0,2011875.0,2064519.0,1985449.0,2027408.0,2188085.0,1783535.0,1917516.0,1693820.0,1462559.0,1920628.0909090908
12.03125,2125267.0,1870714.0,2012321.0,2069040.0,1986611.0,2027672.0,2188380.0,1782395.0,1915330.0,1694836.0,1461836.0,1921309.2727272727
12.046875,2134614.0,1871204.0,2012853.0,2073650.0,1987998.0,2028058.0,2188502.0,1780905.0,1913314.0,1695913.0,1461419.0,1922584.5454545454
12.0625,2140821.0,1872313.0,2013420.0,2078050.0,1989253.0,2028108.0,2183602.0,1779474.0,1912176.0,1696742.0,1460787.0,1923158.7272727273
12.078125,2144479.0,1875029.0,2013826.0,2081746.0,1986241.0,2028496.0,2188747.0,1778723.0,1911419.0,1698046.0,1460366.0,1924283.4545454546
12.09375,2147402.0,1880115.0,2014390.0,2085184.0,1980737.0,2028634.0,2189262.0,1777783.0,1910820.0,1699809.0,1460291.0,1924947.9090909092
12.109375,2151543.0,1885382.0,2015100.0,2088393.0,1976906.0,2029192.0,2189673.0,1777367.0,1910276.0,1702374.0,1459921.0,1926011.5454545454
12.125,2156279.0,1890437.0,2015406.0,2091206.0,1974029.0,2029166.0,2190356.0,1776791.0,1910370.0,1705194.0,1459191.0,1927129.5454545454
12.140625,2163376.0,1893996.0,2014292.0,2093791.0,1973100.0,2029344.0,2190546.0,1776339.0,1910983.0,1708112.0,1457474.0,1928304.8181818181
12.15625,2149444.0,1896818.0,2012614.0,2096440.0,1971569.0,2029361.0,2191511.0,1776110.0,1911991.0,1710784.0,1455378.0,1927456.3636363635
12.171875,2172632.0,1898946.0,2011318.0,2099270.0,1971425.0,2029751.0,2192222.0,1776993.0,1912658.0,1713510.0,1453302.0,1930184.2727272727
12.1875,2180549.0,1900229.0,2010609.0,2101735.0,1971504.0,2029845.0,2191008.0,1778950.0,1913223.0,1716446.0,1451723.0,1931438.2727272727
12.203125,2186610.0,1900868.0,2009614.0,2104369.0,1971132.0,2029907.0,2192718.0,1781190.0,1914026.0,1718775.0,1450643.0,1932713.8181818181
12.21875,2192109.0,1901752.0,2009052.0,2107034.0,1970786.0,2028799.0,2193445.0,1782599.0,1914406.0,1717094.0,1449857.0,1933357.5454545454
12.234375,2197206.0,1902498.0,2009153.0,2107741.0,1970933.0,2027614.0,2194185.0,1783408.0,1914712.0,1714540.0,1449281.0,1933751.9090909092
12.25,2202281.0,1902582.0,2009003.0,2103513.0,1971747.0,2026865.0,2194625.0,1784711.0,1915633.0,1713121.0,1448973.0,1933914.0
12.265625,2207900.0,1904125.0,2008842.0,2099496.0,1972393.0,2026660.0,2196566.0,1786110.0,1916254.0,1712674.0,1448185.0,1934473.1818181819
12.28125,2212942.0,1904891.0,2009044.0,2097952.0,1973855.0,2026544.0,2195701.0,1785999.0,1917091.0,1712904.0,1447741.0,1934969.4545454546
12.296875,2213358.0,1903742.0,2009717.0,2098461.0,1975678.0,2026155.0,2197461.0,1784824.0,1918348.0,1714039.0,1447302.0,1935371.3636363635
12.3125,2209894.0,1901577.0,2010213.0,2099957.0,1977192.0,2026567.0,2199797.0,1783892.0,1919638.0,1715028.0,1447028.0,1935525.7272727273
12.328125,2206300.0,1899173.0,2010817.0,2102673.0,1977889.0,2026524.0,2199105.0,1782927.0,1920052.0,1715395.0,1447041.0,1935263.2727272727
12.34375,2199290.0,1897452.0,2011618.0,2104994.0,1979826.0,2026378.0,2200268.0,1782515.0,1917583.0,1716830.0,1447112.0,1934896.9090909092
12.359375,2191855.0,1896702.0,2012211.0,2106817.0,1985777.0,2026540.0,2198326.0,1782128.0,1914561.0,1718475.0,1447323.0,1934610.4545454546
12.375,2189542.0,1895768.0,2013278.0,2108156.0,1990825.0,2026713.0,2200516.0,1781808.0,1912959.0,1720982.0,1447543.0,1935280.9090909092
12.390625,2190521.0,1894640.0,2013717.0,2110002.0,1995083.0,2026960.0,2200571.0,1781615.0,1911544.0,1723419.0,1446886.0,1935905.2727272727
12.40625,2193203.0,1893254.0,2014641.0,2107117.0,1998787.0,2027437.0,2200760.0,1782069.0,1909858.0,1726018.0,1445643.0,1936253.3636363635
12.421875,2194238.0,1891246.0,2015429.0,2106286.0,2002370.0,2027782.0,2201280.0,1782526.0,1909678.0,1729350.0,1443966.0,1936741.0
12.4375,2193196.0,1889179.0,2016116.0,2112858.0,2006674.0,2028057.0,2201637.0,1782936.0,1910301.0,1732029.0,1442489.0,1937770.1818181819
12.453125,2191282.0,1887069.0,2015129.0,2120403.0,2007991.0,2028401.0,2202062.0,1783285.0,1910586.0,1734957.0,1440794.0,1938359.9090909092
12.46875,2189626.0,1884826.0,2013515.0,2116324.0,2005451.0,2028813.0,2202118.0,1783345.0,1911098.0,1738490.0,1440114.0,1937610.9090909092
12.484375,2188796.0,1883055.0,2011920.0,2124781.0,2002742.0,2029332.0,2202371.0,1783236.0,1912175.0,1741043.0,1439596.0,1938095.1818181819
12.5,2187667.0,1881468.0,2010501.0,2128873.0,2001608.0,2029805.0,2202623.0,1782954.0,1913547.0,1740825.0,1439304.0,1938106.8181818181
12.515625,2186750.0,1879855.0,2009596.0,2132969.0,2001628.0,2030164.0,2203146.0,1782809.0,1914689.0,1738722.0,1438650.0,1938088.9090909092
12.53125,2186940.0,1878263.0,2008917.0,2136560.0,2002835.0,2030555.0,2203823.0,1782810.0,1915517.0,1738580.0,1438424.0,1938474.9090909092
12.546875,2187454.0,1877120.0,2008761.0,2139329.0,2005159.0,2030772.0,2204433.0,1782396.0,1915856.0,1738580.0,1438417.0,1938934.2727272727
12.5625,2187470.0,1876006.0,2008397.0,2142331.0,2008012.0,2031350.0,2200873.0,1782357.0,1916154.0,1739091.0,1438344.0,1939125.9090909092
12.578125,2187528.0,1873720.0,2008151.0,2145886.0,2010398.0,2031661.0,2205998.0,1782613.0,1916140.0,1739554.0,1438526.0,1940015.9090909092
12.59375,2187582.0,1870831.0,2007985.0,2149648.0,2012157.0,2032125.0,2207105.0,1783001.0,1916344.0,1740708.0,1439073.0,1940596.2727272727
12.609375,2188120.0,1867625.0,2008204.0,2152191.0,2012893.0,2032249.0,2205519.0,1783621.0,1916921.0,1742038.0,1439489.0,1940806.3636363635
12.625,2188338.0,1864942.0,2008726.0,2154326.0,2013280.0,2032207.0,2206467.0,1784843.0,1917420.0,1743133.0,1440104.0,1941253.2727272727
12.640625,2188741.0,1862466.0,2009680.0,2154404.0,2014328.0,2031174.0,2208523.0,1785672.0,1918097.0,1744242.0,1440884.0,1941655.5454545454
12.65625,2189210.0,1860229.0,2010548.0,2148824.0,2014110.0,2030447.0,2207655.0,1786930.0,1918682.0,1745401.0,1441276.0,1941210.1818181819
12.671875,2189834.0,1858344.0,2012146.0,2140555.0,2015452.0,2030074.0,2209175.0,1788559.0,1917568.0,1747415.0,1441337.0,1940950.8181818181
12.6875,2190190.0,1856597.0,2013657.0,2127235.0,2017661.0,2030441.0,2210070.0,1790308.0,1915248.0,1748968.0,1440446.0,1940074.6363636365
12.703125,2190313.0,1854908.0,2014891.0,2132873.0,2020511.0,2030362.0,2210305.0,1790891.0,1913562.0,1750876.0,1438890.0,1940762.0
12.71875,2190915.0,1853453.0,2016135.0,2123603.0,2023289.0,2030566.0,2210605.0,1792029.0,1912138.0,1753602.0,1437470.0,1940345.9090909092
12.734375,2190966.0,1851925.0,2016841.0,2121239.0,2025530.0,2030900.0,2211004.0,1792813.0,1910966.0,1756198.0,1436349.0,1940430.0909090908
12.75,2190949.0,1851118.0,2018081.0,2120191.0,2028456.0,2030779.0,2211568.0,1793608.0,1909735.0,1759345.0,1435894.0,1940884.0
12.765625,2191437.0,1850922.0,2017938.0,2119465.0,2031729.0,2031163.0,2214041.0,1794514.0,1909157.0,1763408.0,1435773.0,1941777.0
12.78125,2190965.0,1850850.0,2016528.0,2119089.0,2035092.0,2031335.0,2214691.0,1795105.0,1908550.0,1766981.0,1435725.0,1942264.6363636365
12.796875,2189813.0,1850410.0,2015218.0,2119509.0,2039042.0,2031687.0,2215512.0,1793697.0,1907737.0,1767718.0,1435894.0,1942385.1818181819
12.8125,2188498.0,1849965.0,2013957.0,2119374.0,2042162.0,2031851.0,2213420.0,1791559.0,1907548.0,1766352.0,1435891.0,1941870.6363636365
12.828125,2188065.0,1849511.0,2011730.0,2119803.0,2041449.0,2032554.0,2212911.0,1789490.0,1907281.0,1766512.0,1435900.0,1941382.3636363635
12.84375,2187596.0,1848989.0,2012614.0,2118758.0,2039668.0,2032704.0,2212084.0,1787323.0,1907236.0,1767902.0,1436266.0,1941012.7272727273
12.859375,2187000.0,1846411.0,2010965.0,2118351.0,2037737.0,2033274.0,2216165.0,1785540.0,1907804.0,1769935.0,1436775.0,1940905.1818181819
12.875,2186755.0,1843170.0,2009766.0,2118130.0,2036150.0,2034022.0,2217662.0,1784201.0,1908226.0,1772806.0,1437279.0,1940742.4545454546
12.890625,2186690.0,1840000.0,2010660.0,2117947.0,2033602.0,2034176.0,2216980.0,1782357.0,1907549.0,1775179.0,1438173.0,1940301.1818181819
12.90625,2186539.0,1837173.0,2009521.0,2117568.0,2030031.0,2034513.0,2218166.0,1780685.0,1908670.0,1777957.0,1439010.0,1939984.8181818181
12.921875,2186569.0,1834816.0,2010509.0,2117014.0,2026722.0,2035020.0,2218967.0,1779801.0,1909088.0,1780119.0,1439747.0,1939852.0
12.9375,2186229.0,1833394.0,2009341.0,2116791.0,2022522.0,2035409.0,2220424.0,1777934.0,1909830.0,1783072.0,1440923.0,1939624.4545454546
12.953125,2186141.0,1832256.0,2009472.0,2116283.0,2019988.0,2035678.0,2219349.0,1776745.0,1910741.0,1786050.0,1441771.0,1939497.6363636365
12.96875,2185903.0,1832073.0,2009723.0,2116637.0,2018422.0,2036056.0,2220673.0,1775795.0,1911380.0,1789900.0,1442594.0,1939923.2727272727
12.984375,2185558.0,1832260.0,2010052.0,2116752.0,2017659.0,2036095.0,2221008.0,1775185.0,1912369.0,1793306.0,1442727.0,1940270.0909090908
13.0,2185771.0,1832315.0,2010516.0,2118653.0,2018321.0,2036553.0,2221410.0,1774928.0,1913217.0,1797130.0,1442788.0,1941054.7272727273
13.015625,2185867.0,1831859.0,2011010.0,2117598.0,2020741.0,2037277.0,2221855.0,1774358.0,1911094.0,1800673.0,1442852.0,1941380.3636363635
13.03125,2185956.0,1831621.0,2011711.0,2118289.0,2022256.0,2037127.0,2222011.0,1774358.0,1909726.0,1804052.0,1443500.0,1941873.3636363635
13.046875,2186159.0,1831692.0,2012090.0,2120135.0,2024773.0,2037026.0,2222149.0,1774197.0,1912620.0,1807266.0,1444641.0,1942977.0909090908
13.0625,2186062.0,1831855.0,2012772.0,2117075.0,2028070.0,2036140.0,2222492.0,1774140.0,1909035.0,1810484.0,1446330.0,1943132.2727272727
13.078125,2185683.0,1831817.0,2013496.0,2118061.0,2031000.0,2035213.0,2223122.0,1773144.0,1907273.0,1810828.0,1448920.0,1943505.1818181819
13.09375,2186176.0,1831991.0,2013917.0,2119250.0,2033604.0,2035385.0,2223772.0,1771473.0,1908123.0,1809546.0,1450773.0,1944000.9090909092
13.109375,2186266.0,1832112.0,2012339.0,2110853.0,2036219.0,2035030.0,2224253.0,1770484.0,1906845.0,1808932.0,1452154.0,1943226.0909090908
13.125,2186089.0,1832496.0,2010145.0,2102563.0,2040010.0,2035115.0,2224719.0,1769970.0,1907032.0,1810163.0,1453922.0,1942929.4545454546
13.140625,2184854.0,1832998.0,2008117.0,2093469.0,2043392.0,2035331.0,2225355.0,1769577.0,1906659.0,1811775.0,1455375.0,1942445.6363636365
13.15625,2182787.0,1833529.0,2006462.0,2091166.0,2046957.0,2035522.0,2225546.0,1769785.0,1906798.0,1813985.0,1458487.0,1942820.3636363635
13.171875,2180883.0,1833267.0,2004777.0,2097043.0,2047722.0,2035412.0,2226099.0,1770031.0,1906631.0,1815885.0,1460287.0,1943457.9090909092
13.1875,2179475.0,1833312.0,2003213.0,2090043.0,2038293.0,2035294.0,2226617.0,1770187.0,1907635.0,1817373.0,1456814.0,1941659.6363636365
13.203125,2178265.0,1833510.0,2002380.0,2089583.0,2043860.0,2035219.0,2227224.0,1770575.0,1906962.0,1818464.0,1462397.0,1942585.3636363635
13.21875,2177236.0,1834309.0,2002032.0,2088312.0,2029905.0,2035613.0,2228154.0,1771104.0,1909140.0,1820067.0,1464649.0,1941865.5454545454
13.234375,2176447.0,1834646.0,2001182.0,2086644.0,2033513.0,2035955.0,2228576.0,1771837.0,1908519.0,1822306.0,1466724.0,1942395.3636363635
13.25,2176328.0,1833946.0,2000362.0,2084607.0,2026267.0,2036236.0,2227849.0,1772736.0,1909860.0,1824594.0,1468573.0,1941941.6363636365
13.265625,2175752.0,1833012.0,2000168.0,2083184.0,2024171.0,2036680.0,2228343.0,1773694.0,1910712.0,1827254.0,1470300.0,1942115.4545454546
13.28125,2175126.0,1830698.0,1999753.0,2082765.0,2022006.0,2037217.0,2228405.0,1774822.0,1911561.0,1829592.0,1471734.0,1942152.6363636365
13.296875,2173832.0,1825773.0,1999796.0,2083511.0,2017890.0,2037469.0,2228417.0,1775621.0,1912660.0,1832038.0,1471381.0,1941671.6363636365
13.3125,2172981.0,1824145.0,2000151.0,2084419.0,2013433.0,2037821.0,2228359.0,1776609.0,1913889.0,1834811.0,1472050.0,1941697.0909090908
13.328125,2172270.0,1827152.0,2000077.0,2085815.0,2012006.0,2038061.0,2228195.0,1777725.0,1916320.0,1837272.0,1472233.0,1942466.0
13.34375,2171961.0,1822270.0,2000284.0,2087282.0,2012124.0,2038375.0,2228406.0,1777140.0,1915129.0,1837314.0,1472904.0,1942108.0909090908
13.359375,2171555.0,1831989.0,2000702.0,2088784.0,2015633.0,2038804.0,2228602.0,1776482.0,1916889.0,1834772.0,1473961.0,1943470.2727272727
13.375,2171195.0,1819363.0,2001122.0,2090532.0,2014694.0,2039182.0,2228947.0,1776087.0,1915661.0,1833767.0,1475982.0,1942412.0
13.390625,2170960.0,1815731.0,2001397.0,2093673.0,2013364.0,2039540.0,2228660.0,1775372.0,1914591.0,1834070.0,1474970.0,1942029.8181818181
13.40625,2170495.0,1828936.0,2001944.0,2095500.0,2016183.0,2039957.0,2229114.0,1775705.0,1914404.0,1834367.0,1476660.0,1943933.1818181819
13.421875,2170417.0,1812139.0,2002317.0,2092148.0,2016583.0,2040446.0,2229621.0,1776120.0,1914189.0,1835518.0,1477220.0,1942428.9090909092
13.4375,2170523.0,1808955.0,2002512.0,2097540.0,2017863.0,2040630.0,2229893.0,1776614.0,1913889.0,1836834.0,1478677.0,1943084.5454545454
13.453125,2170315.0,1805805.0,2001046.0,2103652.0,2019197.0,2040848.0,2230104.0,1776798.0,1914049.0,1837476.0,1477702.0,1943362.9090909092
13.46875,2170102.0,1803332.0,1998343.0,2099788.0,2022360.0,2040648.0,2230146.0,1777240.0,1914423.0,1838178.0,1480696.0,1943205.0909090908
13.484375,2168865.0,1799828.0,1996213.0,2101641.0,2020967.0,2039974.0,2230171.0,1777636.0,1914573.0,1839297.0,1482767.0,1942902.9090909092
13.5,2165762.0,1801532.0,1994240.0,2105685.0,2023180.0,2038933.0,2230520.0,1778251.0,1914676.0,1840758.0,1484032.0,1943415.3636363635
13.515625,2162288.0,1796557.0,1992250.0,2111270.0,2024821.0,2038714.0,2230749.0,1778667.0,1915405.0,1842265.0,1485083.0,1943460.8181818181
13.53125,2160088.0,1798340.0,1991001.0,2107555.0,2026464.0,2038422.0,2230597.0,1779220.0,1916373.0,1844481.0,1481693.0,1943112.1818181819
13.546875,2158044.0,1794966.0,1989982.0,2110273.0,2027787.0,2038407.0,2230231.0,1780019.0,1917319.0,1847074.0,1485876.0,1943634.3636363635
13.5625,2155958.0,1793744.0,1989279.0,2109479.0,2024137.0,2038627.0,2229624.0,1781045.0,1918051.0,1848971.0,1485993.0,1943173.4545454546
13.578125,2154670.0,1792396.0,1988163.0,2103505.0,2018904.0,2038646.0,2229360.0,1781668.0,1918740.0,1850848.0,1485889.0,1942071.7272727273
13.59375,2153226.0,1791219.0,1987360.0,2094722.0,2014505.0,2038696.0,2228621.0,1781767.0,1919669.0,1853488.0,1479571.0,1940258.5454545454
13.609375,2151813.0,1790104.0,1986834.0,2088281.0,2011372.0,2038600.0,2228205.0,1781447.0,1920488.0,1853064.0,1485454.0,1939605.6363636365
13.625,2150273.0,1788873.0,1986212.0,2084200.0,2008174.0,2038466.0,2227744.0,1780846.0,1921485.0,1850007.0,1484965.0,1938295.0
13.640625,2148845.0,1787894.0,1986072.0,2081665.0,2006138.0,2038953.0,2227417.0,1780267.0,1922592.0,1847518.0,1485340.0,1937518.2727272727
13.65625,2147079.0,1786032.0,1985912.0,2078793.0,2004090.0,2039225.0,2227434.0,1779795.0,1923473.0,1846579.0,1485015.0,1936675.1818181819
13.671875,2145900.0,1782855.0,1985866.0,2077455.0,2002307.0,2039314.0,2227200.0,1779906.0,1924942.0,1846027.0,1485777.0,1936140.8181818181
13.6875,2144657.0,1779839.0,1986074.0,2074916.0,2000301.0,2039617.0,2227146.0,1779950.0,1925786.0,1845834.0,1486101.0,1935474.6363636365
