Timestamp,Participant_11,Participant_12,Participant_13,Participant_14,Participant_15,Participant_16,Participant_17,Participant_18,Participant_22,Participant_23,Participant_24,Average
0.0,64.0,-88.66,12.32,64.0,62.73,-21.21,64.0,64.0,-205.03,64.0,64.0,13.104545454545452
0.015625,-0.0,-81.0,13.08,-0.0,63.87,-20.37,-0.0,-0.0,-218.01,-0.0,-0.0,-22.03909090909091
0.03125,-0.0,-75.7,13.93,-0.0,64.08,-21.78,-0.0,-0.0,-230.17,-0.0,-0.0,-22.69454545454545
0.046875,-0.0,-72.64,14.79,-0.0,63.19,-24.35,-0.0,-0.0,-240.3,-0.0,-0.0,-23.573636363636364
0.0625,-0.0,-71.21,15.59,-0.0,61.22,-26.8,-0.0,-0.0,-247.39,-0.0,-0.0,-24.417272727272724
0.078125,-0.0,-70.55,16.22,-0.0,58.4,-27.99,-0.0,-0.0,-250.96,-0.0,-0.0,-24.98909090909091
0.09375,-0.0,-69.84,16.6,-0.0,55.08,-27.06,-0.0,-0.0,-251.2,-0.0,-0.0,-25.12909090909091
0.109375,-0.0,-68.55,16.74,-0.0,51.66,-23.43,-0.0,-0.0,-248.7,-0.0,-0.0,-24.75272727272727
0.125,-0.0,-66.47,16.7,-0.0,48.41,-16.75,-0.0,-0.0,-244.03,-0.0,-0.0,-23.83090909090909
0.140625,-0.0,-63.76,16.63,-0.0,45.34,-6.89,-0.0,-0.0,-237.48,-0.0,-0.0,-22.378181818181815
0.15625,-0.0,-60.73,16.57,-0.0,42.29,6.01,-0.0,-0.0,-229.03,-0.0,-0.0,-20.44454545454545
0.171875,0.0,-57.74,16.55,0.0,38.95,21.06,0.0,0.0,-218.44,0.0,0.0,-18.14727272727273
0.1875,0.01,-55.04,16.44,0.01,35.12,36.3,0.01,0.01,-205.51,0.01,0.01,-15.693636363636365
0.203125,0.01,-52.72,16.08,0.01,30.72,48.43,0.01,0.01,-190.12,0.01,0.01,-13.413636363636364
0.21875,-0.0,-50.92,15.32,-0.0,25.93,53.33,-0.0,-0.0,-172.27,-0.0,-0.0,-11.691818181818183
0.234375,-0.03,-49.87,14.07,-0.03,21.0,47.16,-0.03,-0.03,-152.11,-0.03,-0.03,-10.902727272727274
0.25,-0.05,-50.04,12.39,-0.05,16.18,27.78,-0.05,-0.05,-130.01,-0.05,-0.05,-11.272727272727272
0.265625,-0.05,-52.04,10.43,-0.05,11.44,-4.17,-0.05,-0.05,-106.8,-0.05,-0.05,-12.858181818181817
0.28125,0.0,-56.39,8.44,0.0,6.51,-45.04,0.0,0.0,-83.73,0.0,0.0,-15.473636363636365
0.296875,0.13,-63.31,6.64,0.13,0.91,-89.19,0.13,0.13,-62.36,0.13,0.13,-18.775454545454547
0.3125,0.36,-72.57,5.2,0.36,-5.83,-130.73,0.36,0.36,-43.92,0.36,0.36,-22.335454545454546
0.328125,0.66,-83.62,4.2,0.66,-13.95,-165.39,0.66,0.66,-29.04,0.66,0.66,-25.80363636363636
0.34375,1.01,-95.76,3.67,1.01,-23.29,-191.66,1.01,1.01,-17.47,1.01,1.01,-28.950000000000003
0.359375,1.37,-108.4,3.56,1.37,-33.32,-210.03,1.37,1.37,-8.39,1.37,1.37,-31.669090909090905
0.375,1.72,-121.19,3.88,1.72,-43.26,-221.77,1.72,1.72,-0.83,1.72,1.72,-33.89545454545454
0.390625,2.06,-133.88,4.64,2.06,-52.4,-227.89,2.06,2.06,5.81,2.06,2.06,-35.57818181818181
0.40625,2.4,-146.26,5.78,2.4,-60.27,-228.79,2.4,2.4,11.7,2.4,2.4,-36.67636363636364
0.421875,2.79,-157.97,7.18,2.79,-66.86,-224.72,2.79,2.79,16.7,2.79,2.79,-37.17545454545455
0.4375,3.24,-168.63,8.56,3.24,-72.61,-216.36,3.24,3.24,20.81,3.24,3.24,-37.16272727272727
0.453125,3.8,-178.01,9.58,3.8,-78.29,-205.15,3.8,3.8,24.19,3.8,3.8,-36.807272727272725
0.46875,4.42,-186.32,9.87,4.42,-84.86,-193.05,4.42,4.42,27.28,4.42,4.42,-36.41454545454546
0.484375,5.06,-194.17,9.13,5.06,-93.23,-182.28,5.06,5.06,30.53,5.06,5.06,-36.33272727272727
0.5,5.66,-202.31,7.23,5.66,-103.96,-173.75,5.66,5.66,34.2,5.66,5.66,-36.78454545454545
0.515625,6.2,-211.11,4.26,6.2,-116.92,-166.89,6.2,6.2,38.31,6.2,6.2,-37.74090909090909
0.53125,6.68,-220.05,0.58,6.68,-131.0,-160.36,6.68,6.68,42.73,6.68,6.68,-38.91090909090909
0.546875,7.15,-227.53,-3.24,7.15,-144.04,-153.19,7.15,7.15,47.27,7.15,7.15,-39.802727272727275
0.5625,7.68,-231.12,-6.52,7.68,-153.15,-145.36,7.68,7.68,51.68,7.68,7.68,-39.853636363636355
0.578125,8.31,-228.16,-8.65,8.31,-155.43,-137.62,8.31,8.31,55.65,8.31,8.31,-38.57727272727273
0.59375,9.14,-216.62,-9.31,9.14,-148.97,-130.78,9.14,9.14,58.74,9.14,9.14,-35.64545454545455
0.609375,10.09,-195.78,-8.54,10.09,-133.52,-125.17,10.09,10.09,60.37,10.09,10.09,-31.1
0.625,11.04,-166.41,-6.7,11.04,-110.67,-121.19,11.04,11.04,60.04,11.04,11.04,-25.335454545454546
0.640625,11.88,-130.67,-4.31,11.88,-83.46,-118.01,11.88,11.88,57.54,11.88,11.88,-18.87545454545455
0.65625,12.56,-91.5,-1.78,12.56,-55.37,-113.92,12.56,12.56,53.1,12.56,12.56,-12.19181818181818
0.671875,13.14,-51.96,0.72,13.14,-29.42,-107.23,13.14,13.14,47.3,13.14,13.14,-5.613636363636365
0.6875,13.76,-14.73,3.21,13.76,-7.49,-96.97,13.76,13.76,41.05,13.76,13.76,0.6936363636363635
0.703125,14.65,18.25,5.81,14.65,9.8,-83.02,14.65,14.65,35.27,14.65,14.65,6.7281818181818185
0.71875,15.96,45.86,8.59,15.96,22.77,-65.95,15.96,15.96,30.64,15.96,15.96,12.515454545454547
0.734375,17.91,67.66,11.49,17.91,32.2,-46.91,17.91,17.91,27.52,17.91,17.91,18.12909090909091
0.75,20.32,83.86,14.36,20.32,38.85,-27.85,20.32,20.32,25.85,20.32,20.32,23.362727272727273
0.765625,22.9,95.17,17.07,22.9,43.34,-12.33,22.9,22.9,25.32,22.9,22.9,27.815454545454543
0.78125,25.38,102.74,19.5,25.38,46.04,-2.79,25.38,25.38,25.47,25.38,25.38,31.203636363636363
0.796875,27.58,107.94,21.6,27.58,47.32,0.82,27.58,27.58,25.83,27.58,27.58,33.54454545454545
0.8125,29.57,112.11,23.28,29.57,47.67,1.18,29.57,29.57,26.08,29.57,29.57,35.2490909090909
0.828125,31.68,116.21,24.39,31.68,47.72,2.37,31.68,31.68,26.07,31.68,31.68,36.985454545454544
0.84375,34.32,120.54,24.78,34.32,48.14,8.02,34.32,34.32,25.81,34.32,34.32,39.38272727272727
0.859375,37.81,124.57,24.24,37.81,49.4,19.67,37.81,37.81,25.42,37.81,37.81,42.74181818181818
0.875,42.54,127.02,22.72,42.54,51.66,35.8,42.54,42.54,25.08,42.54,42.54,47.04727272727273
0.890625,48.15,126.23,20.32,48.15,54.68,59.71,48.15,48.15,24.93,48.15,48.15,52.25181818181818
0.90625,54.1,120.71,17.31,54.1,58.01,88.38,54.1,54.1,25.08,54.1,54.1,57.64454545454546
0.921875,59.83,109.85,14.06,59.83,61.26,115.25,59.83,59.83,25.57,59.83,59.83,62.27000000000001
0.9375,64.97,94.23,11.0,64.97,64.22,135.05,64.97,64.97,26.44,64.97,64.97,65.52363636363637
0.953125,69.58,75.77,8.52,69.58,66.93,147.74,69.58,69.58,27.74,69.58,69.58,67.65272727272728
0.96875,74.14,57.16,6.89,74.14,69.46,156.96,74.14,74.14,29.5,74.14,74.14,69.52818181818182
0.984375,79.34,41.11,6.28,79.34,71.74,165.92,79.34,79.34,31.73,79.34,79.34,72.07454545454546
1.0,85.71,29.34,6.67,85.71,73.41,175.06,85.71,85.71,34.41,85.71,85.71,75.74090909090908
1.015625,93.76,22.08,7.9,93.76,74.02,182.54,93.76,93.76,37.46,93.76,93.76,80.59636363636365
1.03125,103.0,18.02,9.67,103.0,73.19,185.76,103.0,103.0,40.7,103.0,103.0,85.94
1.046875,112.62,15.02,11.75,112.62,70.81,182.7,112.62,112.62,43.83,112.62,112.62,90.89363636363636
1.0625,121.73,11.07,14.04,121.73,67.11,174.04,121.73,121.73,46.45,121.73,121.73,94.82636363636365
1.078125,129.77,5.18,16.67,129.77,62.47,162.69,129.77,129.77,48.12,129.77,129.77,97.61363636363636
1.09375,136.75,-2.39,19.86,136.75,57.2,152.01,136.75,136.75,48.51,136.75,136.75,99.60818181818182
1.109375,143.3,-10.48,23.8,143.3,51.5,143.94,143.3,143.3,47.6,143.3,143.3,101.46909090909092
1.125,150.75,-17.92,28.37,150.75,45.38,138.43,150.75,150.75,45.74,150.75,150.75,104.04545454545455
1.140625,157.77,-24.24,33.08,157.77,38.87,134.01,157.77,157.77,43.58,157.77,157.77,106.53818181818183
1.15625,166.64,-30.04,37.21,166.64,32.06,128.85,166.64,166.64,41.81,166.64,166.64,109.97545454545451
1.171875,177.95,-36.66,40.14,177.95,25.17,120.79,177.95,177.95,40.86,177.95,177.95,114.36363636363636
1.1875,191.79,-45.59,41.63,191.79,18.5,108.51,191.79,191.79,40.71,191.79,191.79,119.5
1.203125,206.97,-57.69,41.94,206.97,12.28,92.72,206.97,206.97,40.91,206.97,206.97,124.72545454545455
1.21875,220.57,-72.75,41.67,220.57,6.61,75.73,220.57,220.57,40.83,220.57,220.57,128.68272727272728
1.234375,228.25,-89.29,41.52,228.25,1.36,60.24,228.25,228.25,39.93,228.25,228.25,129.38727272727272
1.25,225.36,-104.86,41.95,225.36,-3.78,47.83,225.36,225.36,37.87,225.36,225.36,124.65181818181819
1.265625,208.53,-116.43,43.19,208.53,-9.15,38.55,208.53,208.53,34.59,208.53,208.53,112.90272727272728
1.28125,176.87,-121.08,45.35,176.87,-14.97,30.98,176.87,176.87,30.19,176.87,176.87,93.79
1.296875,132.76,-116.74,48.65,132.76,-21.14,23.16,132.76,132.76,24.89,132.76,132.76,68.67090909090908
1.3125,80.05,-102.81,53.41,80.05,-27.34,12.42,80.05,80.05,18.88,80.05,80.05,39.53272727272727
1.328125,23.07,-80.44,60.0,23.07,-33.15,-2.82,23.07,23.07,12.4,23.07,23.07,8.582727272727272
1.34375,-34.94,-52.34,68.61,-34.94,-38.31,-22.75,-34.94,-34.94,5.68,-34.94,-34.94,-22.613636363636363
1.359375,-92.44,-22.12,79.15,-92.44,-42.82,-46.69,-92.44,-92.44,-1.1,-92.44,-92.43,-53.473636363636366
1.375,-149.16,6.71,91.37,-149.16,-47.02,-73.65,-149.16,-149.16,-7.76,-149.16,-149.15,-84.11818181818181
1.390625,-205.23,31.6,105.06,-205.23,-51.43,-102.3,-205.23,-205.23,-14.03,-205.23,-205.23,-114.77090909090907
1.40625,-260.37,51.26,120.13,-260.37,-56.69,-130.38,-260.37,-260.37,-19.35,-260.37,-260.37,-145.2045454545454
1.421875,-313.74,65.62,136.49,-313.74,-63.36,-154.1,-313.74,-313.74,-22.89,-313.74,-313.75,-174.60818181818183
1.4375,-363.87,75.18,153.62,-363.87,-71.83,-162.55,-363.87,-363.87,-23.67,-363.87,-363.88,-201.13454545454545
1.453125,-409.83,80.42,170.24,-409.83,-82.09,-152.07,-409.83,-409.83,-20.95,-409.83,-409.83,-223.9481818181818
1.46875,-450.91,81.48,184.21,-450.91,-93.42,-124.15,-450.91,-450.91,-14.6,-450.91,-450.89,-242.9018181818182
1.484375,-486.5,78.25,193.05,-486.51,-104.19,-84.89,-486.5,-486.5,-5.42,-486.5,-486.47,-258.38000000000005
1.5,-515.74,70.67,194.7,-515.74,-112.03,-43.01,-515.74,-515.74,5.12,-515.74,-515.7,-270.81363636363636
1.515625,-537.23,59.13,188.46,-537.23,-114.32,-6.4,-537.23,-537.23,15.16,-537.23,-537.22,-280.1218181818182
1.53125,-549.22,44.61,175.54,-549.22,-109.04,20.85,-549.22,-549.22,23.15,-549.22,-549.28,-285.47909090909087
1.546875,-549.96,28.52,158.69,-549.94,-95.61,39.28,-549.96,-549.96,28.13,-549.96,-550.12,-285.5354545454545
1.5625,-538.37,12.35,141.27,-538.33,-75.2,52.38,-538.37,-538.37,29.75,-538.37,-538.63,-279.0809090909091
1.578125,-514.21,-2.7,126.03,-514.17,-50.41,63.76,-514.21,-514.21,28.13,-514.21,-514.57,-265.52454545454543
1.59375,-478.67,-15.9,114.08,-478.66,-24.44,73.31,-478.67,-478.67,23.52,-478.67,-479.1,-245.62454545454545
1.609375,-433.88,-26.92,104.79,-433.93,-0.21,78.82,-433.88,-433.88,16.14,-433.88,-434.32,-221.01363636363638
1.625,-382.45,-35.61,96.37,-382.59,20.29,77.72,-382.45,-382.45,6.32,-382.45,-382.88,-193.6527272727273
1.640625,-327.02,-41.8,86.84,-327.27,36.21,69.21,-327.02,-327.02,-5.38,-327.02,-327.44,-165.24636363636364
1.65625,-269.84,-45.28,75.03,-270.18,47.56,55.31,-269.84,-269.84,-17.92,-269.84,-270.27,-136.8281818181818
1.671875,-212.63,-45.92,60.87,-213.03,54.87,40.23,-212.63,-212.63,-29.88,-212.63,-213.11,-108.77181818181818
1.6875,-156.66,-43.99,45.28,-157.08,58.82,28.27,-156.66,-156.66,-39.65,-156.66,-157.23,-81.11090909090909
1.703125,-102.95,-40.27,29.32,-103.36,60.07,21.91,-102.95,-102.95,-45.88,-102.95,-103.63,-53.96727272727273
1.71875,-52.37,-35.98,13.62,-52.77,59.25,20.98,-52.37,-52.37,-47.85,-52.37,-53.14,-27.76090909090909
1.734375,-5.9,-32.38,-1.96,-6.32,56.96,22.54,-5.9,-5.9,-45.71,-5.9,-6.71,-3.38
1.75,35.58,-30.29,-18.02,35.12,53.86,23.66,35.58,35.58,-40.44,35.58,34.78,18.27181818181818
1.765625,71.43,-29.82,-35.17,70.88,50.63,22.77,71.43,71.43,-33.56,71.43,70.67,36.55636363636364
1.78125,101.35,-30.36,-53.73,100.71,47.98,20.02,101.35,101.35,-26.66,101.35,100.63,51.27181818181817
1.796875,125.5,-30.94,-73.74,124.78,46.57,16.8,125.5,125.5,-21.0,125.5,124.73,62.654545454545456
1.8125,144.38,-30.67,-95.33,143.61,46.78,14.58,144.38,144.38,-17.16,144.38,143.47,71.16363636363636
1.828125,158.69,-29.22,-118.77,157.93,48.62,14.09,158.69,158.69,-15.02,158.69,157.54,77.26636363636364
1.84375,169.15,-26.85,-144.29,168.42,51.69,14.78,169.15,169.15,-14.0,169.15,167.72,81.27909090909091
1.859375,176.37,-24.39,-171.64,175.64,55.26,15.35,176.37,176.37,-13.45,176.37,174.71,83.36
1.875,180.75,-22.89,-199.66,179.96,58.53,14.07,180.75,180.75,-13.07,180.75,178.97,83.53727272727272
1.890625,182.57,-23.25,-226.43,181.64,60.94,10.37,182.57,182.57,-13.05,182.57,180.82,81.93818181818182
1.90625,182.07,-25.87,-249.87,180.91,62.24,4.91,182.07,182.07,-13.86,182.07,180.42,78.83272727272727
1.921875,179.51,-30.28,-268.68,178.1,62.46,-0.86,179.51,179.51,-16.01,179.51,177.92,74.60818181818182
1.9375,175.23,-34.97,-282.96,173.64,61.78,-5.48,175.23,175.23,-19.69,175.23,173.53,69.70636363636363
1.953125,169.65,-37.51,-294.16,167.98,60.31,-8.03,169.65,169.65,-24.62,169.65,167.55,64.55636363636364
1.96875,163.18,-35.13,-304.32,161.54,58.02,-8.47,163.18,163.18,-30.21,163.18,160.43,59.50727272727274
1.984375,156.15,-25.53,-314.89,154.6,54.78,-7.49,156.15,156.15,-35.71,156.15,152.65,54.81909090909092
2.0,148.81,-7.85,-325.75,147.28,50.47,-5.98,148.81,148.81,-40.45,148.81,144.67,50.693636363636365
2.015625,141.3,16.86,-334.97,139.61,45.08,-4.74,141.3,141.3,-43.88,141.3,136.82,47.27090909090909
2.03125,133.69,45.82,-339.24,131.59,38.82,-3.79,133.69,133.69,-45.57,133.69,129.21,44.690909090909095
2.046875,126.02,75.36,-335.01,123.3,32.07,-2.49,126.02,126.02,-45.22,126.02,121.75,43.07636363636364
2.0625,118.33,102.03,-319.73,114.92,25.26,-0.13,118.33,118.33,-42.79,118.33,114.21,42.46272727272728
2.078125,110.69,123.48,-292.85,106.71,18.77,3.59,110.69,110.69,-38.66,110.69,106.35,42.74090909090909
2.09375,103.16,138.8,-256.26,98.88,12.78,8.16,103.16,103.16,-33.61,103.16,98.04,43.584545454545456
2.109375,95.8,148.21,-213.85,91.53,7.33,12.32,95.8,95.8,-28.71,95.8,89.41,44.49454545454546
2.125,88.68,152.48,-170.31,84.57,2.29,14.51,88.68,88.68,-24.98,88.68,80.78,44.91454545454546
2.140625,81.83,152.36,-129.69,77.79,-2.52,13.63,81.83,81.83,-23.03,81.83,72.62,44.40727272727273
2.15625,75.25,148.4,-94.27,70.92,-7.3,9.56,75.25,75.25,-22.92,75.25,65.28,42.78818181818181
2.171875,68.95,141.07,-64.36,63.84,-12.25,3.66,68.95,68.95,-24.18,68.95,58.89,40.22454545454545
2.1875,62.95,130.97,-39.05,56.63,-17.55,-1.6,62.95,62.95,-26.12,62.95,53.23,37.11909090909091
2.203125,57.25,118.95,-17.31,49.57,-23.31,-3.38,57.25,57.25,-28.09,57.25,47.84,33.93363636363636
2.21875,51.86,106.03,1.11,43.03,-29.54,0.51,51.86,51.86,-29.75,51.86,42.2,31.00272727272727
2.234375,46.78,93.15,15.61,37.32,-36.09,10.91,46.78,46.78,-31.08,46.78,35.99,28.448181818181823
2.25,42.03,80.96,25.39,32.47,-42.66,26.97,42.03,42.03,-32.33,42.03,29.26,26.198181818181812
2.265625,37.59,69.69,30.38,28.25,-48.93,46.47,37.59,37.59,-33.78,37.59,22.44,24.08
2.28125,33.45,59.38,31.73,24.21,-54.76,66.48,33.45,33.45,-35.62,33.45,16.16,21.943636363636365
2.296875,29.61,50.1,31.42,19.91,-60.29,84.08,29.61,29.61,-37.87,29.61,10.94,19.702727272727273
2.3125,26.07,42.12,31.43,15.14,-66.04,96.96,26.07,26.07,-40.35,26.07,6.99,17.32090909090909
2.328125,22.81,35.92,32.77,10.0,-72.77,103.81,22.81,22.81,-42.75,22.81,4.09,14.755454545454546
2.34375,19.83,31.96,35.08,4.93,-81.33,104.25,19.83,19.83,-44.69,19.83,1.71,11.93
2.359375,17.11,30.4,37.1,0.46,-92.17,98.66,17.11,17.11,-45.74,17.11,-0.76,8.762727272727272
2.375,14.67,30.79,37.41,-3.06,-105.07,87.91,14.67,14.67,-45.55,14.67,-3.89,5.201818181818183
2.390625,12.48,32.18,35.2,-5.59,-118.73,73.08,12.48,12.48,-43.8,12.48,-8.07,1.2899999999999994
2.40625,10.54,33.3,30.63,-7.41,-130.84,55.35,10.54,10.54,-40.37,10.54,-13.44,-2.783636363636364
2.421875,8.83,32.99,24.49,-9.0,-138.46,35.91,8.83,8.83,-35.3,8.83,-19.68,-6.702727272727274
2.4375,7.35,30.53,17.71,-10.8,-138.85,15.98,7.35,7.35,-28.93,7.35,-25.79,-10.068181818181815
2.453125,6.07,25.75,10.95,-13.1,-130.38,-3.25,6.07,6.07,-21.69,6.07,-30.03,-12.497272727272728
2.46875,4.97,19.03,4.44,-16.08,-113.17,-20.68,4.97,4.97,-14.06,4.97,-30.32,-13.723636363636365
2.484375,4.05,11.09,-1.89,-19.86,-89.18,-35.76,4.05,4.05,-6.49,4.05,-25.07,-13.723636363636365
2.5,3.27,2.68,-8.1,-24.32,-61.67,-48.52,3.27,3.27,0.66,3.27,-14.06,-12.75
2.515625,2.62,-5.72,-14.11,-28.85,-34.19,-59.67,2.62,2.62,7.02,2.62,1.08,-11.26909090909091
2.53125,2.09,-14.05,-19.7,-32.16,-9.59,-70.34,2.09,2.09,12.3,2.09,17.31,-9.806363636363635
2.546875,1.65,-22.82,-24.62,-32.43,10.51,-81.47,1.65,1.65,16.31,1.65,31.25,-8.788181818181817
2.5625,1.3,-32.91,-28.78,-28.04,25.8,-93.2,1.3,1.3,19.09,1.3,40.51,-8.393636363636364
2.578125,1.01,-45.2,-32.29,-18.4,36.9,-104.66,1.01,1.01,21.06,1.01,44.57,-8.543636363636365
2.59375,0.79,-60.07,-35.4,-4.57,44.73,-114.17,0.79,0.79,22.85,0.79,44.55,-8.992727272727276
2.609375,0.61,-76.84,-38.33,10.94,50.14,-119.87,0.61,0.61,25.03,0.61,42.42,-9.46090909090909
2.625,0.48,-93.58,-41.17,25.03,53.73,-120.34,0.48,0.47,27.75,0.47,39.74,-9.72181818181818
2.640625,0.37,-107.28,-43.72,35.3,55.85,-115.03,0.37,0.37,30.63,0.37,37.18,-9.599090909090906
2.65625,0.29,-114.6,-45.46,40.8,56.78,-104.43,0.3,0.29,32.92,0.28,34.55,-8.934545454545455
2.671875,0.24,-112.73,-45.71,42.14,56.86,-90.03,0.25,0.23,33.84,0.23,31.43,-7.568181818181818
2.6875,0.2,-100.32,-43.7,40.81,56.51,-74.2,0.21,0.19,33.01,0.18,27.8,-5.391818181818181
2.703125,0.18,-78.01,-38.92,38.2,56.16,-59.89,0.19,0.16,30.57,0.15,24.17,-2.458181818181819
2.71875,0.17,-48.21,-31.35,35.05,56.12,-50.02,0.19,0.14,27.12,0.13,21.22,0.9599999999999991
2.734375,0.17,-14.58,-21.64,31.45,56.47,-46.71,0.19,0.14,23.33,0.13,19.3,4.386363636363636
2.75,0.19,18.95,-11.07,27.4,57.14,-50.38,0.21,0.15,19.67,0.13,18.26,7.331818181818182
2.765625,0.21,48.98,-1.2,23.36,57.89,-59.42,0.23,0.16,16.27,0.14,17.66,9.479999999999999
2.78125,0.24,73.25,6.58,20.28,58.56,-70.58,0.26,0.18,12.99,0.16,17.1,10.819999999999999
2.796875,0.27,90.74,11.48,19.1,59.17,-80.16,0.3,0.21,9.57,0.18,16.47,11.575454545454546
2.8125,0.3,101.5,13.54,20.12,59.81,-85.39,0.34,0.24,5.81,0.21,15.92,12.036363636363633
2.828125,0.35,106.3,13.53,22.62,60.6,-85.46,0.38,0.28,1.58,0.24,15.6,12.365454545454543
2.84375,0.39,106.27,12.59,25.08,61.44,-81.5,0.42,0.32,-3.26,0.28,15.43,12.496363636363634
2.859375,0.43,102.6,11.75,25.86,61.98,-75.78,0.47,0.36,-8.83,0.32,15.13,12.208181818181817
2.875,0.48,96.44,11.58,23.98,61.75,-70.47,0.51,0.4,-15.17,0.36,14.38,11.294545454545455
2.890625,0.52,88.75,12.03,19.64,60.33,-66.74,0.56,0.45,-22.1,0.41,13.17,9.729090909090909
2.90625,0.57,80.35,12.65,14.06,57.57,-64.66,0.61,0.49,-29.02,0.46,11.72,7.709090909090909
2.921875,0.62,71.93,12.9,8.97,53.65,-63.79,0.67,0.54,-34.9,0.5,10.37,5.587272727272728
2.9375,0.68,64.08,12.58,5.78,49.0,-63.93,0.72,0.59,-38.53,0.55,9.3,3.710909090909091
2.953125,0.74,57.2,11.94,5.05,44.04,-65.4,0.79,0.65,-38.88,0.6,8.42,2.286363636363637
2.96875,0.8,51.46,11.65,6.42,39.01,-68.67,0.85,0.7,-35.58,0.66,7.47,1.3427272727272728
2.984375,0.87,46.69,12.53,8.86,33.91,-73.68,0.92,0.76,-29.12,0.71,6.34,0.7990909090909071
3.0,0.94,42.34,15.12,11.28,28.56,-79.29,1.0,0.83,-20.75,0.77,5.12,0.5381818181818183
3.015625,1.02,37.69,19.45,12.89,22.84,-83.32,1.09,0.9,-12.09,0.84,4.08,0.49000000000000216
3.03125,1.11,32.07,24.92,13.43,16.78,-83.32,1.19,0.97,-4.59,0.91,3.49,0.6327272727272732
3.046875,1.21,25.08,30.47,13.04,10.63,-77.73,1.3,1.06,0.9,0.99,3.25,0.9272727272727262
3.0625,1.33,16.85,34.86,12.01,4.72,-66.54,1.42,1.16,4.28,1.07,3.02,1.2890909090909082
3.078125,1.45,7.99,36.93,10.64,-0.73,-51.3,1.56,1.26,6.07,1.17,2.32,1.5781818181818184
3.09375,1.59,-0.4,35.93,9.09,-5.76,-34.24,1.71,1.38,7.04,1.28,0.91,1.6845454545454543
3.109375,1.75,-7.03,31.63,7.44,-10.65,-17.3,1.89,1.51,7.86,1.4,-1.06,1.585454545454545
3.125,1.93,-10.61,24.37,5.64,-15.8,-1.51,2.08,1.66,8.87,1.54,-3.15,1.3654545454545453
3.140625,2.13,-10.28,15.05,3.77,-21.5,12.93,2.29,1.83,10.08,1.68,-4.73,1.2045454545454546
3.15625,2.34,-5.93,4.95,1.91,-27.73,26.08,2.53,2.01,11.24,1.85,-5.35,1.2636363636363637
3.171875,2.59,1.6,-4.57,0.2,-34.17,37.7,2.79,2.22,12.01,2.04,-4.9,1.5918181818181816
3.1875,2.85,10.48,-12.37,-1.21,-40.4,47.15,3.08,2.45,12.22,2.25,-3.61,2.0809090909090915
3.203125,3.15,18.29,-17.83,-2.25,-46.09,53.76,3.4,2.7,11.96,2.5,-1.97,2.5109090909090908
3.21875,3.47,22.6,-21.04,-2.89,-51.22,57.36,3.75,2.98,11.55,2.77,-0.56,2.6154545454545457
3.234375,3.83,21.67,-22.63,-3.19,-56.12,58.57,4.13,3.29,11.45,3.07,0.2,2.2063636363636365
3.25,4.22,15.11,-23.63,-3.22,-61.37,58.5,4.55,3.62,12.13,3.38,0.12,1.2190909090909092
3.265625,4.65,4.05,-25.12,-3.06,-67.7,58.1,5.0,3.99,13.91,3.68,-0.68,-0.2890909090909094
3.28125,5.11,-8.96,-27.95,-2.74,-75.77,57.79,5.49,4.41,16.89,3.99,-1.81,-2.14090909090909
3.296875,5.61,-20.65,-32.66,-2.26,-85.95,57.62,6.02,4.87,20.9,4.31,-2.8,-4.09
3.3125,6.14,-27.78,-39.28,-1.55,-97.98,57.77,6.58,5.36,25.58,4.66,-3.28,-5.798181818181818
3.328125,6.72,-28.08,-47.26,-0.57,-110.69,59.0,7.19,5.87,30.43,5.06,-3.15,-6.8618181818181805
3.34375,7.34,-20.66,-55.44,0.62,-121.91,62.76,7.84,6.38,34.9,5.53,-2.54,-6.834545454545454
3.359375,8.0,-6.2,-62.22,1.85,-128.85,70.68,8.54,6.9,38.53,6.08,-1.78,-5.315454545454544
3.375,8.7,13.37,-65.86,2.83,-128.88,83.96,9.28,7.41,41.06,6.69,-1.17,-2.0554545454545448
3.390625,9.44,35.44,-65.03,3.34,-120.43,102.54,10.06,7.96,42.43,7.33,-0.87,2.928181818181818
3.40625,10.24,57.3,-59.4,3.27,-103.72,124.91,10.89,8.57,42.72,7.99,-0.8,9.27
3.421875,11.1,76.56,-49.83,2.8,-80.84,148.56,11.77,9.26,42.1,8.65,-0.71,16.31090909090909
3.4375,12.0,91.36,-38.25,2.23,-55.01,170.87,12.69,10.05,40.7,9.32,-0.39,23.233636363636368
3.453125,12.95,100.48,-26.94,1.91,-29.67,189.78,13.66,10.92,38.63,10.04,0.29,29.277272727272734
3.46875,13.92,103.32,-17.77,2.06,-7.34,204.06,14.69,11.84,36.04,10.82,1.21,33.89545454545454
3.484375,14.92,99.96,-11.62,2.68,10.75,213.11,15.78,12.76,33.13,11.69,2.21,36.85181818181818
3.5,15.93,91.18,-8.23,3.63,24.6,216.72,16.93,13.7,30.21,12.67,3.09,38.22090909090909
3.515625,16.96,78.49,-6.56,4.69,34.97,215.21,18.15,14.64,27.54,13.72,3.81,38.329090909090915
3.53125,18.04,63.92,-5.45,5.73,42.76,209.22,19.41,15.63,25.27,14.8,4.47,37.61818181818182
3.546875,19.18,49.66,-4.16,6.68,48.7,199.52,20.71,16.7,23.26,15.87,5.28,36.49090909090909
3.5625,20.36,37.62,-2.53,7.57,53.25,187.0,21.96,17.87,21.14,16.86,6.41,35.22818181818182
3.578125,21.56,28.99,-0.84,8.49,56.69,172.78,23.13,19.13,18.51,17.81,7.93,34.016363636363636
3.59375,22.68,23.93,0.53,9.43,59.25,157.91,24.12,20.41,15.13,18.74,9.8,32.902727272727276
3.609375,23.58,21.54,1.37,10.36,61.13,143.11,24.8,21.6,11.05,19.68,11.82,31.821818181818184
3.625,24.1,20.05,1.75,11.22,62.53,128.3,25.06,22.52,6.58,20.65,13.82,30.598181818181818
3.640625,24.1,17.41,1.86,11.91,63.65,112.84,24.79,23.06,2.19,21.59,15.61,29.00090909090909
3.65625,23.47,11.92,1.86,12.3,64.62,96.37,23.87,23.09,-1.77,22.32,16.98,26.820909090909094
3.671875,22.11,2.84,1.76,12.24,65.59,78.69,22.24,22.55,-5.19,22.58,17.73,23.921818181818182
3.6875,20.05,-9.3,1.5,11.61,66.59,59.66,19.9,21.46,-8.23,22.15,17.63,20.274545454545457
3.703125,17.3,-22.97,1.09,10.3,67.61,39.17,16.86,19.81,-11.24,20.83,16.56,15.938181818181818
3.71875,13.93,-36.29,0.64,8.31,68.6,17.71,13.19,17.59,-14.63,18.59,14.49,11.102727272727273
3.734375,9.98,-47.81,0.39,5.82,69.5,-3.83,9.05,14.73,-18.8,15.52,11.66,6.019090909090909
3.75,5.57,-57.14,0.46,2.93,70.29,-24.23,4.6,11.18,-24.03,11.85,8.27,0.8863636363636366
3.765625,0.84,-65.15,0.77,-0.13,70.97,-42.67,0.06,6.85,-30.35,7.78,4.62,-4.21909090909091
3.78125,-4.03,-73.57,1.06,-3.14,71.46,-58.66,-4.37,1.86,-37.47,3.48,0.99,-9.308181818181819
3.796875,-8.81,-84.57,0.97,-5.92,71.59,-71.02,-8.46,-3.55,-44.65,-1.01,-2.47,-14.354545454545452
3.8125,-13.22,-100.09,0.26,-8.38,71.02,-78.27,-12.03,-8.98,-50.74,-5.73,-5.7,-19.259999999999998
3.828125,-17.01,-121.4,-1.05,-10.54,69.37,-79.34,-14.94,-13.99,-54.45,-10.75,-8.62,-23.883636363636366
3.84375,-19.98,-148.56,-2.74,-12.46,66.38,-74.84,-17.12,-18.19,-54.72,-16.0,-11.13,-28.123636363636365
3.859375,-22.06,-180.16,-4.53,-14.23,62.06,-66.88,-18.53,-21.4,-51.15,-21.24,-13.1,-31.929090909090906
3.875,-23.35,-213.27,-6.17,-15.87,56.7,-58.98,-19.23,-23.7,-44.2,-26.04,-14.39,-35.31818181818182
3.890625,-24.06,-243.96,-7.58,-17.28,50.79,-54.86,-19.32,-25.4,-35.04,-29.93,-14.98,-38.329090909090915
3.90625,-24.46,-268.23,-8.78,-18.24,44.84,-57.51,-18.91,-26.87,-25.2,-32.56,-14.96,-40.989090909090905
3.921875,-24.75,-283.07,-9.86,-18.44,39.15,-70.46,-18.12,-28.37,-16.03,-33.86,-14.52,-43.48454545454546
3.9375,-24.99,-287.27,-10.89,-17.62,33.74,-92.89,-17.03,-29.93,-8.3,-34.12,-13.92,-45.74727272727273
3.953125,-25.12,-281.56,-11.99,-15.71,28.38,-119.75,-15.72,-31.33,-2.13,-33.9,-13.36,-47.47181818181818
3.96875,-24.96,-268.04,-13.25,-12.85,22.82,-145.63,-14.25,-32.19,2.9,-33.83,-12.88,-48.37818181818182
3.984375,-24.36,-249.31,-14.71,-9.45,16.92,-169.6,-12.65,-32.22,7.37,-34.34,-12.44,-48.617272727272734
4.0,-23.31,-227.84,-16.19,-6.03,10.82,-193.73,-10.98,-31.39,11.7,-35.5,-11.94,-48.5809090909091
4.015625,-22.0,-205.54,-17.26,-3.15,4.82,-221.86,-9.27,-30.03,16.01,-36.99,-11.31,-48.779999999999994
4.03125,-20.79,-183.93,-17.29,-1.18,-0.73,-252.96,-7.61,-28.75,20.14,-38.27,-10.61,-49.27090909090909
4.046875,-20.06,-164.2,-15.61,-0.25,-5.7,-282.23,-6.04,-28.14,23.79,-38.84,-9.95,-49.74818181818182
4.0625,-20.02,-147.15,-11.86,-0.26,-10.22,-304.15,-4.55,-28.58,26.82,-38.47,-9.45,-49.808181818181815
4.078125,-20.64,-133.06,-6.19,-0.94,-14.61,-314.97,-3.11,-29.99,29.37,-37.33,-9.14,-49.14636363636364
4.09375,-21.56,-121.53,0.76,-1.95,-19.18,-315.2,-1.63,-31.83,31.83,-35.89,-8.95,-47.73909090909092
4.109375,-22.28,-111.57,8.07,-3.02,-24.11,-304.92,-0.05,-33.4,34.64,-34.86,-8.72,-45.474545454545456
4.125,-22.42,-101.97,14.85,-3.97,-29.29,-288.39,1.66,-34.11,38.11,-34.94,-8.31,-42.61636363636364
4.140625,-21.86,-91.76,20.59,-4.77,-34.47,-269.76,3.52,-33.74,42.18,-36.69,-7.68,-39.49454545454546
4.15625,-20.92,-80.48,25.13,-5.44,-39.41,-251.22,5.52,-32.57,46.49,-40.32,-6.91,-36.375454545454545
4.171875,-20.18,-68.21,28.64,-6.0,-44.08,-232.36,7.49,-31.2,50.52,-45.28,-6.19,-33.349999999999994
4.1875,-20.29,-55.43,31.31,-6.45,-48.74,-211.46,9.32,-30.36,53.86,-50.17,-5.7,-30.373636363636365
4.203125,-21.62,-42.72,33.24,-6.69,-53.82,-186.21,11.03,-30.65,56.4,-52.84,-5.48,-27.214545454545455
4.21875,-24.08,-30.59,34.38,-6.58,-59.85,-154.24,12.69,-32.51,58.3,-51.1,-5.49,-23.551818181818177
4.234375,-27.13,-19.23,34.64,-6.06,-67.29,-114.13,14.43,-36.11,59.82,-43.7,-5.59,-19.12272727272728
4.25,-30.01,-8.42,34.08,-5.14,-76.36,-65.9,16.39,-41.05,61.17,-31.15,-5.62,-13.819090909090908
4.265625,-32.09,2.27,33.01,-3.96,-86.86,-11.86,18.64,-46.1,62.31,-15.78,-5.44,-7.8054545454545465
4.28125,-33.09,13.39,31.99,-2.69,-98.06,44.28,21.16,-49.22,63.03,-0.99,-4.97,-1.3790909090909098
4.296875,-33.28,25.12,31.54,-1.48,-108.51,97.57,23.91,-47.99,63.05,10.14,-4.16,5.082727272727271
4.3125,-33.27,37.13,31.94,-0.41,-116.15,142.66,26.49,-40.57,62.2,16.1,-3.0,11.192727272727273
4.328125,-33.74,48.43,33.08,0.53,-118.76,175.19,28.68,-26.71,60.49,17.39,-1.5,16.64363636363636
4.34375,-35.38,57.7,34.53,1.33,-114.54,193.89,30.5,-8.2,58.13,15.97,0.24,21.288181818181815
4.359375,-38.74,63.83,35.75,1.96,-102.85,202.04,32.11,11.44,55.46,14.08,2.06,25.19454545454545
4.375,-44.04,66.41,36.37,2.35,-84.53,206.49,33.84,28.36,52.82,13.1,3.71,28.62545454545455
4.390625,-50.88,66.01,36.36,2.42,-61.8,214.71,35.97,39.7,50.47,13.11,4.93,31.909090909090914
4.40625,-57.91,63.97,35.95,2.17,-37.63,230.89,38.64,44.64,48.46,13.18,5.57,35.26636363636363
4.421875,-62.75,61.76,35.43,1.67,-14.92,254.55,41.77,44.4,46.54,12.2,5.58,38.74818181818182
4.4375,-62.64,60.4,34.89,1.09,4.32,280.71,45.16,41.23,44.32,9.49,5.06,42.18454545454545
4.453125,-55.45,60.03,34.17,0.53,19.24,302.37,48.05,37.35,41.35,5.09,4.2,45.17545454545454
4.46875,-40.77,60.03,32.87,0.05,30.04,313.65,49.99,34.03,37.4,-0.32,3.2,47.288181818181826
4.484375,-20.52,59.47,30.68,-0.37,37.53,312.19,50.95,31.52,32.59,-5.64,2.21,48.23727272727274
4.5,1.54,57.76,27.57,-0.78,42.65,299.62,51.24,29.47,27.38,-9.31,1.32,48.04181818181819
4.515625,21.14,54.94,23.87,-1.19,46.06,279.81,51.42,27.6,22.33,-9.57,0.55,46.99636363636363
4.53125,35.09,51.71,20.05,-1.6,48.13,256.59,51.98,25.96,17.89,-4.83,-0.06,45.53727272727272
4.546875,42.27,49.28,16.54,-2.01,49.01,232.07,53.15,24.86,14.05,5.73,-0.53,44.03818181818182
4.5625,43.7,48.98,13.51,-2.45,48.85,207.13,54.74,24.53,10.44,21.55,-0.84,42.74
4.578125,41.64,52.06,10.8,-2.95,47.91,182.4,56.36,24.84,6.41,40.47,-0.97,41.724545454545456
4.59375,38.42,59.24,8.08,-3.51,46.61,158.94,56.75,25.3,1.33,59.17,-0.9,40.857272727272736
4.609375,35.72,70.42,4.97,-4.09,45.42,138.04,55.14,25.25,-5.18,74.17,-0.65,39.92818181818182
4.625,34.22,84.32,1.23,-4.61,44.66,120.83,51.29,24.14,-13.17,83.0,-0.25,38.696363636363635
4.640625,34.05,98.53,-3.25,-5.02,44.48,107.65,45.39,21.82,-22.32,85.03,0.22,36.96181818181819
4.65625,35.13,109.86,-8.39,-5.34,44.8,97.77,37.79,18.6,-31.94,81.28,0.66,34.56545454545455
4.671875,37.51,115.15,-13.94,-5.63,45.46,89.58,28.64,15.13,-40.96,73.8,1.02,31.432727272727274
4.6875,41.18,112.21,-19.42,-5.99,46.32,80.93,17.36,12.1,-47.97,64.75,1.21,27.516363636363636
4.703125,45.91,100.36,-24.17,-6.47,47.32,70.13,2.21,9.91,-51.44,55.63,1.22,22.78272727272727
4.71875,51.16,80.34,-27.34,-7.11,48.46,56.44,-14.59,8.51,-50.14,47.17,1.04,17.630909090909093
4.734375,55.54,53.72,-28.2,-7.79,49.66,40.31,-33.19,7.42,-43.66,39.61,0.68,12.190909090909088
4.75,57.92,22.22,-26.35,-8.52,50.66,23.14,-54.23,5.86,-32.66,33.13,0.16,6.4845454545454535
4.765625,57.72,-12.58,-21.92,-9.42,51.12,6.72,-78.47,3.56,-18.92,27.63,-0.49,0.44999999999999946
4.78125,55.09,-48.81,-15.57,-10.66,50.62,-7.54,-106.34,0.28,-4.72,23.61,-1.28,-5.9381818181818184
4.796875,50.84,-83.79,-8.32,-12.42,48.93,-19.17,-137.36,-3.85,7.83,21.49,-2.18,-12.545454545454545
4.8125,46.09,-113.81,-1.18,-14.74,46.02,-28.7,-169.55,-8.52,17.49,21.4,-3.16,-18.969090909090912
4.828125,41.84,-134.83,5.21,-17.49,42.08,-37.32,-199.26,-13.34,24.16,22.95,-4.14,-24.55818181818182
4.84375,38.62,-143.75,10.64,-20.28,37.43,-46.09,-221.83,-18.03,28.63,25.41,-5.02,-28.569999999999997
4.859375,36.31,-139.8,15.31,-22.58,32.4,-55.34,-232.87,-22.43,32.03,27.86,-5.73,-30.44
4.875,34.34,-125.13,19.56,-23.75,27.26,-64.51,-230.59,-26.28,35.23,29.61,-6.24,-30.045454545454547
4.890625,32.05,-104.16,23.59,-23.26,22.26,-72.54,-215.85,-29.21,38.54,30.43,-6.61,-27.705454545454543
4.90625,29.05,-81.98,27.31,-20.87,17.54,-78.5,-192.13,-30.59,41.71,30.46,-6.95,-24.08636363636364
4.921875,25.38,-62.58,30.42,-16.67,13.22,-82.1,-164.31,-29.79,44.27,30.15,-7.42,-19.948181818181816
4.9375,21.55,-47.55,32.63,-11.18,9.34,-83.9,-136.98,-26.38,45.88,29.64,-8.1,-15.913636363636362
4.953125,18.29,-36.1,33.87,-5.08,5.81,-84.88,-113.11,-20.4,46.6,28.59,-8.91,-12.30181818181818
4.96875,16.25,-25.94,34.38,0.94,2.44,-85.95,-93.62,-12.44,46.81,26.2,-9.65,-9.143636363636363
4.984375,15.67,-14.75,34.56,6.36,-1.04,-87.37,-77.92,-3.54,47.05,21.56,-10.02,-6.3127272727272725
5.0,16.23,-1.15,34.75,10.98,-4.93,-88.57,-64.87,5.09,47.68,14.1,-9.79,-3.6799999999999997
5.015625,17.19,14.89,35.04,14.74,-9.48,-88.38,-54.09,12.49,48.79,4.07,-8.84,-1.2345454545454553
5.03125,17.69,32.42,35.23,17.64,-14.75,-85.53,-45.46,18.14,50.17,-7.46,-7.22,0.9881818181818179
5.046875,17.13,50.13,34.96,19.66,-20.6,-79.16,-38.98,22.02,51.49,-18.86,-5.07,2.974545454545457
5.0625,15.29,66.98,34.02,20.75,-26.69,-69.14,-34.42,24.37,52.49,-28.58,-2.56,4.773636363636367
5.078125,12.49,82.31,32.42,20.92,-32.61,-56.07,-31.25,25.52,53.07,-35.78,0.18,6.472727272727272
5.09375,9.38,95.77,30.5,20.33,-38.03,-41.04,-28.87,25.66,53.32,-40.63,3.03,8.129090909090907
5.109375,6.63,106.96,28.7,19.24,-42.84,-25.15,-26.86,24.87,53.37,-44.18,5.84,9.689090909090906
5.125,4.62,115.23,27.33,17.91,-47.24,-9.31,-25.12,23.2,53.35,-47.93,8.4,10.94909090909091
5.140625,3.27,119.69,26.5,16.59,-51.74,5.93,-23.76,20.8,53.22,-53.35,10.47,11.601818181818182
5.15625,2.04,119.4,25.99,15.38,-56.99,20.29,-23.31,18.0,52.85,-61.38,11.85,11.283636363636363
5.171875,0.23,113.55,25.46,14.32,-63.63,33.54,-23.92,15.24,52.06,-72.26,12.42,9.728181818181817
5.1875,-2.74,101.55,24.53,13.46,-72.08,45.42,-25.45,12.92,50.68,-85.33,12.24,6.836363636363638
5.203125,-7.05,82.93,22.98,12.86,-82.26,55.59,-27.54,11.27,48.64,-98.91,11.49,2.7272727272727293
5.21875,-12.44,57.3,20.83,12.57,-93.36,63.79,-29.94,10.25,46.0,-110.42,10.43,-2.2718181818181833
5.234375,-18.24,24.55,18.26,12.66,-103.84,69.85,-32.64,9.68,42.98,-116.74,9.27,-7.655454545454546
5.25,-23.67,-14.66,15.59,13.08,-111.56,73.77,-36.08,9.21,39.86,-114.91,8.2,-12.833636363636366
5.265625,-28.03,-58.29,13.06,13.75,-114.26,75.67,-40.88,8.52,36.94,-103.19,7.31,-17.218181818181815
5.28125,-31.05,-102.65,10.79,14.55,-110.24,75.69,-47.52,7.32,34.33,-81.85,6.59,-20.36727272727273
5.296875,-32.92,-142.98,8.72,15.4,-98.93,73.91,-55.97,5.46,31.86,-53.33,5.98,-22.07272727272727
5.3125,-34.42,-174.64,6.65,16.21,-81.17,70.4,-65.17,2.88,29.14,-21.69,5.42,-22.399090909090912
5.328125,-36.74,-194.77,4.34,16.9,-58.99,65.32,-72.99,-0.29,25.69,8.69,4.84,-21.63636363636364
5.34375,-41.36,-203.39,1.64,17.38,-35.01,58.96,-76.8,-3.89,21.23,34.37,4.28,-20.23545454545454
5.359375,-49.58,-203.46,-1.52,17.54,-11.71,51.74,-74.3,-7.68,15.81,53.63,3.84,-18.699090909090913
5.375,-61.93,-199.75,-5.19,17.22,9.08,44.06,-64.42,-11.45,9.85,66.4,3.6,-17.50272727272727
5.390625,-77.63,-197.1,-9.39,16.33,26.41,36.2,-47.85,-15.08,3.95,73.65,3.57,-16.994545454545456
5.40625,-94.3,-198.93,-14.12,14.89,40.08,28.22,-26.76,-18.52,-1.37,76.51,3.61,-17.33545454545455
5.421875,-108.28,-206.53,-19.25,13.03,50.26,20.0,-4.16,-21.8,-5.96,75.81,3.47,-18.491818181818182
5.4375,-115.51,-219.44,-24.39,10.94,57.34,11.34,17.22,-25.01,-10.03,72.15,2.92,-20.224545454545453
5.453125,-112.8,-236.1,-28.79,8.82,61.64,2.01,35.63,-28.28,-14.14,66.27,1.86,-22.170909090909092
5.46875,-98.92,-254.65,-31.54,6.82,63.57,-8.15,50.57,-31.88,-18.91,59.37,0.37,-23.940909090909088
5.484375,-75.1,-273.15,-31.76,4.96,63.6,-19.23,62.43,-36.06,-24.91,53.08,-1.29,-25.220909090909096
5.5,-44.73,-289.55,-29.05,3.18,62.4,-31.1,71.92,-40.94,-32.46,48.93,-2.83,-25.839090909090906
5.515625,-12.26,-301.76,-23.6,1.38,60.73,-43.37,79.48,-46.31,-41.59,47.83,-4.05,-25.774545454545464
5.53125,18.01,-307.97,-16.23,-0.5,59.32,-55.41,85.18,-51.45,-51.91,49.56,-4.95,-25.122727272727275
5.546875,42.99,-307.28,-8.06,-2.49,58.78,-66.47,88.87,-55.25,-62.55,52.88,-5.66,-24.021818181818183
5.5625,61.14,-300.08,-0.14,-4.52,59.34,-75.94,90.48,-56.44,-72.14,56.05,-6.39,-22.603636363636358
5.578125,72.36,-288.07,6.85,-6.48,60.89,-83.61,90.3,-54.13,-79.01,57.61,-7.25,-20.958181818181814
5.59375,77.33,-273.48,12.72,-8.29,62.99,-89.65,88.97,-48.12,-81.61,56.93,-8.25,-19.132727272727276
5.609375,77.02,-258.27,17.68,-9.89,65.08,-94.46,87.23,-39.05,-79.01,54.34,-9.3,-17.148181818181822
5.625,72.32,-243.32,21.99,-11.33,66.64,-98.35,85.69,-28.23,-71.23,50.71,-10.25,-15.032727272727271
5.640625,64.04,-228.37,25.82,-12.7,67.39,-101.28,84.55,-17.11,-59.36,46.85,-10.97,-12.83090909090909
5.65625,53.13,-212.44,29.11,-14.1,67.3,-102.88,83.61,-6.84,-45.2,42.88,-11.36,-10.617272727272727
5.671875,40.74,-194.49,31.69,-15.64,66.47,-102.74,82.45,2.03,-30.77,38.11,-11.31,-8.496363636363634
5.6875,28.29,-173.98,33.43,-17.39,65.0,-100.82,80.72,9.43,-17.69,31.39,-10.72,-6.576363636363635
5.703125,17.21,-150.94,34.32,-19.36,62.86,-97.61,78.33,15.6,-6.88,21.75,-9.49,-4.928181818181817
5.71875,8.63,-125.75,34.55,-21.54,59.96,-94.01,75.54,20.66,1.49,9.04,-7.6,-3.5481818181818197
5.734375,3.16,-98.83,34.4,-23.82,56.19,-90.98,72.78,24.53,7.87,-5.82,-5.17,-2.335454545454546
5.75,0.88,-70.63,34.09,-25.92,51.54,-88.96,70.38,27.0,12.92,-21.07,-2.42,-1.108181818181818
5.765625,1.51,-41.87,33.72,-27.44,46.16,-87.73,68.33,27.91,17.26,-34.79,0.37,0.3118181818181814
5.78125,4.6,-13.91,33.28,-27.85,40.31,-86.37,66.25,27.42,21.23,-45.63,2.97,2.0272727272727264
5.796875,9.74,11.19,32.69,-26.69,34.26,-83.73,63.51,25.98,24.89,-53.35,5.29,3.9799999999999986
5.8125,16.55,31.08,31.96,-23.76,28.19,-78.93,59.52,24.22,28.15,-58.84,7.28,5.947272727272726
5.828125,24.59,43.92,31.14,-19.21,22.23,-71.66,54.06,22.64,30.95,-63.84,8.94,7.614545454545453
5.84375,33.23,49.12,30.35,-13.51,16.41,-62.27,47.33,21.48,33.41,-70.33,10.21,8.675454545454546
5.859375,41.68,47.76,29.69,-7.31,10.82,-51.52,39.93,20.64,35.79,-79.8,10.98,8.969090909090909
5.875,49.15,42.07,29.09,-1.27,5.57,-40.24,32.62,19.84,38.33,-92.74,11.17,8.508181818181816
5.890625,54.94,34.59,28.38,4.15,0.76,-29.08,25.99,18.84,41.13,-108.16,10.81,7.486363636363635
5.90625,58.66,27.12,27.33,8.68,-3.52,-18.43,20.26,17.53,43.98,-123.63,10.02,6.181818181818181
5.921875,60.22,20.2,25.77,12.23,-7.38,-8.55,15.23,15.92,46.5,-135.65,9.0,4.862727272727271
5.9375,59.76,13.14,23.7,14.78,-11.06,0.38,10.38,14.05,48.34,-140.52,7.91,3.714545454545453
5.953125,57.69,4.73,21.33,16.37,-14.94,8.18,5.14,11.93,49.38,-135.43,6.86,2.8399999999999994
5.96875,54.6,-6.22,18.96,17.09,-19.35,14.78,-0.93,9.44,49.78,-119.47,5.88,2.2327272727272733
5.984375,51.14,-20.37,16.85,17.09,-24.42,20.24,-7.93,6.5,49.86,-94.15,4.98,1.799090909090908
6.0,47.9,-37.78,15.12,16.58,-30.01,24.78,-15.63,3.11,49.9,-63.0,4.2,1.379090909090909
6.015625,45.2,-57.94,13.64,15.75,-35.74,28.65,-23.54,-0.59,49.94,-30.57,3.64,0.7672727272727277
6.03125,42.95,-79.74,12.17,14.78,-41.2,31.99,-31.12,-4.33,49.73,-1.01,3.36,-0.22000000000000028
6.046875,40.71,-101.33,10.38,13.73,-46.13,34.79,-37.96,-7.93,48.94,23.08,3.34,-1.670909090909092
6.0625,37.86,-120.29,8.14,12.65,-50.56,36.91,-43.95,-11.34,47.21,40.96,3.42,-3.544545454545455
6.078125,33.94,-133.98,5.46,11.58,-54.88,38.2,-49.34,-14.76,44.42,53.4,3.43,-5.6845454545454555
6.09375,28.86,-140.37,2.58,10.59,-59.77,38.61,-54.73,-18.56,40.67,61.77,3.18,-7.924545454545453
6.109375,22.94,-138.72,-0.25,9.83,-65.95,38.2,-60.99,-23.16,36.28,67.17,2.58,-10.18818181818182
6.125,16.68,-129.83,-2.85,9.43,-74.05,37.06,-68.92,-28.77,31.73,70.12,1.7,-12.51818181818182
6.140625,10.51,-115.74,-5.22,9.45,-84.25,35.31,-78.97,-35.19,27.51,70.68,0.66,-15.02272727272727
6.15625,4.6,-98.97,-7.58,9.85,-95.96,32.95,-90.88,-41.78,23.98,68.97,-0.4,-17.747272727272726
6.171875,-1.25,-81.7,-10.23,10.49,-107.62,30.06,-103.39,-47.41,21.26,65.58,-1.37,-20.50727272727273
6.1875,-7.42,-65.26,-13.45,11.16,-116.81,26.85,-114.36,-50.87,19.18,61.68,-2.24,-22.867272727272724
6.203125,-14.3,-50.17,-17.3,11.7,-120.84,23.67,-121.21,-51.14,17.35,58.62,-3.07,-24.24454545454545
6.21875,-22.01,-36.4,-21.51,12.0,-117.56,21.03,-121.61,-47.84,15.34,57.41,-3.91,-24.096363636363648
6.234375,-30.44,-23.68,-25.45,12.05,-106.22,19.34,-114.21,-41.26,12.78,58.22,-4.84,-22.15545454545455
6.25,-39.15,-11.73,-28.28,11.91,-87.86,18.82,-99.17,-32.34,9.54,60.33,-5.89,-18.529090909090904
6.265625,-47.54,-0.21,-29.15,11.67,-65.05,19.41,-78.17,-22.3,5.7,62.47,-7.04,-13.655454545454546
6.28125,-55.06,11.3,-27.53,11.38,-41.02,20.84,-53.87,-12.23,1.47,63.39,-8.23,-8.141818181818183
6.296875,-61.39,23.23,-23.39,11.04,-18.7,22.79,-29.12,-2.89,-2.91,62.5,-9.34,-2.5618181818181807
6.3125,-66.6,35.89,-17.22,10.59,0.13,25.0,-6.18,5.43,-7.19,59.99,-10.24,2.690909090909092
6.328125,-71.19,49.34,-9.97,9.96,14.9,27.34,13.69,12.67,-11.17,56.67,-10.73,7.41
6.34375,-76.04,63.35,-2.6,9.12,26.04,29.75,30.19,18.81,-14.83,53.32,-10.68,11.493636363636362
6.359375,-82.22,77.49,4.11,8.05,34.35,32.27,43.63,23.74,-18.3,50.19,-9.95,14.850909090909092
6.375,-90.69,91.32,9.8,6.81,40.55,34.96,54.42,27.27,-21.94,46.69,-8.5,17.335454545454546
6.390625,-101.86,104.55,14.48,5.46,45.11,38.01,62.83,29.32,-26.3,41.66,-6.37,18.80818181818182
6.40625,-115.11,117.18,18.39,4.04,48.33,41.7,68.96,30.02,-31.9,33.98,-3.69,19.263636363636362
6.421875,-128.47,129.58,21.72,2.55,50.49,46.34,72.89,29.76,-39.01,23.22,-0.68,18.94454545454546
6.4375,-138.79,142.36,24.5,0.96,51.93,52.08,74.9,29.05,-47.32,9.97,2.38,18.365454545454547
6.453125,-142.46,156.17,26.63,-0.78,52.99,58.82,75.5,28.38,-55.91,-4.32,5.18,18.2
6.46875,-136.6,171.25,28.01,-2.61,53.93,66.17,75.36,28.03,-63.3,-17.93,7.47,19.07090909090909
6.484375,-120.14,187.08,28.67,-4.39,54.82,73.54,75.12,28.02,-67.8,-29.49,9.09,21.32
6.5,-94.34,202.25,28.8,-5.96,55.62,80.37,75.2,28.19,-68.05,-38.57,9.98,24.862727272727273
6.515625,-62.53,214.67,28.71,-7.11,56.16,86.25,75.71,28.32,-63.41,-45.67,10.2,29.209090909090904
6.53125,-28.94,222.15,28.64,-7.81,56.4,91.03,76.45,28.17,-54.22,-52.02,9.85,33.60909090909092
6.546875,2.54,223.19,28.74,-8.16,56.39,94.73,77.1,27.56,-41.78,-59.1,9.09,37.300000000000004
6.5625,29.29,217.48,28.95,-8.42,56.42,97.49,77.37,26.39,-27.93,-68.27,8.04,39.71000000000001
6.578125,50.17,205.98,29.09,-8.9,56.76,99.5,77.1,24.59,-14.61,-80.31,6.86,40.56636363636363
6.59375,65.1,190.54,28.99,-9.83,57.56,101.03,76.31,22.17,-3.26,-95.1,5.66,39.924545454545445
6.609375,74.47,173.13,28.62,-11.29,58.71,102.49,75.15,19.21,5.47,-111.29,4.53,38.10909090909091
6.625,78.7,155.2,28.07,-13.22,59.82,104.36,73.74,15.81,11.77,-126.32,3.56,35.59
6.640625,78.24,137.39,27.56,-15.41,60.33,106.99,72.1,12.1,16.39,-136.68,2.76,32.88818181818181
6.65625,73.83,119.68,27.31,-17.58,59.76,110.35,70.08,8.17,20.18,-138.91,2.13,30.454545454545453
6.671875,66.68,101.71,27.37,-19.37,57.88,113.94,67.35,4.12,23.74,-130.74,1.64,28.574545454545447
6.6875,58.41,83.15,27.61,-20.42,54.75,116.87,63.65,-0.0,27.17,-112.06,1.26,27.30818181818182
6.703125,50.65,63.64,27.7,-20.35,50.67,118.22,58.82,-4.17,30.21,-85.22,0.95,26.46545454545454
6.71875,44.6,42.71,27.27,-18.94,46.1,117.34,52.98,-8.48,32.54,-54.29,0.68,25.682727272727274
6.734375,40.65,19.78,26.04,-16.12,41.39,114.15,46.52,-13.14,34.06,-23.8,0.38,24.537272727272725
6.75,38.41,-5.4,24.0,-12.09,36.79,109.06,39.98,-18.38,35.06,2.71,-0.02,22.73818181818182
6.765625,36.99,-32.03,21.35,-7.26,32.32,102.65,33.88,-24.34,36.08,23.56,-0.59,20.237272727272725
6.78125,35.51,-57.91,18.47,-2.14,27.84,95.42,28.54,-30.8,37.62,38.84,-1.35,17.276363636363637
6.796875,33.49,-79.55,15.77,2.76,23.09,87.58,23.99,-37.12,39.86,49.73,-2.24,14.305454545454547
6.8125,31.03,-93.24,13.53,7.01,17.88,79.11,19.97,-42.24,42.5,57.5,-3.17,11.80727272727273
6.828125,28.69,-96.42,11.84,10.34,12.16,69.95,16.03,-45.03,45.02,62.84,-4.04,10.125454545454545
6.84375,27.13,-88.79,10.58,12.62,6.17,60.16,11.63,-44.69,46.88,65.87,-4.84,9.338181818181818
6.859375,26.76,-72.44,9.5,13.87,0.35,49.94,6.37,-40.97,47.84,66.47,-5.62,9.27909090909091
6.875,27.66,-50.96,8.27,14.24,-4.87,39.51,0.07,-34.36,48.03,64.85,-6.5,9.63090909090909
6.890625,29.52,-27.91,6.65,13.96,-9.21,29.01,-7.12,-25.8,47.75,61.85,-7.57,10.102727272727272
6.90625,31.94,-5.65,4.51,13.33,-12.78,18.48,-14.79,-16.41,47.27,58.74,-8.87,10.524545454545455
6.921875,34.45,15.15,1.96,12.58,-16.03,7.91,-22.37,-7.05,46.56,56.81,-10.33,10.876363636363637
6.9375,36.67,35.14,-0.79,11.87,-19.6,-2.7,-29.37,1.72,45.37,56.78,-11.83,11.205454545454545
6.953125,38.16,55.46,-3.47,11.23,-24.02,-13.18,-35.55,9.68,43.37,58.54,-13.2,11.547272727272727
6.96875,38.53,77.11,-5.89,10.58,-29.51,-23.34,-41.02,16.69,40.35,61.22,-14.32,11.854545454545455
6.984375,37.51,100.54,-8.07,9.86,-35.95,-33.0,-46.22,22.61,36.42,63.56,-15.02,12.02181818181818
7.0,35.05,125.51,-10.21,9.05,-42.91,-42.07,-51.82,27.23,31.89,64.54,-15.13,11.920909090909094
7.015625,31.45,151.06,-12.57,8.2,-49.89,-50.62,-58.54,30.41,27.24,63.7,-14.45,11.453636363636363
7.03125,27.26,175.5,-15.39,7.43,-56.52,-58.82,-66.98,32.16,22.84,61.34,-12.91,10.537272727272724
7.046875,23.1,196.53,-18.66,6.87,-62.7,-66.92,-77.33,32.73,18.88,58.16,-10.52,9.103636363636364
7.0625,19.32,211.73,-22.1,6.64,-68.61,-75.1,-89.1,32.53,15.35,54.9,-7.51,7.095454545454545
7.078125,15.94,219.2,-25.19,6.78,-74.77,-83.38,-100.96,32.0,12.09,51.75,-4.26,4.472727272727276
7.09375,12.59,218.26,-27.24,7.25,-81.85,-91.67,-110.75,31.42,8.88,48.31,-1.17,1.2754545454545476
7.109375,8.71,209.67,-27.59,7.91,-90.53,-99.73,-115.94,30.96,5.49,43.65,1.45,-2.3590909090909116
7.125,3.84,195.44,-25.81,8.62,-101.12,-107.39,-114.34,30.59,1.75,36.81,3.46,-6.195454545454544
7.140625,-2.22,178.25,-21.84,9.2,-113.22,-114.58,-104.91,30.23,-2.44,27.33,4.89,-9.93727272727273
7.15625,-9.32,160.69,-16.02,9.52,-125.47,-121.48,-88.26,29.79,-7.04,15.58,5.88,-13.284545454545453
7.171875,-17.01,144.76,-9.09,9.53,-135.59,-128.36,-66.54,29.18,-11.88,2.7,6.56,-15.976363636363642
7.1875,-24.76,131.67,-1.94,9.23,-140.92,-135.52,-42.72,28.29,-16.6,-9.78,7.02,-17.82090909090909
7.203125,-32.16,121.81,4.61,8.62,-139.25,-143.11,-19.67,27.02,-20.89,-20.55,7.26,-18.755454545454544
7.21875,-38.97,114.97,10.01,7.76,-129.57,-151.14,0.64,25.28,-24.56,-29.0,7.22,-18.850909090909088
7.234375,-45.32,110.31,14.08,6.69,-112.68,-159.58,17.47,22.95,-27.7,-35.4,6.85,-18.39363636363636
7.25,-51.54,106.67,16.97,5.46,-90.9,-168.46,31.02,19.98,-30.74,-40.73,6.19,-17.825454545454548
7.265625,-58.22,102.65,18.93,4.14,-67.35,-177.94,41.93,16.36,-34.27,-46.26,5.35,-17.69818181818182
7.28125,-66.1,97.04,20.23,2.77,-44.89,-188.11,50.73,12.16,-38.88,-53.22,4.51,-18.523636363636367
7.296875,-75.96,89.07,20.96,1.43,-25.41,-198.8,57.62,7.54,-44.93,-62.46,3.83,-20.64636363636364
7.3125,-88.27,78.67,21.18,0.11,-9.48,-209.42,62.62,2.78,-52.36,-74.36,3.44,-24.09909090909091
7.328125,-102.61,66.4,20.9,-1.16,3.31,-218.98,65.78,-1.81,-60.7,-88.55,3.32,-28.55454545454546
7.34375,-117.2,53.17,20.26,-2.4,13.72,-226.4,67.33,-5.97,-68.99,-103.73,3.38,-33.34818181818182
7.359375,-128.84,39.95,19.47,-3.64,22.41,-230.93,67.8,-9.62,-75.94,-117.57,3.45,-37.58727272727273
7.375,-133.53,27.36,18.74,-4.83,29.66,-232.46,67.78,-12.89,-80.1,-126.94,3.37,-40.349090909090904
7.390625,-127.84,15.5,18.2,-5.92,35.51,-231.57,67.81,-16.09,-80.22,-128.67,3.04,-40.93181818181818
7.40625,-110.23,3.92,17.77,-6.86,39.98,-229.3,68.17,-19.62,-75.63,-120.62,2.47,-39.08636363636364
7.421875,-82.03,-8.28,17.3,-7.6,43.29,-226.69,68.84,-23.81,-66.59,-102.63,1.74,-35.13272727272727
7.4375,-47.16,-22.22,16.65,-8.22,45.79,-224.33,69.58,-28.73,-54.23,-76.89,0.98,-29.889090909090907
7.453125,-11.02,-38.77,15.77,-8.85,47.93,-222.09,70.07,-34.13,-40.36,-47.35,0.3,-24.40909090909091
7.46875,21.29,-58.06,14.82,-9.72,50.03,-219.1,70.03,-39.33,-26.83,-18.42,-0.25,-19.594545454545457
7.484375,46.31,-78.88,13.97,-10.99,52.25,-213.99,69.31,-43.4,-15.04,6.37,-0.73,-15.892727272727273
7.5,62.86,-98.57,13.37,-12.71,54.53,-205.36,67.96,-45.29,-5.59,25.36,-1.21,-13.150000000000006
7.515625,71.68,-113.46,12.91,-14.68,56.76,-192.08,66.1,-44.2,1.68,38.74,-1.79,-10.75818181818182
7.53125,74.53,-119.86,12.35,-16.55,58.79,-173.77,63.83,-39.84,7.42,47.78,-2.51,-7.98454545454546
7.546875,73.26,-115.31,11.34,-17.91,60.58,-150.91,61.17,-32.56,12.27,53.83,-3.35,-4.326363636363637
7.5625,69.31,-99.4,9.64,-18.46,62.17,-124.75,58.01,-23.26,16.66,57.58,-4.28,0.2927272727272714
7.578125,63.64,-73.8,7.26,-18.05,63.65,-97.12,54.18,-13.05,20.65,59.01,-5.27,5.554545454545454
7.59375,56.93,-41.43,4.45,-16.71,65.04,-70.03,49.6,-2.94,24.13,57.93,-6.33,10.967272727272727
7.609375,49.8,-5.29,1.59,-14.55,66.28,-45.37,44.29,6.4,26.92,54.59,-7.46,16.10909090909091
7.625,42.94,32.36,-0.94,-11.7,67.09,-24.48,38.45,14.64,29.02,50.01,-8.62,20.797272727272727
7.640625,36.93,70.14,-2.92,-8.33,67.16,-8.14,32.42,21.64,30.56,45.81,-9.61,25.06
7.65625,32.18,107.02,-4.37,-4.68,66.19,3.48,26.57,27.29,31.79,43.53,-10.16,28.985454545454544
7.671875,28.8,141.65,-5.51,-1.04,64.1,10.68,21.19,31.44,32.97,43.98,-9.95,32.57363636363636
7.6875,26.64,172.14,-6.66,2.22,61.07,14.08,16.47,34.02,34.2,46.89,-8.76,35.664545454545454
7.703125,25.5,196.49,-8.12,4.8,57.45,14.47,12.36,35.14,35.48,50.99,-6.56,38.00000000000001
7.71875,25.36,213.28,-10.02,6.58,53.67,12.74,8.64,35.17,36.72,54.65,-3.6,39.380909090909086
7.734375,26.46,222.23,-12.27,7.61,50.05,9.83,4.91,34.68,37.79,56.54,-0.26,39.77909090909091
7.75,29.26,224.27,-14.62,8.08,46.69,6.61,0.73,34.24,38.61,56.15,3.03,39.36818181818182
7.765625,34.15,221.02,-16.72,8.24,43.45,3.87,-4.23,34.2,39.13,53.82,5.95,38.443636363636365
7.78125,41.09,214.19,-18.27,8.2,40.11,2.13,-10.04,34.61,39.32,50.46,8.3,37.28181818181818
7.796875,49.42,204.98,-19.2,7.99,36.44,1.65,-16.49,35.22,39.1,46.94,10.05,36.00909090909091
7.8125,57.88,194.11,-19.67,7.58,32.36,2.34,-23.16,35.66,38.4,43.65,11.24,34.58090909090909
7.828125,64.97,181.97,-20.02,6.94,27.95,3.79,-29.55,35.61,37.15,40.22,11.93,32.81454545454545
7.84375,69.4,168.94,-20.62,6.16,23.44,5.44,-35.36,34.9,35.33,35.75,12.17,30.504545454545454
7.859375,70.5,155.58,-21.76,5.37,19.13,6.71,-40.49,33.56,32.93,29.23,12.01,27.524545454545454
7.875,68.44,142.6,-23.52,4.76,15.25,7.23,-45.16,31.75,30.02,20.17,11.56,23.91818181818182
7.890625,64.05,130.66,-25.68,4.44,11.86,6.89,-49.8,29.65,26.64,8.94,10.94,19.87181818181818
7.90625,58.52,120.22,-27.83,4.41,8.8,5.92,-54.97,27.36,22.84,-3.25,10.28,15.663636363636368
7.921875,52.98,111.38,-29.4,4.56,5.67,4.66,-61.31,24.9,18.7,-14.8,9.68,11.547272727272723
7.9375,48.1,103.88,-29.79,4.71,2.01,3.48,-69.32,22.16,14.39,-24.41,9.18,7.671818181818181
7.953125,43.89,97.21,-28.56,4.75,-2.5,2.5,-79.13,19.04,10.13,-31.6,8.75,4.043636363636363
7.96875,39.84,90.73,-25.51,4.66,-7.93,1.51,-90.2,15.55,6.1,-36.9,8.34,0.5627272727272722
7.984375,35.09,83.86,-20.83,4.52,-14.03,-0.1,-101.09,11.8,2.43,-41.53,7.91,-2.9063636363636367
8.0,28.92,76.11,-15.0,4.46,-20.35,-3.31,-109.62,8.0,-0.92,-46.85,7.5,-6.46
8.015625,21.07,67.23,-8.73,4.53,-26.41,-9.15,-113.3,4.39,-4.05,-53.93,7.13,-10.110909090909091
8.03125,11.87,57.12,-2.75,4.67,-32.0,-18.29,-110.19,1.1,-7.06,-63.29,6.86,-13.814545454545453
8.046875,2.18,45.94,2.44,4.7,-37.19,-30.36,-99.66,-1.92,-10.02,-74.84,6.67,-17.460000000000004
8.0625,-6.97,33.94,6.62,4.44,-42.36,-43.54,-82.71,-4.88,-12.89,-87.85,6.5,-20.881818181818183
8.078125,-14.83,21.48,9.9,3.79,-48.06,-54.62,-61.69,-8.1,-15.6,-100.81,6.22,-23.84727272727272
8.09375,-21.23,8.92,12.55,2.84,-54.87,-59.64,-39.57,-11.92,-18.09,-111.43,5.72,-26.065454545454543
8.109375,-26.69,-3.47,14.79,1.76,-63.27,-54.97,-18.88,-16.51,-20.34,-116.81,4.9,-27.226363636363637
8.125,-32.15,-15.62,16.68,0.75,-73.42,-38.43,-1.13,-21.8,-22.4,-114.28,3.72,-27.098181818181818
8.140625,-38.57,-27.67,18.13,-0.14,-85.02,-10.01,13.35,-27.41,-24.42,-102.3,2.27,-25.617272727272734
8.15625,-46.49,-40.06,18.99,-0.96,-97.09,27.97,25.04,-32.68,-26.62,-81.43,0.66,-22.970000000000002
8.171875,-55.81,-53.5,19.18,-1.89,-107.93,71.31,34.61,-36.75,-29.32,-54.38,-0.95,-19.584545454545456
8.1875,-65.81,-68.75,18.82,-3.07,-115.37,114.86,42.47,-38.78,-32.91,-25.24,-2.45,-16.020909090909093
8.203125,-75.53,-86.25,18.18,-4.48,-117.36,153.51,48.66,-38.14,-37.73,1.88,-3.86,-12.829090909090912
8.21875,-84.1,-105.59,17.54,-5.99,-112.63,183.24,53.07,-34.62,-43.89,24.11,-5.32,-10.379999999999997
8.234375,-91.12,-125.07,17.07,-7.37,-101.2,201.83,55.71,-28.53,-51.11,40.52,-6.97,-8.74909090909091
8.25,-96.81,-141.72,16.79,-8.43,-84.42,209.16,56.86,-20.55,-58.59,51.73,-8.86,-7.712727272727275
8.265625,-101.98,-151.81,16.57,-9.11,-64.54,206.92,57.13,-11.59,-65.09,59.04,-10.83,-6.844545454545455
8.28125,-107.87,-151.91,16.31,-9.5,-43.98,197.96,57.17,-2.43,-69.19,63.49,-12.55,-5.681818181818176
8.296875,-115.8,-139.97,15.97,-9.81,-24.68,185.3,57.49,6.27,-69.64,65.41,-13.63,-3.917272727272727
8.3125,-126.74,-116.13,15.66,-10.22,-7.78,171.29,58.26,14.08,-65.74,64.73,-13.82,-1.4918181818181822
8.328125,-140.64,-82.68,15.5,-10.87,6.33,157.23,59.31,20.65,-57.54,61.48,-13.12,1.4227272727272737
8.34375,-155.91,-43.39,15.54,-11.8,17.63,143.49,60.29,25.64,-45.87,56.34,-11.77,4.562727272727273
8.359375,-169.26,-2.39,15.71,-12.96,26.26,130.04,60.82,28.8,-32.12,50.74,-10.08,7.77818181818182
8.375,-176.26,36.82,15.79,-14.19,32.34,116.92,60.66,30.07,-17.85,46.41,-8.33,11.125454545454543
8.390625,-172.65,71.9,15.58,-15.28,36.03,104.58,59.79,29.72,-4.47,44.7,-6.63,14.842727272727275
8.40625,-155.83,101.7,14.92,-15.94,37.71,93.79,58.4,28.33,7.04,46.0,-4.94,19.198181818181816
8.421875,-126.15,125.9,13.75,-15.9,37.98,85.55,56.76,26.63,16.24,49.53,-3.18,24.282727272727275
8.4375,-86.94,144.54,12.1,-15.0,37.52,80.88,55.03,25.28,23.23,53.66,-1.28,29.91090909090909
8.453125,-43.63,157.82,10.11,-13.22,36.91,80.72,53.17,24.58,28.46,56.62,0.74,35.66181818181818
8.46875,-2.0,166.02,7.91,-10.74,36.57,85.71,50.89,24.5,32.52,57.19,2.81,41.03454545454545
8.484375,33.47,169.55,5.67,-7.84,36.61,95.91,47.83,24.71,35.97,55.16,4.81,45.62272727272727
8.5,60.48,169.05,3.5,-4.84,36.97,110.59,43.66,24.87,39.14,51.22,6.57,49.20090909090909
8.515625,78.88,165.36,1.46,-2.02,37.48,128.16,38.35,24.75,42.1,46.43,7.91,51.714545454545444
8.53125,89.86,159.37,-0.47,0.38,38.03,146.54,32.22,24.35,44.75,41.58,8.65,53.20545454545454
8.546875,95.14,151.88,-2.31,2.21,38.56,163.7,25.93,23.75,46.89,36.74,8.72,53.74636363636364
8.5625,96.33,143.46,-4.08,3.4,39.09,178.29,20.13,23.0,48.43,31.27,8.2,53.41090909090909
8.578125,94.77,134.47,-5.84,3.92,39.71,189.98,15.26,22.0,49.45,24.19,7.37,52.298181818181824
8.59375,91.62,125.12,-7.66,3.87,40.53,199.23,11.31,20.55,50.1,14.81,6.65,50.557272727272725
8.609375,87.85,115.66,-9.62,3.41,41.66,206.68,7.79,18.44,50.59,3.17,6.39,48.36545454545455
8.625,84.21,106.46,-11.83,2.75,43.09,212.58,3.97,15.64,50.96,-9.84,6.82,45.89181818181818
8.640625,81.03,98.03,-14.36,2.05,44.69,216.38,-0.8,12.3,51.09,-22.74,7.86,43.23
8.65625,78.23,90.84,-17.1,1.43,46.08,217.0,-6.72,8.71,50.79,-34.07,9.25,40.403636363636366
8.671875,75.47,85.22,-19.74,0.91,46.78,213.49,-13.48,5.16,49.89,-42.98,10.67,37.39909090909091
8.6875,72.4,81.14,-21.78,0.46,46.27,205.57,-20.38,1.83,48.45,-49.48,11.83,34.21
8.703125,68.91,78.29,-22.69,0.11,44.23,193.93,-26.69,-1.27,46.64,-54.51,12.57,30.865454545454543
8.71875,65.28,76.16,-22.07,-0.13,40.65,179.94,-32.01,-4.2,44.72,-59.46,12.88,27.432727272727277
8.734375,62.04,74.15,-19.87,-0.16,35.84,165.1,-36.45,-7.01,42.79,-65.8,12.79,23.94727272727273
8.75,59.8,71.77,-16.4,0.04,30.27,150.59,-40.57,-9.73,40.78,-74.57,12.36,20.39454545454545
8.765625,59.0,68.67,-12.24,0.46,24.39,137.06,-45.12,-12.42,38.41,-86.16,11.62,16.697272727272733
8.78125,59.77,64.69,-8.0,1.03,18.48,124.82,-50.79,-15.23,35.37,-100.1,10.57,12.782727272727271
8.796875,61.82,59.87,-4.16,1.66,12.62,113.97,-58.01,-18.45,31.55,-114.98,9.19,8.643636363636363
8.8125,64.52,54.49,-0.93,2.28,6.88,104.5,-66.89,-22.32,27.04,-128.46,7.51,4.4199999999999955
8.828125,66.95,48.99,1.68,2.86,1.33,96.25,-77.19,-26.83,22.19,-137.52,5.56,0.38818181818181885
8.84375,68.16,43.81,3.83,3.39,-3.82,88.74,-88.22,-31.53,17.37,-139.15,3.42,-3.090909090909091
8.859375,67.39,39.27,5.6,3.81,-8.37,81.25,-98.73,-35.54,12.87,-131.26,1.16,-5.686363636363637
8.875,64.29,35.42,7.02,4.03,-12.25,73.04,-106.88,-37.71,8.67,-113.56,-1.16,-7.189999999999999
8.890625,59.07,32.04,8.09,3.93,-15.56,63.63,-110.56,-37.15,4.56,-87.9,-3.48,-7.575454545454548
8.90625,52.48,28.71,8.78,3.43,-18.59,53.0,-107.98,-33.46,0.22,-57.89,-5.78,-7.007272727272729
8.921875,45.53,25.01,9.09,2.55,-21.54,41.53,-98.36,-27.0,-4.56,-27.82,-8.0,-5.779090909090908
8.9375,39.19,20.54,9.12,1.41,-24.45,29.84,-82.38,-18.68,-9.75,-1.3,-10.05,-4.2281818181818185
8.953125,33.98,14.95,8.95,0.26,-27.13,18.46,-62.06,-9.68,-15.08,19.65,-11.72,-2.674545454545456
8.96875,29.89,8.03,8.62,-0.68,-29.14,7.79,-40.13,-1.06,-20.15,34.87,-12.78,-1.3400000000000007
8.984375,26.31,-0.1,8.13,-1.3,-30.16,-1.91,-19.21,6.5,-24.6,45.43,-12.96,-0.35181818181818225
9.0,22.41,-8.65,7.42,-1.66,-30.01,-10.41,-1.03,12.71,-28.29,52.79,-12.15,0.284545454545454
9.015625,17.5,-15.88,6.48,-1.97,-28.92,-17.54,13.78,17.53,-31.33,57.99,-10.43,0.6554545454545462
9.03125,11.29,-19.06,5.38,-2.48,-27.42,-23.18,25.44,20.95,-34.08,61.38,-8.04,0.9254545454545461
9.046875,4.07,-15.07,4.24,-3.37,-26.29,-27.42,34.53,22.94,-37.04,62.88,-5.36,1.2827272727272734
9.0625,-3.45,-1.21,3.17,-4.58,-26.41,-30.52,41.57,23.47,-40.72,62.41,-2.73,1.909090909090908
9.078125,-10.41,23.84,2.22,-5.91,-28.61,-32.98,46.75,22.69,-45.55,60.32,-0.41,2.904545454545455
9.09375,-16.27,59.53,1.34,-7.03,-33.54,-35.3,50.13,20.98,-51.69,57.52,1.44,4.282727272727273
9.109375,-20.98,103.62,0.42,-7.69,-41.56,-37.98,51.82,18.98,-58.94,55.15,2.7,5.958181818181819
9.125,-25.05,152.96,-0.63,-7.8,-52.69,-41.33,52.16,17.3,-66.58,54.24,3.27,7.804545454545456
9.140625,-29.3,204.27,-1.84,-7.52,-66.44,-45.41,51.72,16.32,-73.36,55.2,3.11,9.704545454545455
9.15625,-34.55,254.81,-3.17,-7.16,-81.61,-50.16,51.15,16.01,-77.72,57.68,2.22,11.590909090909092
9.171875,-41.21,302.32,-4.56,-7.06,-96.36,-55.35,50.9,15.97,-78.24,60.74,0.78,13.44818181818182
9.1875,-49.11,344.73,-5.96,-7.44,-108.32,-60.79,51.09,15.71,-74.15,63.15,-0.95,15.269090909090915
9.203125,-57.57,379.77,-7.36,-8.32,-115.18,-66.38,51.51,14.88,-65.67,63.97,-2.66,16.999090909090906
9.21875,-65.69,405.03,-8.72,-9.49,-115.35,-72.18,51.72,13.53,-54.03,62.82,-4.08,18.505454545454544
9.234375,-72.66,418.45,-10.03,-10.6,-108.5,-78.25,51.36,11.96,-41.07,59.91,-5.11,19.587272727272723
9.25,-78.13,419.15,-11.19,-11.23,-95.77,-84.55,50.32,10.53,-28.67,55.81,-5.77,20.045454545454543
9.265625,-82.34,407.99,-12.15,-11.06,-79.36,-90.9,48.84,9.29,-18.17,51.03,-6.17,19.727272727272727
9.28125,-86.0,387.55,-12.86,-9.95,-61.84,-97.0,47.3,7.98,-10.12,45.65,-6.42,18.571818181818184
9.296875,-90.19,361.47,-13.39,-7.93,-45.39,-102.72,46.08,6.09,-4.32,39.24,-6.57,16.579090909090915
9.3125,-96.1,333.41,-13.85,-5.27,-31.28,-108.02,45.23,3.26,-0.15,31.15,-6.65,13.793636363636363
9.328125,-104.76,306.11,-14.36,-2.35,-19.85,-113.04,44.4,-0.5,3.06,20.83,-6.66,10.261818181818184
9.34375,-116.66,280.8,-14.99,0.44,-10.81,-117.67,42.95,-4.75,5.78,8.36,-6.57,6.080000000000002
9.359375,-131.19,257.42,-15.71,2.83,-3.65,-121.39,40.29,-8.81,8.17,-5.48,-6.38,1.4636363636363656
9.375,-146.26,235.11,-16.52,4.72,2.06,-123.19,36.13,-12.14,10.26,-19.33,-6.14,-3.2090909090909054
9.390625,-158.21,212.97,-17.42,6.14,6.62,-121.96,30.69,-14.64,12.0,-31.8,-5.89,-7.409090909090909
9.40625,-162.56,190.53,-18.42,7.15,10.29,-117.01,24.61,-16.59,13.45,-41.94,-5.7,-10.562727272727273
9.421875,-155.35,167.85,-19.49,7.77,13.32,-108.58,18.7,-18.55,14.8,-49.7,-5.65,-12.261818181818182
9.4375,-134.7,145.34,-20.48,7.91,16.0,-97.94,13.6,-21.01,16.31,-55.93,-5.77,-12.424545454545454
9.453125,-101.83,123.41,-21.03,7.45,18.59,-86.97,9.53,-24.25,18.19,-62.03,-6.05,-11.362727272727271
9.46875,-60.89,102.18,-20.69,6.33,21.22,-77.6,6.21,-28.3,20.55,-69.51,-6.44,-9.72181818181818
9.484375,-17.77,81.44,-19.07,4.7,23.83,-71.07,2.97,-32.99,23.26,-79.49,-6.92,-8.282727272727271
9.5,21.78,60.68,-16.0,2.86,26.27,-67.69,-0.91,-38.0,26.04,-92.4,-7.48,-7.713636363636365
9.515625,53.76,39.37,-11.66,1.23,28.34,-66.97,-5.99,-42.85,28.52,-107.82,-8.18,-8.386363636363637
9.53125,76.64,17.11,-6.59,0.09,29.85,-68.04,-12.36,-46.82,30.46,-124.36,-9.09,-10.282727272727273
9.546875,91.02,-6.13,-1.49,-0.4,30.77,-70.15,-19.62,-49.04,31.72,-139.72,-10.2,-13.021818181818183
9.5625,98.61,-30.01,3.0,-0.33,31.18,-73.0,-27.0,-48.71,32.35,-150.92,-11.47,-16.027272727272727
9.578125,101.32,-53.9,6.52,0.11,31.22,-76.75,-33.68,-45.38,32.4,-154.81,-12.7,-18.695454545454545
9.59375,100.62,-77.11,9.02,0.72,31.03,-81.73,-39.13,-39.18,31.88,-148.96,-13.72,-20.596363636363638
9.609375,97.67,-99.14,10.76,1.39,30.66,-88.07,-43.3,-30.85,30.67,-132.62,-14.36,-21.562727272727273
9.625,93.44,-119.83,12.1,2.09,30.02,-95.45,-46.66,-21.48,28.62,-107.15,-14.53,-21.71181818181818
9.640625,88.83,-139.44,13.31,2.78,28.84,-102.92,-50.07,-12.15,25.69,-75.86,-14.22,-21.382727272727273
9.65625,84.59,-158.44,14.49,3.42,26.76,-109.28,-54.48,-3.61,22.03,-43.13,-13.44,-21.008181818181814
9.671875,81.04,-177.52,15.55,3.92,23.44,-113.43,-60.66,3.81,18.03,-12.95,-12.19,-20.996363636363636
9.6875,78.0,-197.41,16.32,4.22,18.66,-114.9,-69.0,10.02,14.16,12.1,-10.48,-21.664545454545458
9.703125,74.96,-218.88,16.65,4.27,12.53,-114.01,-79.25,15.06,10.8,31.31,-8.33,-23.171818181818182
9.71875,71.4,-242.48,16.49,4.12,5.5,-111.81,-90.4,18.86,8.08,45.48,-5.89,-25.513636363636362
9.734375,67.11,-268.16,15.92,3.79,-1.69,-109.71,-100.71,21.36,5.86,56.0,-3.4,-28.51181818181818
9.75,62.39,-294.69,15.1,3.33,-8.21,-108.97,-107.94,22.57,3.84,64.02,-1.13,-31.790000000000006
9.765625,57.93,-319.47,14.2,2.77,-13.41,-110.36,-109.88,22.69,1.68,70.03,0.74,-34.82545454545454
9.78125,54.52,-338.86,13.35,2.06,-16.92,-114.06,-105.02,22.13,-0.85,73.95,2.2,-37.045454545454554
9.796875,52.68,-349.19,12.57,1.2,-18.72,-119.55,-93.15,21.36,-3.89,75.62,3.4,-37.97
9.8125,52.5,-348.06,11.84,0.24,-18.93,-125.71,-75.54,20.76,-7.46,75.23,4.52,-37.32818181818181
9.828125,53.55,-335.41,11.14,-0.76,-17.64,-130.99,-54.5,20.46,-11.49,73.5,5.67,-35.13363636363636
9.84375,55.07,-313.6,10.43,-1.73,-14.71,-133.69,-32.75,20.36,-15.86,71.51,6.74,-31.657272727272733
9.859375,56.22,-286.64,9.74,-2.6,-9.89,-132.38,-12.54,20.16,-20.33,70.32,7.5,-27.31272727272727
9.875,56.33,-258.76,9.06,-3.34,-2.96,-126.51,4.76,19.56,-24.6,70.62,7.65,-22.562727272727276
9.890625,55.1,-233.15,8.37,-3.97,6.03,-116.71,18.75,18.36,-28.47,72.51,7.07,-17.828181818181818
9.90625,52.56,-211.31,7.62,-4.53,16.64,-104.76,29.6,16.55,-31.92,75.47,5.82,-13.47818181818182
9.921875,49.04,-193.41,6.78,-5.1,28.09,-92.99,37.73,14.28,-35.23,78.67,4.23,-9.809999999999997
9.9375,44.97,-178.92,5.84,-5.75,39.4,-83.47,43.47,11.82,-38.93,81.12,2.65,-7.072727272727271
9.953125,40.74,-167.4,4.82,-6.51,49.72,-77.16,47.12,9.44,-43.63,82.06,1.42,-5.398181818181817
9.96875,36.65,-158.7,3.8,-7.4,58.4,-73.75,49.0,7.24,-49.67,81.02,0.66,-4.795454545454544
9.984375,32.85,-152.79,2.84,-8.35,65.1,-71.9,49.56,5.16,-56.9,77.89,0.34,-5.109090909090909
10.0,29.37,-149.39,1.96,-9.25,69.7,-70.08,49.4,2.96,-64.45,72.87,0.32,-6.053636363636361
10.015625,26.16,-147.71,1.15,-10.04,72.27,-67.33,49.08,0.38,-70.96,66.28,0.42,-7.3
10.03125,23.04,-146.6,0.37,-10.68,73.0,-63.58,48.98,-2.72,-74.81,58.52,0.51,-8.542727272727271
10.046875,19.75,-144.96,-0.48,-11.26,72.13,-59.55,49.23,-6.23,-74.7,49.89,0.48,-9.609090909090911
10.0625,15.99,-142.1,-1.46,-11.89,69.9,-56.24,49.65,-9.81,-70.05,40.6,0.3,-10.464545454545455
10.078125,11.52,-138.03,-2.67,-12.71,66.46,-54.44,50.0,-13.05,-61.21,30.69,-0.07,-11.22818181818182
10.09375,6.32,-133.4,-4.13,-13.83,61.9,-54.45,50.02,-15.69,-49.39,20.12,-0.68,-12.110000000000003
10.109375,0.64,-129.07,-5.83,-15.26,56.29,-56.1,49.66,-17.81,-36.23,8.89,-1.56,-13.307272727272727
10.125,-5.08,-125.64,-7.71,-16.94,49.83,-59.03,49.05,-19.76,-23.37,-2.87,-2.69,-14.92818181818182
10.140625,-10.37,-123.13,-9.66,-18.71,43.01,-62.93,48.39,-22.08,-12.0,-14.79,-3.99,-16.932727272727274
10.15625,-14.95,-120.99,-11.64,-20.33,36.7,-67.68,47.81,-25.2,-2.71,-26.33,-5.31,-19.14818181818182
10.171875,-18.93,-118.45,-13.63,-21.47,32.08,-73.21,47.24,-29.28,4.52,-36.95,-6.48,-21.32363636363636
10.1875,-22.74,-114.94,-15.65,-21.78,30.5,-79.37,46.37,-34.04,10.1,-46.3,-7.36,-23.200909090909093
10.203125,-27.01,-110.48,-17.64,-21.01,33.13,-85.79,44.76,-38.81,14.61,-54.36,-7.92,-24.592727272727277
10.21875,-32.19,-105.7,-19.41,-19.02,40.73,-91.88,42.05,-42.76,18.59,-61.56,-8.25,-25.4
10.234375,-38.46,-101.55,-20.57,-15.9,53.46,-97.12,38.14,-45.0,22.37,-68.69,-8.5,-25.62
10.25,-45.51,-98.84,-20.63,-11.97,70.68,-101.31,33.29,-44.89,26.02,-76.8,-8.83,-25.34454545454545
10.265625,-52.73,-97.9,-19.21,-7.72,91.03,-104.8,27.99,-42.19,29.41,-86.9,-9.3,-24.756363636363634
10.28125,-59.46,-98.47,-16.17,-3.65,112.62,-108.35,22.8,-37.08,32.32,-99.78,-9.88,-24.1
10.296875,-65.22,-99.83,-11.78,-0.19,133.31,-112.86,18.07,-30.15,34.62,-115.47,-10.42,-23.62909090909091
10.3125,-69.91,-101.25,-6.54,2.4,151.16,-118.86,13.8,-22.19,36.36,-132.77,-10.75,-23.504545454545454
10.328125,-73.83,-102.27,-1.08,4.06,164.76,-126.09,9.65,-13.99,37.81,-149.08,-10.72,-23.70727272727273
10.34375,-77.65,-102.99,4.08,4.93,173.48,-133.45,5.12,-6.14,39.26,-160.61,-10.25,-24.020000000000003
10.359375,-82.31,-104.05,8.64,5.23,177.31,-139.25,-0.21,1.02,40.92,-163.39,-9.36,-24.13181818181818
10.375,-88.89,-106.44,12.47,5.19,176.67,-141.73,-6.4,7.33,42.78,-154.63,-8.08,-23.79363636363636
10.390625,-98.17,-111.13,15.58,4.97,171.99,-139.7,-13.14,12.67,44.63,-133.87,-6.5,-22.97
10.40625,-110.11,-118.53,17.97,4.65,163.63,-132.78,-19.83,16.92,46.19,-103.41,-4.65,-21.813636363636363
10.421875,-123.23,-128.14,19.72,4.21,151.83,-121.48,-25.86,19.92,47.24,-67.74,-2.6,-20.557272727272725
10.4375,-134.45,-138.32,20.91,3.65,136.85,-106.81,-30.92,21.59,47.67,-32.02,-0.45,-19.299999999999997
10.453125,-139.64,-146.56,21.72,3.01,119.14,-89.94,-35.16,22.05,47.57,-0.51,1.65,-17.879090909090905
10.46875,-134.9,-150.11,22.28,2.35,99.26,-71.93,-39.12,21.67,47.04,24.49,3.55,-15.947272727272725
10.484375,-118.07,-146.76,22.72,1.82,77.79,-53.6,-43.61,20.93,46.18,42.85,5.13,-13.147272727272725
10.5,-89.83,-135.57,22.99,1.55,55.1,-35.69,-49.43,20.28,45.03,55.82,6.41,-9.394545454545453
10.515625,-53.75,-117.06,23.04,1.64,31.47,-19.04,-57.12,19.99,43.5,65.09,7.46,-4.979999999999998
10.53125,-15.24,-92.97,22.83,2.13,7.14,-4.53,-66.66,20.08,41.46,71.89,8.38,-0.49909090909090814
10.546875,20.27,-65.61,22.39,3.01,-17.39,7.01,-77.3,20.4,38.75,76.77,9.22,3.4109090909090907
10.5625,48.86,-37.31,21.89,4.21,-41.33,15.13,-87.44,20.66,35.34,79.76,9.95,6.33818181818182
10.578125,68.93,-9.98,21.48,5.6,-63.57,20.04,-94.88,20.63,31.35,80.84,10.47,8.264545454545454
10.59375,80.91,14.95,21.22,7.04,-83.06,22.64,-97.39,20.2,27.1,80.32,10.71,9.512727272727272
10.609375,86.43,36.46,21.08,8.36,-99.02,24.47,-93.39,19.36,22.99,78.85,10.64,10.566363636363638
10.625,87.35,53.79,20.99,9.4,-111.21,27.51,-82.59,18.21,19.38,77.33,10.36,11.865454545454543
10.640625,85.27,66.45,20.89,10.04,-119.87,33.9,-66.21,16.86,16.38,76.58,9.99,13.661818181818184
10.65625,81.43,74.35,20.76,10.22,-125.54,45.52,-46.62,15.34,13.8,77.06,9.64,15.996363636363634
10.671875,76.78,77.85,20.61,9.98,-128.93,63.38,-26.57,13.62,11.21,78.72,9.39,18.730909090909087
10.6875,72.13,77.76,20.4,9.42,-130.55,86.98,-8.39,11.58,8.15,81.16,9.28,21.62909090909091
10.703125,68.03,75.14,20.07,8.72,-130.74,113.98,6.6,9.12,4.35,83.75,9.35,24.39727272727273
10.71875,64.67,71.05,19.6,8.02,-129.58,140.52,18.16,6.21,-0.16,85.93,9.63,26.731818181818184
10.734375,61.83,66.33,19.08,7.4,-126.99,162.21,26.79,2.96,-5.0,87.26,10.1,28.360909090909093
10.75,59.08,61.49,18.71,6.83,-122.93,175.6,33.2,-0.42,-9.7,87.41,10.64,29.08272727272727
10.765625,55.97,56.69,18.71,6.25,-117.43,179.37,37.93,-3.72,-13.91,86.03,11.09,28.816363636363633
10.78125,52.35,51.83,19.11,5.6,-110.82,174.74,41.22,-6.8,-17.53,82.7,11.27,27.60636363636364
10.796875,48.44,46.79,19.68,4.88,-103.57,164.8,43.15,-9.67,-20.8,76.99,11.1,25.61727272727273
10.8125,44.76,41.5,20.0,4.18,-96.31,153.17,43.76,-12.51,-24.1,68.8,10.63,23.08
10.828125,42.0,36.18,19.68,3.61,-89.58,142.59,43.34,-15.58,-27.89,58.51,9.95,20.255454545454544
10.84375,40.74,31.28,18.55,3.2,-83.76,134.26,42.35,-19.12,-32.48,47.03,9.2,17.386363636363637
10.859375,41.26,27.43,16.79,2.89,-78.92,127.93,41.37,-23.34,-38.04,35.59,8.41,14.670000000000003
10.875,43.4,25.26,14.88,2.52,-74.84,122.71,40.87,-28.27,-44.58,25.16,7.53,12.239999999999997
10.890625,46.54,25.14,13.32,1.92,-71.19,117.79,41.04,-33.74,-51.82,16.11,6.5,10.146363636363636
10.90625,49.79,27.01,12.56,1.03,-67.63,112.87,41.74,-39.29,-59.12,8.01,5.3,8.388181818181819
10.921875,52.17,30.29,12.72,-0.06,-63.98,107.98,42.57,-44.22,-65.39,-0.05,4.01,6.912727272727276
10.9375,52.9,33.95,13.67,-1.2,-60.29,103.12,43.06,-47.63,-69.22,-8.95,2.81,5.656363636363635
10.953125,51.61,36.76,15.08,-2.24,-56.83,98.0,42.86,-48.7,-69.26,-19.03,1.79,4.549090909090911
10.96875,48.4,37.59,16.58,-3.11,-53.96,92.07,41.86,-46.91,-64.72,-29.91,0.98,3.5336363636363646
10.984375,43.75,35.79,17.91,-3.86,-51.99,84.88,40.13,-42.27,-55.8,-40.66,0.29,2.5609090909090892
11.0,38.31,31.35,19.04,-4.58,-51.09,76.36,37.83,-35.29,-43.73,-50.36,-0.42,1.5836363636363624
11.015625,32.71,24.96,20.23,-5.3,-51.17,66.97,35.08,-26.83,-30.44,-58.57,-1.21,0.5845454545454539
11.03125,27.36,17.78,21.95,-5.99,-51.92,57.57,31.89,-17.8,-17.9,-65.63,-2.03,-0.4290909090909082
11.046875,22.41,10.92,24.81,-6.56,-52.88,48.99,28.2,-8.94,-7.54,-72.67,-2.74,-1.454545454545456
11.0625,17.7,5.09,29.29,-7.0,-53.65,41.66,23.97,-0.7,0.18,-81.19,-3.21,-2.5327272727272727
11.078125,12.93,0.21,35.62,-7.39,-54.03,35.45,19.26,6.71,5.59,-92.62,-3.38,-3.786363636363636
11.09375,7.77,-4.58,43.66,-7.9,-54.19,29.81,14.17,13.13,9.55,-107.67,-3.23,-5.407272727272727
11.109375,2.05,-10.57,52.94,-8.7,-54.64,24.11,8.79,18.41,12.88,-125.73,-2.77,-7.566363636363636
11.125,-4.19,-19.09,62.73,-9.89,-56.13,17.96,3.17,22.35,16.13,-144.62,-2.01,-10.326363636363638
11.140625,-10.61,-30.78,72.2,-11.41,-59.35,11.42,-2.73,24.78,19.42,-160.67,-0.89,-13.510909090909088
11.15625,-16.69,-45.27,80.53,-13.12,-64.48,4.85,-8.88,25.79,22.61,-169.54,0.61,-16.69
11.171875,-21.95,-60.92,86.97,-14.84,-70.88,-1.36,-15.15,25.71,25.45,-167.5,2.48,-19.271818181818183
11.1875,-26.13,-75.22,90.99,-16.48,-76.9,-7.05,-21.31,25.07,27.79,-152.77,4.63,-20.670909090909092
11.203125,-29.33,-85.31,92.32,-17.99,-80.12,-12.45,-27.07,24.39,29.61,-126.36,6.88,-20.493636363636366
11.21875,-32.02,-88.9,90.93,-19.4,-77.96,-18.0,-32.3,24.01,31.03,-91.91,9.03,-18.68090909090909
11.234375,-34.91,-84.85,86.94,-20.76,-68.51,-24.05,-37.09,23.97,32.23,-54.63,10.88,-15.525454545454545
11.25,-38.71,-73.55,80.49,-22.13,-51.16,-30.55,-41.87,24.12,33.38,-19.61,12.27,-11.574545454545452
11.265625,-43.85,-56.7,71.65,-23.59,-26.92,-36.83,-47.27,24.14,34.56,9.6,13.08,-7.466363636363638
11.28125,-50.35,-36.79,60.5,-25.29,1.83,-41.72,-53.93,23.86,35.73,31.7,13.28,-3.7436363636363654
11.296875,-57.78,-16.38,47.14,-27.38,32.06,-43.96,-62.24,23.18,36.8,47.28,12.86,-0.7654545454545443
11.3125,-65.43,2.49,31.83,-29.93,60.79,-42.59,-72.0,22.19,37.66,57.95,11.94,1.3545454545454538
11.328125,-72.61,18.53,14.99,-32.82,85.86,-37.3,-82.19,21.0,38.22,65.27,10.65,2.690909090909091
11.34375,-78.88,31.14,-2.9,-35.65,106.13,-28.58,-91.0,19.73,38.52,70.17,9.21,3.4445454545454557
11.359375,-84.28,40.11,-21.47,-37.83,121.39,-17.51,-96.21,18.43,38.56,72.95,7.79,3.811818181818182
11.375,-89.28,45.41,-40.58,-38.74,132.04,-5.42,-95.77,17.02,38.35,73.72,6.53,3.934545454545454
11.390625,-94.71,47.08,-60.23,-37.96,138.73,6.48,-88.56,15.39,37.77,72.88,5.49,3.8509090909090897
11.40625,-101.49,45.29,-80.25,-35.38,142.13,17.23,-74.91,13.33,36.64,71.28,4.66,3.502727272727273
11.421875,-110.31,40.53,-100.12,-31.22,142.88,26.27,-56.56,10.69,34.76,70.02,4.03,2.8154545454545445
11.4375,-121.3,33.61,-118.73,-25.92,141.58,33.28,-36.12,7.42,32.06,69.99,3.55,1.7654545454545472
11.453125,-133.53,25.54,-134.6,-20.0,138.74,38.14,-16.26,3.71,28.65,71.56,3.21,0.46909090909090545
11.46875,-144.81,17.32,-146.3,-13.93,134.82,40.92,1.11,-0.11,24.89,74.48,3.0,-0.7827272727272739
11.484375,-151.91,9.66,-153.02,-8.14,130.23,41.85,15.13,-3.62,21.26,78.07,2.9,-1.599090909090914
11.5,-151.3,2.92,-154.89,-2.97,125.29,41.35,25.99,-6.53,18.16,81.59,2.85,-1.5945454545454532
11.515625,-140.36,-2.9,-153.04,1.33,120.24,39.91,34.35,-8.86,15.74,84.52,2.77,-0.5727272727272773
11.53125,-118.55,-7.95,-149.19,4.6,115.14,37.99,40.89,-10.9,13.83,86.6,2.57,1.3663636363636333
11.546875,-87.89,-12.32,-145.18,6.83,109.93,35.91,45.96,-13.11,12.01,87.69,2.18,3.8190909090909084
11.5625,-52.63,-16.04,-142.49,8.17,104.38,33.81,49.64,-15.95,9.8,87.53,1.57,6.16272727272727
11.578125,-17.87,-18.99,-141.94,8.84,98.14,31.78,51.91,-19.64,6.87,85.7,0.77,7.779090909090911
11.59375,11.93,-21.17,-143.71,9.08,90.73,29.95,52.87,-24.14,3.2,81.72,-0.18,8.207272727272725
11.609375,34.17,-22.69,-147.48,9.06,81.74,28.51,52.87,-29.04,-0.92,75.35,-1.21,7.305454545454546
11.625,48.37,-23.85,-152.6,8.87,70.85,27.74,52.39,-33.74,-5.03,66.8,-2.32,5.225454545454544
11.640625,55.64,-25.04,-158.18,8.53,58.03,27.83,51.91,-37.43,-8.7,56.8,-3.49,2.3545454545454536
11.65625,57.8,-26.59,-163.17,8.14,43.57,28.82,51.69,-39.33,-11.73,46.41,-4.77,-0.8327272727272714
11.671875,56.59,-28.66,-166.43,7.82,28.15,30.58,51.71,-38.81,-14.23,36.54,-6.15,-3.8990909090909103
11.6875,53.39,-31.3,-166.73,7.69,12.78,32.79,51.76,-35.62,-16.49,27.69,-7.61,-6.513636363636362
11.703125,49.28,-34.47,-163.05,7.86,-1.39,35.11,51.56,-29.92,-18.96,19.76,-9.04,-8.478181818181817
11.71875,45.22,-38.15,-154.69,8.34,-13.29,37.16,50.91,-22.37,-22.04,12.19,-10.34,-9.732727272727272
11.734375,42.09,-42.33,-141.51,9.1,-22.21,38.66,49.74,-13.88,-26.03,4.39,-11.44,-10.310909090909089
11.75,40.52,-46.97,-123.91,10.09,-27.96,39.4,48.07,-5.38,-31.09,-3.96,-12.32,-10.319090909090908
11.765625,40.74,-51.89,-102.75,11.28,-30.9,39.17,45.87,2.4,-37.18,-12.68,-13.05,-9.908181818181818
11.78125,42.57,-56.75,-79.17,12.67,-31.84,37.87,43.07,9.06,-43.94,-21.25,-13.68,-9.217272727272729
11.796875,45.51,-61.13,-54.48,14.23,-31.72,35.5,39.54,14.42,-50.62,-29.11,-14.25,-8.373636363636363
11.8125,49.04,-64.77,-30.02,15.86,-31.36,32.22,35.24,18.48,-56.11,-36.01,-14.68,-7.464545454545453
11.828125,52.86,-67.74,-6.87,17.38,-31.36,28.38,30.29,21.28,-59.15,-42.24,-14.8,-6.542727272727273
11.84375,56.96,-70.49,14.4,18.6,-32.04,24.39,24.94,22.89,-58.68,-48.58,-14.41,-5.638181818181818
11.859375,61.52,-73.69,34.02,19.38,-33.48,20.65,19.48,23.44,-54.24,-56.12,-13.32,-4.759999999999998
11.875,66.72,-77.72,52.97,19.72,-35.63,17.31,14.04,23.21,-46.19,-65.96,-11.46,-3.908181818181818
11.890625,72.54,-82.33,72.7,19.68,-38.34,14.37,8.59,22.58,-35.63,-78.82,-8.95,-3.055454545454545
11.90625,78.66,-86.29,94.49,19.41,-41.5,11.61,2.88,21.94,-24.11,-94.53,-6.01,-2.1318181818181827
11.921875,84.53,-87.55,118.87,18.98,-45.03,8.8,-3.3,21.58,-13.19,-111.67,-2.95,-0.9936363636363652
11.9375,89.48,-83.68,145.34,18.42,-49.01,5.7,-10.04,21.56,-3.99,-127.38,-0.11,0.5718181818181823
11.953125,92.87,-72.62,172.62,17.7,-53.54,2.22,-17.18,21.74,2.97,-137.78,2.23,2.8390909090909093
11.96875,94.25,-53.4,199.27,16.79,-58.73,-1.68,-24.36,21.85,7.78,-139.01,3.91,6.060909090909095
11.984375,93.47,-26.46,224.26,15.75,-64.5,-5.87,-31.21,21.67,10.89,-128.57,4.88,10.391818181818183
12.0,90.63,6.35,247.22,14.67,-70.58,-10.17,-37.46,21.09,12.87,-106.44,5.23,15.764545454545454
12.015625,86.1,42.29,268.19,13.63,-76.42,-14.31,-43.16,20.18,14.2,-75.41,5.17,21.86
12.03125,80.39,78.38,287.17,12.67,-81.47,-18.05,-48.67,19.08,15.13,-40.29,4.89,28.11181818181818
12.046875,73.98,112.14,303.79,11.77,-85.35,-21.29,-54.63,17.91,15.75,-6.36,4.56,33.842727272727274
12.0625,67.24,141.99,317.28,10.89,-88.15,-24.18,-61.77,16.7,16.09,22.22,4.23,38.41272727272727
12.078125,60.23,167.38,326.85,10.02,-90.38,-27.12,-70.66,15.34,16.22,43.45,3.94,41.38818181818181
12.09375,52.76,188.6,332.05,9.21,-92.94,-30.66,-81.27,13.69,16.36,57.45,3.66,42.62818181818182
12.109375,44.48,206.36,332.89,8.53,-96.77,-35.23,-92.74,11.65,16.82,65.73,3.41,42.28454545454546
12.125,35.09,221.45,329.76,8.06,-102.52,-40.99,-103.3,9.2,17.87,70.02,3.27,40.719090909090895
12.140625,24.58,234.41,323.24,7.78,-110.2,-47.65,-110.57,6.47,19.57,71.57,3.34,38.41272727272727
12.15625,13.42,245.51,314.0,7.56,-119.05,-54.36,-112.22,3.62,21.73,71.01,3.64,35.89636363636364
12.171875,2.51,254.72,302.77,7.24,-127.51,-59.91,-106.76,0.82,23.96,68.66,4.16,33.696363636363635
12.1875,-7.09,261.88,290.39,6.64,-133.49,-62.89,-94.08,-1.83,25.84,65.05,4.82,32.29454545454545
12.203125,-14.55,266.9,277.85,5.69,-134.86,-62.07,-75.61,-4.28,27.1,61.15,5.54,32.07818181818182
12.21875,-19.61,269.79,266.11,4.4,-130.07,-56.69,-53.82,-6.6,27.74,58.23,6.31,33.25363636363637
12.234375,-22.73,270.76,255.95,2.86,-118.64,-46.77,-31.52,-8.97,27.91,57.42,7.18,35.76818181818183
12.25,-24.91,270.2,247.81,1.22,-101.37,-33.12,-10.99,-11.63,27.78,59.19,8.14,39.301818181818184
12.265625,-27.32,268.61,241.79,-0.41,-80.1,-17.18,6.44,-14.9,27.4,63.16,9.09,43.32545454545454
12.28125,-30.86,266.43,237.72,-1.95,-57.29,-0.59,20.5,-18.98,26.64,68.22,9.75,47.23545454545455
12.296875,-35.81,263.89,235.26,-3.4,-35.25,15.2,31.62,-23.72,25.3,72.94,9.79,50.529090909090904
12.3125,-41.83,260.82,233.93,-4.8,-15.68,29.27,40.49,-28.54,23.18,76.12,9.0,52.905454545454546
12.328125,-48.11,256.6,233.2,-6.25,0.55,41.26,47.66,-32.5,20.24,77.08,7.37,54.28181818181818
12.34375,-53.7,250.33,232.45,-7.81,13.27,51.22,53.42,-34.59,16.66,75.76,5.14,54.74090909090909
12.359375,-57.88,241.13,231.12,-9.57,22.7,59.42,57.83,-34.07,12.81,72.48,2.71,54.42545454545455
12.375,-60.32,228.47,228.78,-11.54,29.14,66.13,60.88,-30.84,9.14,67.71,0.42,53.45181818181818
12.390625,-61.21,212.36,225.23,-13.68,32.85,71.63,62.72,-25.39,6.01,61.77,-1.55,51.88545454545454
12.40625,-61.22,193.34,220.41,-15.89,34.16,76.29,63.68,-18.6,3.57,54.87,-3.25,49.75999999999999
12.421875,-61.37,172.04,214.4,-18.06,33.51,80.59,64.18,-11.39,1.69,47.1,-4.81,47.08
12.4375,-62.88,148.88,207.3,-20.1,31.59,85.07,64.56,-4.4,0.01,38.55,-6.35,43.83909090909091
12.453125,-66.67,123.8,199.16,-22.02,29.26,90.21,64.93,2.0,-1.98,29.38,-7.83,40.021818181818176
12.46875,-72.88,96.51,189.97,-23.89,27.38,96.19,65.13,7.65,-4.68,19.7,-9.07,35.63727272727272
12.484375,-80.41,67.01,179.76,-25.84,26.62,102.84,64.91,12.35,-8.18,9.66,-9.83,30.808181818181822
12.5,-86.81,36.11,168.6,-28.04,27.3,109.69,64.09,15.82,-12.26,-0.68,-9.93,25.80818181818182
12.515625,-88.94,5.6,156.69,-30.62,29.3,116.16,62.72,17.81,-16.41,-11.22,-9.36,21.066363636363636
12.53125,-83.93,-22.2,144.3,-33.63,32.22,121.85,61.12,18.29,-20.08,-21.76,-8.25,17.084545454545456
12.546875,-70.43,-45.23,131.69,-36.94,35.54,126.66,59.63,17.6,-22.93,-31.95,-6.82,14.256363636363638
12.5625,-49.32,-62.64,119.06,-40.26,38.8,130.82,58.42,16.32,-24.95,-41.43,-5.34,12.680000000000001
12.578125,-23.52,-75.14,106.5,-43.1,41.68,134.61,57.29,15.14,-26.47,-49.94,-3.99,12.09636363636364
12.59375,2.92,-84.67,94.0,-44.83,44.07,138.23,55.76,14.5,-28.04,-57.53,-2.83,11.961818181818177
12.609375,26.15,-93.58,81.5,-44.84,45.9,141.57,53.23,14.47,-30.18,-64.65,-1.89,11.607272727272727
12.625,43.67,-103.56,69.05,-42.69,47.02,144.31,49.27,14.73,-33.29,-72.18,-1.15,10.47090909090909
12.640625,54.63,-115.07,56.84,-38.28,47.16,146.07,43.87,14.83,-37.6,-81.23,-0.61,8.237272727272726
12.65625,59.54,-127.25,45.16,-31.87,46.0,146.53,37.44,14.37,-43.08,-92.9,-0.32,4.874545454545451
12.671875,59.56,-138.4,34.32,-24.08,43.33,145.61,30.69,13.26,-49.41,-107.67,-0.33,0.6254545454545449
12.6875,55.87,-146.58,24.5,-15.71,39.13,143.31,24.33,11.7,-55.84,-124.93,-0.67,-4.080909090909094
12.703125,49.42,-150.13,15.69,-7.57,33.7,139.65,18.84,10.03,-61.18,-142.46,-1.27,-8.661818181818179
12.71875,41.05,-147.86,7.67,-0.29,27.59,134.6,14.25,8.52,-63.93,-156.71,-1.98,-12.462727272727273
12.734375,31.62,-139.32,0.12,5.73,21.33,128.17,10.14,7.19,-62.66,-163.43,-2.66,-14.888181818181817
12.75,22.11,-124.9,-7.22,10.37,15.28,120.52,5.83,5.83,-56.57,-159.13,-3.21,-15.553636363636366
12.765625,13.48,-106.12,-14.37,13.74,9.5,112.09,0.63,4.1,-45.9,-142.36,-3.62,-14.43909090909091
12.78125,6.42,-85.61,-21.16,16.1,3.76,103.58,-5.8,1.76,-32.05,-114.51,-3.96,-11.951818181818181
12.796875,1.28,-66.86,-27.25,17.73,-2.2,95.65,-13.35,-1.21,-17.25,-79.52,-4.29,-8.842727272727272
12.8125,-2.02,-53.57,-32.38,18.86,-8.47,88.74,-21.43,-4.6,-3.8,-42.65,-4.65,-5.99727272727273
12.828125,-3.8,-48.83,-36.57,19.64,-14.85,82.85,-29.3,-8.1,6.57,-8.85,-4.95,-4.199090909090909
12.84375,-4.49,-54.53,-40.2,20.17,-20.89,77.61,-36.32,-11.41,13.2,18.67,-5.07,-3.932727272727274
12.859375,-4.43,-70.83,-43.96,20.61,-26.19,72.47,-42.24,-14.39,16.49,38.91,-4.85,-5.309999999999999
12.875,-3.84,-96.11,-48.65,21.15,-30.56,66.92,-47.31,-17.06,17.5,52.71,-4.28,-8.139090909090909
12.890625,-2.74,-127.2,-54.91,22.03,-34.2,60.66,-52.18,-19.57,17.42,61.75,-3.47,-12.037272727272727
12.90625,-1.01,-159.85,-63.02,23.42,-37.63,53.67,-57.74,-22.14,17.17,67.61,-2.63,-16.5590909090909
12.921875,1.53,-189.63,-72.91,25.31,-41.49,46.15,-64.78,-25.03,17.19,71.24,-1.99,-21.310000000000002
12.9375,4.9,-212.85,-84.3,27.53,-46.25,38.47,-73.83,-28.47,17.54,72.96,-1.69,-25.999090909090906
12.953125,8.81,-227.58,-96.9,29.81,-52.06,31.05,-84.83,-32.55,18.08,72.89,-1.75,-30.45727272727273
12.96875,12.67,-234.02,-110.66,31.82,-58.72,24.2,-96.92,-37.11,18.64,71.28,-2.08,-34.62727272727273
12.984375,15.73,-234.28,-125.74,33.32,-65.68,18.0,-108.34,-41.63,19.13,68.83,-2.54,-38.472727272727276
13.0,17.34,-231.5,-142.41,34.16,-72.27,12.17,-116.77,-45.23,19.53,66.5,-3.04,-41.95636363636364
13.015625,17.26,-228.7,-161.0,34.23,-77.91,6.08,-119.83,-46.92,19.8,65.32,-3.54,-45.01909090909091
13.03125,15.74,-227.83,-181.81,33.49,-82.25,-1.21,-115.88,-45.9,19.9,65.93,-4.05,-47.62454545454545
13.046875,13.32,-229.61,-205.22,32.0,-85.39,-10.58,-104.56,-41.92,19.74,68.41,-4.61,-49.856363636363646
13.0625,10.54,-233.82,-231.57,30.02,-87.83,-22.51,-87.06,-35.37,19.35,72.19,-5.23,-51.93545454545454
13.078125,7.74,-239.9,-260.72,27.98,-90.44,-36.6,-65.74,-27.18,18.86,76.29,-5.83,-54.14000000000001
13.09375,4.98,-247.36,-291.36,26.48,-94.07,-51.41,-43.37,-18.43,18.55,79.6,-6.27,-56.60545454545454
13.109375,2.11,-255.75,-320.66,26.01,-99.21,-64.54,-22.33,-9.99,18.7,81.23,-6.38,-59.16454545454544
13.125,-1.06,-264.23,-344.45,26.84,-105.54,-73.25,-4.02,-2.37,19.45,80.68,-6.01,-61.26909090909091
13.140625,-4.71,-271.4,-358.42,28.87,-111.84,-75.29,11.18,4.23,20.72,77.89,-5.1,-62.17
13.15625,-8.96,-275.43,-359.85,31.75,-116.09,-69.71,23.67,9.76,22.12,73.1,-3.68,-61.210909090909084
13.171875,-13.94,-274.57,-348.92,35.07,-116.05,-57.25,34.03,14.1,23.1,66.75,-1.85,-58.1390909090909
13.1875,-19.66,-267.91,-328.64,38.54,-109.91,-40.14,42.73,17.04,23.16,59.27,0.22,-53.20909090909092
13.203125,-25.97,-255.89,-303.6,42.08,-96.93,-21.35,49.93,18.45,21.98,51.02,2.4,-47.08000000000001
13.21875,-32.46,-240.34,-277.88,45.75,-77.69,-3.72,55.59,18.48,19.5,42.16,4.57,-40.549090909090914
13.234375,-38.6,-224.19,-253.75,49.58,-54.03,10.75,59.69,17.6,15.9,32.66,6.65,-34.34000000000001
13.25,-43.91,-210.81,-231.63,53.48,-28.55,21.08,62.37,16.5,11.47,22.45,8.58,-28.99727272727273
13.265625,-48.11,-203.42,-211.21,57.2,-3.94,27.07,63.97,15.81,6.52,11.49,10.32,-24.936363636363637
13.28125,-51.29,-204.6,-192.66,60.43,17.66,28.82,64.9,15.81,1.32,-0.06,11.76,-22.53727272727273
13.296875,-53.78,-215.73,-177.08,62.9,35.06,26.46,65.5,16.4,-3.84,-11.73,12.78,-22.096363636363634
13.3125,-56.14,-236.49,-165.71,64.43,48.15,20.06,65.95,17.12,-8.71,-22.91,13.25,-23.727272727272727
13.328125,-59.07,-264.63,-158.8,64.95,57.58,9.82,66.22,17.47,-13.06,-33.04,13.04,-27.229090909090914
13.34375,-63.26,-295.98,-155.07,64.5,64.41,-3.73,66.21,17.12,-16.83,-41.85,12.1,-32.03454545454545
13.359375,-69.13,-325.28,-152.18,63.09,69.53,-19.79,65.87,16.08,-20.13,-49.5,10.55,-37.35363636363636
13.375,-76.43,-347.38,-148.13,60.81,73.48,-37.38,65.23,14.6,-23.23,-56.61,8.67,-42.39727272727273
13.390625,-83.88,-358.68,-142.34,57.8,76.34,-55.51,64.44,13.0,-26.42,-64.12,6.8,-46.597272727272745
13.40625,-89.08,-358.01,-135.69,54.29,78.03,-73.34,63.59,11.49,-29.84,-73.1,5.26,-49.67272727272727
13.421875,-89.12,-346.75,-129.61,50.68,78.55,-90.17,62.7,10.0,-33.36,-84.55,4.19,-51.58545454545454
13.4375,-81.59,-328.09,-124.8,47.42,78.25,-105.47,61.6,8.31,-36.62,-99.01,3.55,-52.404545454545456
13.453125,-65.6,-305.84,-120.61,45.03,77.84,-118.93,60.08,6.13,-39.27,-116.19,3.15,-52.200909090909086
13.46875,-42.37,-283.27,-115.37,43.95,78.08,-130.58,57.98,3.33,-41.13,-134.55,2.79,-51.01272727272728
13.484375,-14.93,-262.47,-107.6,44.52,79.49,-140.92,55.22,-0.01,-42.4,-151.1,2.4,-48.89090909090908
13.5,12.79,-244.24,-97.0,46.91,82.14,-150.88,51.86,-3.61,-43.59,-161.84,1.98,-45.95272727272727
13.515625,37.27,-228.38,-84.56,51.07,85.7,-161.64,47.96,-7.14,-45.36,-162.85,1.59,-42.39454545454545
13.53125,56.26,-214.17,-72.0,56.69,89.55,-174.27,43.57,-10.41,-48.23,-151.6,1.23,-38.48909090909091
13.546875,69.1,-200.78,-60.8,63.19,93.05,-189.34,38.73,-13.41,-52.46,-128.1,0.8,-34.547272727272734
13.5625,76.31,-187.61,-51.69,69.75,95.65,-206.65,33.5,-16.32,-57.91,-95.21,0.23,-30.904545454545453
13.578125,78.96,-174.4,-44.54,75.49,96.89,-225.21,28.05,-19.41,-64.09,-57.9,-0.52,-27.88
13.59375,78.17,-161.16,-38.81,79.6,96.47,-243.42,22.61,-22.88,-70.08,-21.65,-1.39,-25.685454545454544
13.609375,74.82,-148.1,-33.99,81.56,94.25,-259.39,17.43,-26.84,-74.71,9.25,-2.29,-24.364545454545453
13.625,69.59,-135.57,-29.86,81.27,90.42,-271.32,12.63,-31.25,-76.7,32.75,-3.17,-23.746363636363636
13.640625,63.12,-124.09,-26.48,78.95,85.52,-277.84,8.09,-35.99,-74.95,49.17,-4.1,-23.50909090909091
13.65625,56.04,-114.46,-23.97,75.09,80.32,-278.17,3.52,-40.78,-68.94,60.23,-5.21,-23.302727272727278
13.671875,48.96,-107.54,-22.36,70.21,75.65,-272.15,-1.47,-45.15,-58.97,68.01,-6.58,-22.853636363636365
13.6875,42.3,-103.9,-21.57,64.68,72.01,-260.13,-7.13,-48.42,-46.2,73.86,-8.22,-22.065454545454546
13.703125,36.31,-103.34,-21.57,58.69,69.46,-242.76,-13.49,-49.82,-32.33,78.27,-9.91,-20.953636363636367
13.71875,31.02,-104.66,-22.3,52.22,67.6,-220.99,-20.28,-48.67,-19.13,81.02,-11.36,-19.59363636363637
13.734375,26.37,-105.82,-23.71,45.05,65.81,-196.05,-27.06,-44.68,-7.92,81.91,-12.23,-18.030000000000005
13.75,22.38,-104.61,-25.66,36.9,63.5,-169.54,-33.43,-38.06,0.77,81.15,-12.32,-16.265454545454546
13.765625,19.19,-99.44,-27.85,27.45,60.23,-143.33,-39.18,-29.52,7.22,79.51,-11.57,-14.29909090909091
13.78125,16.96,-89.91,-29.94,16.48,55.77,-119.22,-44.41,-20.02,12.13,78.06,-10.1,-12.2
13.796875,15.83,-76.8,-31.67,4.05,50.03,-98.47,-49.49,-10.51,16.31,77.73,-8.13,-10.101818181818182
13.8125,15.77,-61.52,-33.01,-9.43,43.07,-81.45,-54.92,-1.67,20.26,78.95,-5.92,-8.17
13.828125,16.55,-45.48,-34.19,-23.16,35.14,-67.62,-61.27,6.15,24.04,81.47,-3.67,-6.54909090909091
13.84375,17.82,-29.66,-35.53,-36.11,26.75,-55.9,-69.03,12.78,27.42,84.53,-1.51,-5.312727272727271
13.859375,19.17,-14.48,-37.31,-47.36,18.61,-45.35,-78.49,18.17,30.13,87.16,0.49,-4.47818181818182
13.875,20.21,-0.08,-39.64,-56.43,11.45,-35.68,-89.52,22.22,32.09,88.46,2.31,-4.055454545454546
13.890625,20.55,13.49,-42.54,-63.41,5.62,-27.34,-101.25,24.92,33.58,87.9,3.92,-4.05090909090909
13.90625,19.84,26.22,-46.01,-68.89,0.99,-21.12,-111.97,26.35,35.03,85.35,5.26,-4.450000000000001
13.921875,17.89,38.36,-50.05,-73.67,-3.11,-17.53,-119.32,26.79,36.81,80.98,6.29,-5.14181818181818
13.9375,14.64,50.54,-54.68,-78.22,-7.52,-16.42,-120.89,26.69,39.0,75.16,6.94,-5.887272727272729
13.953125,10.36,63.94,-59.78,-82.38,-12.91,-17.06,-115.12,26.49,41.28,68.18,7.23,-6.342727272727273
13.96875,5.52,80.07,-65.08,-85.22,-19.46,-18.52,-101.92,26.54,43.14,60.19,7.16,-6.1436363636363645
13.984375,0.7,100.24,-70.11,-85.31,-26.89,-20.21,-82.87,26.91,44.14,51.15,6.75,-5.045454545454548
14.0,-3.67,124.81,-74.39,-81.21,-34.59,-21.93,-60.77,27.52,44.18,40.91,6.06,-3.007272727272728
14.015625,-7.44,152.59,-77.58,-72.09,-42.01,-23.63,-38.64,28.11,43.54,29.4,5.16,-0.23545454545454672
14.03125,-10.86,180.59,-79.58,-58.18,-48.88,-24.88,-18.79,28.46,42.68,16.78,4.21,2.8681818181818204
14.046875,-14.38,204.75,-80.52,-40.79,-55.24,-24.64,-2.26,28.42,41.94,3.51,3.38,5.833636363636364
14.0625,-18.49,221.15,-80.62,-21.98,-61.39,-21.44,11.06,27.94,41.32,-9.71,2.82,8.241818181818179
14.078125,-23.52,227.71,-80.09,-3.96,-67.78,-14.01,21.94,27.04,40.46,-22.12,2.57,9.839999999999998
14.09375,-29.5,225.31,-78.99,11.55,-74.95,-2.01,31.17,25.73,38.87,-33.15,2.6,10.602727272727272
14.109375,-36.07,217.88,-77.28,23.7,-83.31,13.71,39.18,24.02,36.18,-42.61,2.78,10.743636363636366
14.125,-42.73,211.34,-74.93,32.54,-93.03,31.23,46.03,21.87,32.45,-50.7,2.95,10.638181818181817
14.140625,-48.89,211.6,-72.01,38.73,-103.67,48.29,51.62,19.2,28.06,-57.99,3.0,10.721818181818179
14.15625,-54.15,222.73,-68.75,43.1,-113.91,63.01,55.93,15.95,23.65,-65.3,2.86,11.374545454545453
14.171875,-58.45,245.82,-65.48,46.33,-121.63,74.42,59.09,12.15,19.74,-73.56,2.51,12.812727272727273
14.1875,-62.05,278.94,-62.53,48.82,-124.37,82.38,61.36,7.94,16.57,-83.73,1.92,15.022727272727264
14.203125,-65.54,318.02,-60.05,50.68,-120.06,87.34,62.98,3.61,14.0,-96.49,1.12,17.782727272727268
14.21875,-69.62,357.94,-58.04,51.95,-107.83,89.97,64.1,-0.51,11.7,-111.98,0.13,20.71
14.234375,-74.99,393.61,-56.22,52.72,-88.46,90.84,64.8,-4.17,9.25,-129.24,-0.99,23.377272727272725
14.25,-82.12,420.75,-54.21,53.22,-64.14,90.44,65.1,-7.32,6.38,-145.92,-2.18,25.45454545454545
14.265625,-90.92,436.34,-51.72,53.9,-37.82,89.21,65.05,-10.21,3.04,-158.44,-3.36,26.824545454545447
14.28125,-100.49,438.93,-48.58,55.36,-12.31,87.53,64.77,-13.23,-0.64,-162.81,-4.48,27.64090909090909
14.296875,-108.91,428.83,-44.91,58.33,10.42,85.74,64.36,-16.83,-4.37,-155.96,-5.56,28.285454545454538
14.3125,-113.49,407.83,-40.97,63.48,29.54,84.0,63.9,-21.3,-7.89,-136.97,-6.63,29.227272727272727
14.328125,-111.4,378.68,-37.04,71.2,45.09,82.3,63.34,-26.63,-10.99,-107.77,-7.71,30.824545454545458
14.34375,-100.74,344.33,-33.31,81.38,57.64,80.59,62.59,-32.49,-13.62,-72.61,-8.73,33.18454545454545
14.359375,-81.3,307.3,-29.89,93.29,67.85,78.82,61.47,-38.27,-15.93,-36.8,-9.56,36.089090909090906
14.375,-54.92,269.36,-26.87,105.55,76.23,77.12,59.79,-43.19,-18.27,-4.93,-9.99,39.080000000000005
14.390625,-25.03,231.59,-24.33,116.27,83.16,75.69,57.41,-46.44,-21.06,20.34,-9.83,41.61545454545455
14.40625,4.42,194.69,-22.45,123.36,88.91,74.73,54.25,-47.33,-24.74,38.61,-8.94,43.22818181818182
14.421875,30.17,159.2,-21.36,124.83,93.73,74.3,50.33,-45.47,-29.52,51.15,-7.29,43.64272727272727
14.4375,50.38,125.62,-21.13,119.33,97.81,74.26,45.77,-40.85,-35.33,59.73,-5.02,42.77909090909091
14.453125,64.75,94.39,-21.76,106.4,101.25,74.31,40.79,-33.89,-41.64,65.75,-2.35,40.72727272727273
14.46875,73.99,65.83,-23.15,86.7,104.12,74.11,35.62,-25.29,-47.52,69.82,0.42,37.695454545454545
14.484375,79.13,40.21,-25.28,61.93,106.44,73.33,30.51,-15.89,-51.8,71.98,3.05,33.96454545454546
14.5,81.02,17.72,-28.22,34.49,108.3,71.78,25.64,-6.42,-53.32,72.24,5.35,29.87090909090909
14.515625,80.18,-1.41,-32.05,6.86,109.8,69.45,21.13,2.53,-51.24,70.97,7.19,25.764545454545456
14.53125,77.04,-17.15,-36.78,-18.85,111.08,66.47,16.97,10.57,-45.34,68.98,8.53,21.956363636363637
14.546875,72.14,-29.68,-42.2,-41.31,112.24,63.08,13.05,17.47,-36.18,67.33,9.31,18.65909090909091
14.5625,66.23,-39.54,-47.91,-60.05,113.34,59.49,9.17,23.05,-25.02,66.89,9.52,15.92454545454546
14.578125,60.11,-47.54,-53.51,-75.25,114.33,55.83,5.06,27.22,-13.51,68.06,9.13,13.63
14.59375,54.43,-54.51,-58.74,-87.42,115.08,52.1,0.46,29.97,-3.22,70.66,8.21,11.547272727272729
14.609375,49.47,-61.06,-63.63,-97.1,115.3,48.18,-4.72,31.43,4.89,74.12,6.9,9.434545454545455
14.625,45.11,-67.44,-68.44,-104.7,114.57,43.98,-10.43,31.87,10.61,77.62,5.45,7.10909090909091
14.640625,41.01,-73.56,-73.42,-110.45,112.26,39.45,-16.48,31.68,14.36,80.42,4.1,4.4881818181818165
14.65625,36.87,-79.15,-78.55,-114.5,107.82,34.75,-22.61,31.25,16.84,81.92,3.1,1.6127272727272703
14.671875,32.66,-84.12,-83.48,-117.01,100.95,30.08,-28.59,30.91,18.54,81.76,2.56,-1.4309090909090931
14.6875,28.68,-88.83,-87.63,-118.2,91.78,25.65,-34.27,30.82,19.55,79.7,2.44,-4.573636363636357
14.703125,25.45,-94.27,-90.61,-118.34,80.94,21.59,-39.66,31.02,19.64,75.69,2.56,-7.817272727272728
14.71875,23.43,-101.87,-92.58,-117.73,69.31,17.88,-44.86,31.35,18.55,69.78,2.73,-11.273636363636362
14.734375,22.78,-113.1,-94.44,-116.64,57.71,14.43,-50.15,31.59,16.28,62.23,2.79,-15.138181818181819
14.75,23.24,-128.75,-97.77,-115.27,46.61,11.1,-55.9,31.51,13.29,53.43,2.62,-19.626363636363635
14.765625,24.17,-148.33,-104.35,-113.77,35.94,7.8,-62.68,30.93,10.3,43.93,2.26,-24.89090909090909
14.78125,24.8,-169.74,-115.79,-112.3,25.28,4.49,-70.98,29.81,8.01,34.21,1.74,-30.95181818181818
14.796875,24.48,-189.55,-133.1,-111.03,14.12,1.24,-80.94,28.24,6.82,24.56,1.12,-37.64000000000001
14.8125,22.87,-203.81,-156.37,-110.11,2.21,-1.89,-91.96,26.35,6.65,15.03,0.47,-44.59636363636364
14.828125,19.97,-209.14,-184.6,-109.54,-10.24,-4.86,-102.49,24.22,7.15,5.42,-0.21,-51.301818181818184
14.84375,16.12,-203.83,-215.62,-109.17,-22.62,-7.73,-110.23,21.82,7.88,-4.44,-0.89,-57.155454545454546
14.859375,11.79,-188.21,-246.15,-108.62,-34.18,-10.68,-112.74,19.05,8.62,-14.53,-1.57,-61.56545454545455
14.875,7.51,-164.48,-272.31,-107.48,-44.28,-14.1,-108.33,15.77,9.34,-24.52,-2.27,-64.10454545454546
14.890625,3.62,-135.93,-290.38,-105.44,-52.82,-18.47,-96.71,11.95,10.14,-33.86,-3.04,-64.63090909090909
14.90625,0.17,-105.98,-297.8,-102.4,-60.17,-24.26,-79.26,7.85,11.04,-42.07,-3.94,-63.34727272727275
14.921875,-3.11,-77.4,-294.03,-98.54,-67.17,-31.64,-58.54,3.84,11.85,-49.08,-5.0,-60.80181818181818
14.9375,-6.79,-52.01,-280.67,-94.17,-74.66,-40.22,-37.4,0.3,12.18,-55.44,-6.21,-57.73545454545456
14.953125,-11.47,-30.78,-261.0,-89.64,-83.18,-48.94,-18.15,-2.55,11.61,-62.22,-7.43,-54.88636363636363
14.96875,-17.51,-14.19,-238.85,-85.18,-92.74,-56.16,-1.99,-4.87,9.95,-70.8,-8.43,-52.79727272727271
14.984375,-24.83,-2.51,-217.3,-80.93,-102.76,-60.01,10.98,-7.1,7.35,-82.31,-8.93,-51.66818181818182
15.0,-32.86,4.13,-198.02,-76.93,-112.38,-59.0,21.28,-9.83,4.24,-97.13,-8.71,-51.38272727272727
15.015625,-40.74,5.79,-181.12,-73.17,-120.79,-52.47,29.6,-13.57,1.16,-114.35,-7.67,-51.57545454545454
15.03125,-47.67,2.91,-165.71,-69.53,-127.57,-40.88,36.35,-18.44,-1.52,-131.6,-5.87,-51.775454545454544
15.046875,-53.2,-3.61,-150.65,-65.82,-132.82,-25.66,41.69,-24.23,-3.72,-145.3,-3.52,-51.530909090909084
15.0625,-57.46,-12.56,-135.15,-61.75,-137.14,-8.72,45.64,-30.37,-5.7,-151.43,-0.94,-50.50727272727273
15.078125,-61.05,-22.51,-118.9,-57.01,-141.5,8.0,48.3,-36.06,-7.85,-146.84,1.61,-48.52818181818182
15.09375,-64.86,-32.14,-101.89,-51.43,-147.05,23.06,50.0,-40.47,-10.53,-130.37,3.91,-45.61545454545454
15.109375,-69.84,-40.37,-84.11,-45.01,-154.91,35.54,51.13,-42.88,-13.91,-103.47,5.88,-41.99545454545455
15.125,-76.75,-46.51,-65.41,-38.04,-165.76,45.05,52.13,-42.76,-17.97,-69.96,7.48,-38.04545454545454
15.140625,-85.9,-50.35,-45.46,-30.92,-179.37,51.58,53.21,-39.89,-22.59,-34.84,8.74,-34.16272727272727
15.15625,-96.8,-52.09,-23.94,-24.07,-194.16,55.33,54.37,-34.38,-27.54,-2.74,9.67,-30.577272727272724
15.171875,-107.96,-52.26,-0.61,-17.73,-207.21,56.73,55.41,-26.68,-32.54,23.31,10.23,-27.210000000000004
15.1875,-116.88,-51.58,24.74,-11.93,-214.89,56.37,56.06,-17.46,-37.29,42.38,10.39,-23.64454545454545
15.203125,-120.46,-50.66,52.41,-6.46,-213.99,54.97,56.11,-7.57,-41.44,55.24,10.15,-19.245454545454546
15.21875,-115.96,-50.01,82.75,-0.93,-202.92,53.17,55.54,2.17,-44.74,63.41,9.49,-13.457272727272727
15.234375,-102.0,-49.92,115.79,5.04,-182.38,51.43,54.44,11.04,-47.18,68.27,8.52,-6.086363636363638
15.25,-79.18,-50.6,150.61,11.73,-155.11,49.94,53.06,18.53,-49.07,70.62,7.37,2.5363636363636357
15.265625,-50.15,-52.24,184.97,19.17,-124.83,48.72,51.59,24.31,-51.05,70.79,6.23,11.591818181818182
15.28125,-18.82,-55.1,215.36,27.16,-94.99,47.73,50.11,28.29,-53.86,69.13,5.27,20.02545454545455
15.296875,10.89,-59.56,237.95,35.26,-67.75,47.03,48.51,30.55,-58.13,66.36,4.56,26.87909090909091
15.3125,36.08,-66.07,249.81,42.95,-43.85,46.78,46.5,31.37,-64.07,63.62,4.08,31.563636363636363
15.328125,55.42,-75.06,250.09,49.73,-23.12,47.14,43.71,31.17,-71.27,62.17,3.68,33.96909090909091
15.34375,68.94,-86.81,240.31,55.37,-5.25,48.18,39.9,30.44,-78.67,62.93,3.18,34.410909090909094
15.359375,77.39,-101.01,223.87,59.91,9.77,49.73,35.05,29.67,-84.71,66.07,2.43,33.47
15.375,81.64,-116.49,204.81,63.68,21.67,51.48,29.49,29.23,-87.76,70.89,1.43,31.824545454545454
15.390625,82.35,-131.05,186.5,67.07,30.28,52.97,23.75,29.23,-86.49,76.13,0.27,30.09181818181818
15.40625,80.05,-141.74,170.92,70.31,35.9,53.82,18.46,29.59,-80.32,80.4,-0.89,28.772727272727273
15.421875,75.41,-145.45,158.54,73.36,39.42,53.81,14.0,30.05,-69.64,82.65,-1.93,28.20181818181818
15.4375,69.32,-140.22,148.83,75.85,41.97,52.91,10.4,30.37,-55.76,82.46,-2.85,28.479999999999997
15.453125,62.81,-126.05,140.75,77.32,44.51,51.22,7.24,30.36,-40.51,80.0,-3.76,29.44454545454545
15.46875,56.74,-104.87,133.2,77.39,47.49,48.92,3.91,30.01,-25.75,75.78,-4.77,30.731818181818177
15.484375,51.47,-79.71,125.18,75.9,50.81,46.18,-0.18,29.37,-12.82,70.36,-5.98,31.870909090909095
15.5,46.84,-53.52,115.82,72.93,53.99,43.14,-5.29,28.53,-2.25,64.13,-7.38,32.449090909090906
15.515625,42.36,-28.18,104.46,68.61,56.56,39.99,-11.28,27.49,6.19,57.18,-8.95,32.22090909090909
15.53125,37.68,-4.3,90.99,63.02,58.32,36.9,-17.64,26.14,13.29,49.41,-10.61,31.200000000000003
15.546875,32.88,18.49,76.06,56.14,59.44,34.05,-23.75,24.34,19.89,40.67,-12.28,29.63
15.5625,28.57,41.26,61.16,47.92,60.37,31.49,-29.11,21.94,26.56,30.87,-13.88,27.922727272727276
15.578125,25.54,64.85,48.47,38.41,61.55,29.09,-33.6,18.92,33.38,20.14,-15.23,26.50181818181818
15.59375,24.39,89.59,40.27,27.88,63.1,26.55,-37.46,15.43,40.06,8.83,-16.15,25.680909090909093
15.609375,25.11,115.26,38.19,16.7,64.74,23.57,-41.18,11.75,46.09,-2.5,-16.4,25.575454545454548
15.625,27.09,141.16,42.49,5.33,65.68,19.96,-45.35,8.19,51.05,-13.19,-15.84,26.051818181818188
15.640625,29.25,166.15,51.83,-5.75,65.0,15.85,-50.51,5.08,54.8,-22.75,-14.41,26.776363636363637
15.65625,30.49,188.65,63.52,-16.06,61.99,11.61,-57.03,2.55,57.5,-30.96,-12.22,27.276363636363637
15.671875,30.02,206.95,74.53,-25.05,56.45,7.7,-64.98,0.53,59.52,-38.01,-9.47,27.108181818181812
15.6875,27.61,219.68,82.46,-32.24,48.76,4.38,-73.98,-1.26,61.24,-44.47,-6.42,25.978181818181813
15.703125,23.56,227.2,86.37,-37.4,39.66,1.62,-82.96,-3.29,62.84,-51.15,-3.34,23.919090909090915
15.71875,18.55,230.87,86.85,-40.71,29.97,-0.94,-90.24,-6.01,64.27,-58.94,-0.44,21.202727272727273
15.734375,13.39,232.72,85.5,-42.76,20.26,-3.82,-93.76,-9.72,65.33,-68.64,2.08,18.234545454545454
15.75,8.69,234.79,83.99,-44.35,10.83,-7.44,-91.71,-14.39,65.83,-80.76,4.08,15.414545454545458
15.765625,4.69,238.62,83.36,-46.13,1.69,-11.97,-83.29,-19.62,65.67,-95.24,5.45,13.020909090909093
15.78125,1.14,244.97,83.78,-48.33,-7.25,-17.23,-69.06,-24.6,64.9,-110.98,6.18,11.22909090909091
15.796875,-2.59,253.63,84.84,-50.79,-16.14,-22.82,-50.91,-28.34,63.64,-125.65,6.3,10.106363636363634
15.8125,-7.27,263.76,86.03,-53.16,-25.14,-28.26,-31.4,-29.81,61.99,-135.91,5.98,9.71
15.828125,-13.39,274.15,87.12,-55.29,-34.35,-33.16,-12.91,-28.24,59.96,-138.14,5.4,10.104545454545455
15.84375,-20.93,285.39,88.18,-57.38,-43.7,-37.34,3.06,-23.38,57.56,-129.77,4.73,11.49272727272727
15.859375,-29.31,297.43,89.31,-60.04,-52.86,-40.96,16.08,-15.56,54.77,-110.35,4.08,13.87181818181818
15.875,-37.67,308.99,90.34,-64.04,-61.28,-44.48,26.4,-5.67,51.62,-82.04,3.47,16.87636363636363
15.890625,-45.24,317.91,90.77,-70.0,-68.21,-48.62,34.5,5.13,48.23,-49.04,2.88,19.846363636363638
15.90625,-51.69,322.32,89.96,-77.99,-73.14,-54.16,40.64,15.7,44.74,-16.29,2.27,22.03272727272728
15.921875,-57.19,321.53,87.49,-87.24,-75.96,-61.57,44.79,25.25,41.33,12.12,1.69,22.930909090909086
15.9375,-62.32,316.02,83.4,-96.2,-77.1,-70.59,47.0,33.47,38.13,34.04,1.2,22.459090909090904
15.953125,-67.83,307.04,78.2,-102.7,-77.25,-80.04,47.63,40.49,35.21,49.35,0.9,21.000000000000004
15.96875,-74.45,295.94,72.69,-104.57,-77.07,-87.89,47.46,46.67,32.54,59.28,0.83,19.220909090909092
15.984375,-82.75,287.48,67.66,-100.33,-76.9,-91.83,47.48,52.36,29.93,65.4,0.95,18.13181818181818
16.0,-92.82,284.43,63.65,-89.83,-76.74,-90.03,48.42,57.7,27.07,68.78,1.18,18.346363636363638
16.015625,-103.94,286.45,60.79,-74.38,-76.49,-81.89,50.5,62.52,23.64,69.88,1.37,19.85909090909091
16.03125,-114.31,290.94,58.81,-56.37,-76.26,-68.29,53.24,66.45,19.41,68.78,1.42,22.16545454545454
16.046875,-121.07,295.31,57.11,-38.51,-76.5,-51.35,55.81,68.95,14.41,65.82,1.25,24.65727272727273
16.0625,-121.05,298.43,54.95,-22.95,-77.88,-33.67,57.38,69.47,8.88,61.84,0.82,26.929090909090906
16.078125,-111.84,300.33,51.66,-10.92,-80.86,-17.46,57.67,67.51,3.28,58.14,0.14,28.87727272727272
16.09375,-92.9,301.42,46.89,-2.66,-85.26,-4.04,56.96,62.64,-1.97,56.03,-0.75,30.578181818181807
16.109375,-66.01,301.56,40.75,2.16,-89.9,6.26,56.04,54.66,-6.59,56.35,-1.78,32.13636363636365
16.125,-34.81,306.22,33.83,4.0,-92.78,13.72,55.68,43.73,-10.59,59.03,-2.87,34.105454545454556
16.140625,-3.54,318.06,26.98,3.21,-91.48,18.88,56.22,30.51,-14.26,63.13,-3.95,36.70545454545454
16.15625,24.25,335.32,20.98,0.14,-83.95,22.21,57.29,16.12,-18.05,67.24,-5.05,39.68181818181818
16.171875,46.61,352.98,16.29,-4.77,-69.18,24.05,57.96,1.98,-22.47,69.95,-6.21,42.471818181818186
16.1875,63.11,366.18,12.79,-10.81,-47.59,24.71,57.06,-10.56,-27.93,70.4,-7.41,44.54090909090909
16.203125,74.29,372.37,10.05,-17.1,-20.93,24.54,53.73,-20.51,-34.58,68.4,-8.59,45.60636363636364
16.21875,80.86,371.13,7.51,-22.79,8.22,23.96,47.67,-27.49,-42.19,64.35,-9.51,45.6109090909091
16.234375,83.38,363.2,4.78,-27.35,37.18,23.33,39.31,-31.7,-50.04,58.94,-9.9,44.64818181818182
16.25,82.29,349.14,1.76,-30.64,63.78,22.89,29.72,-33.69,-56.97,52.74,-9.55,42.86090909090909
16.265625,78.29,337.35,-1.46,-32.84,86.68,22.67,20.44,-34.13,-61.6,46.05,-8.43,41.18363636363637
16.28125,72.45,332.69,-4.83,-34.31,105.41,22.6,13.28,-33.61,-62.69,38.78,-6.68,40.28090909090909
16.296875,66.04,333.98,-8.42,-35.33,120.08,22.52,9.99,-32.58,-59.55,30.63,-4.55,40.25545454545455
16.3125,60.17,335.16,-12.45,-35.94,131.09,22.34,11.9,-31.39,-52.31,21.26,-2.28,40.686363636363645
16.328125,55.38,329.86,-17.07,-35.94,138.87,22.11,19.47,-30.31,-41.95,10.54,-0.01,40.99545454545455
16.34375,51.55,314.77,-22.2,-34.9,143.74,21.96,31.97,-29.54,-30.0,-1.34,2.21,40.74727272727273
16.359375,48.11,290.14,-27.58,-32.4,146.08,22.08,47.5,-29.18,-18.13,-13.8,4.34,39.74181818181818
16.375,44.49,259.18,-32.89,-28.21,146.34,22.56,63.39,-29.24,-7.72,-26.02,6.33,38.019090909090906
16.390625,40.51,181.44,-37.97,-22.46,145.09,23.29,76.87,-29.62,0.46,-37.17,8.06,31.681818181818176
16.40625,36.48,45.82,-42.93,-15.75,143.0,23.93,85.77,-30.14,6.33,-46.71,9.36,19.560000000000002
16.421875,33.1,-128.36,-47.89,-8.93,140.7,23.91,88.91,-30.55,10.32,-54.63,10.15,3.3390909090909044
16.4375,31.16,-303.14,-52.71,-2.89,138.58,22.76,86.1,-30.43,13.12,-61.43,10.4,-13.498181818181818
16.453125,31.06,-448.52,-56.75,1.77,136.77,20.21,77.8,-29.23,15.38,-68.01,10.15,-28.124545454545455
16.46875,32.73,-554.84,-58.95,4.94,135.1,16.42,64.74,-26.43,17.53,-75.44,9.53,-39.515454545454546
16.484375,35.49,-626.6,-58.21,6.97,133.35,11.93,47.68,-21.62,19.77,-84.73,8.66,-47.937272727272735
16.5,38.26,-672.75,-53.99,8.46,131.3,7.48,27.63,-14.64,22.0,-96.62,7.66,-54.11000000000001
16.515625,39.91,-697.29,-46.64,9.94,128.91,3.83,6.05,-5.71,24.06,-111.32,6.65,-58.32818181818182
16.53125,39.61,-709.4,-37.29,11.6,126.31,1.5,-14.96,4.73,25.77,-128.11,5.71,-61.32090909090909
16.546875,37.06,-707.5,-27.43,13.28,123.75,0.78,-32.82,16.22,27.05,-145.01,4.94,-62.69818181818182
16.5625,32.55,-691.06,-18.27,14.53,121.41,1.62,-45.15,28.28,27.9,-158.82,4.39,-62.056363636363635
16.578125,26.84,-663.38,-10.37,14.89,119.41,3.75,-50.51,40.63,28.37,-165.65,4.09,-59.26636363636363
16.59375,20.82,-630.28,-3.62,14.14,117.66,6.68,-48.96,53.06,28.51,-162.12,3.99,-54.55636363636363
16.609375,15.21,-595.87,2.42,12.38,115.84,9.83,-42.08,65.33,28.36,-146.64,4.03,-48.290000000000006
16.625,10.31,-560.49,8.12,10.01,113.46,12.58,-32.47,76.94,28.0,-120.25,4.09,-40.88181818181819
16.640625,5.89,-524.59,13.49,7.55,109.94,14.52,-22.92,87.11,27.53,-86.53,4.06,-33.086363636363636
16.65625,1.37,-487.92,18.29,5.52,104.9,15.47,-15.63,94.89,27.1,-50.55,3.86,-25.7
16.671875,-3.96,-451.91,22.16,4.19,98.4,15.58,-11.67,99.52,26.85,-17.19,3.45,-19.507272727272728
16.6875,-10.61,-412.37,24.91,3.53,90.95,15.16,-11.0,100.83,26.78,10.28,2.87,-14.424545454545456
16.703125,-18.63,-367.62,26.57,3.19,83.42,14.47,-12.78,99.42,26.76,30.77,2.15,-10.207272727272729
16.71875,-27.58,-319.42,27.35,2.62,76.6,13.57,-15.77,96.47,26.45,45.11,1.34,-6.659999999999997
16.734375,-36.66,-271.77,27.5,1.26,70.83,12.25,-18.86,93.25,25.51,55.0,0.45,-3.7490909090909046
16.75,-45.01,-227.86,27.18,-1.21,65.89,10.24,-21.22,90.84,23.65,62.02,-0.51,-1.4536363636363634
16.765625,-52.08,-188.5,26.41,-4.73,61.2,7.33,-22.49,90.09,20.81,67.09,-1.57,0.3236363636363658
16.78125,-57.84,-152.86,25.2,-8.84,56.13,3.59,-22.71,91.7,17.23,70.46,-2.7,1.7599999999999978
16.796875,-62.83,-119.44,23.59,-12.87,50.48,-0.62,-22.13,96.3,13.36,72.08,-3.88,3.0945454545454556
16.8125,-68.06,-87.97,21.78,-16.13,44.5,-4.85,-21.09,104.21,9.71,72.12,-5.08,4.467272727272727
16.828125,-74.72,-55.03,20.04,-18.19,38.72,-8.72,-19.81,115.04,6.6,71.13,-6.3,6.25090909090909
16.84375,-83.7,-19.96,18.71,-19.04,33.55,-12.11,-18.39,127.3,4.05,69.98,-7.55,8.44
16.859375,-95.18,14.42,18.02,-19.1,28.94,-15.19,-16.82,138.58,1.79,69.56,-8.79,10.566363636363638
16.875,-108.13,43.19,17.96,-19.08,24.43,-18.39,-15.16,146.2,-0.63,70.45,-9.92,11.90181818181818
16.890625,-120.18,62.37,18.31,-19.81,19.31,-22.25,-13.62,148.23,-3.57,72.73,-10.73,11.889999999999999
16.90625,-127.95,70.8,18.68,-22.03,12.99,-27.29,-12.49,144.27,-7.09,75.9,-11.02,10.433636363636365
16.921875,-127.95,69.99,18.66,-26.1,5.36,-33.78,-12.0,135.53,-10.99,79.13,-10.59,7.932727272727272
16.9375,-117.7,63.13,18.02,-31.63,-3.15,-41.51,-12.22,124.25,-14.85,81.5,-9.4,5.130909090909092
16.953125,-96.79,53.04,16.67,-37.31,-11.78,-49.7,-12.96,112.65,-18.29,82.31,-7.55,2.753636363636362
16.96875,-67.2,43.83,14.72,-40.92,-19.71,-56.99,-13.81,102.05,-21.18,81.11,-5.23,1.515454545454544
16.984375,-32.87,37.68,12.37,-39.84,-26.45,-61.71,-14.3,92.67,-23.67,77.86,-2.68,1.732727272727273
17.0,1.55,34.6,9.81,-31.96,-31.99,-62.41,-13.98,83.86,-26.19,72.74,-0.13,3.2636363636363637
17.015625,32.02,33.23,7.21,-16.43,-36.89,-58.23,-12.68,74.66,-29.29,66.1,2.26,5.632727272727272
17.03125,56.09,32.24,4.63,5.71,-42.09,-49.31,-10.69,64.3,-33.44,58.37,4.36,8.197272727272727
17.046875,73.18,30.99,2.05,31.83,-48.65,-36.66,-8.79,52.54,-38.89,49.94,6.1,10.33090909090909
17.0625,84.07,29.16,-0.63,58.44,-57.38,-21.95,-8.22,39.77,-45.46,41.05,7.41,11.478181818181817
17.078125,90.06,26.39,-3.61,82.32,-68.53,-6.96,-10.21,27.11,-52.48,31.78,8.28,11.286363636363637
17.09375,92.33,21.68,-7.0,101.34,-81.51,6.83,-15.56,16.11,-58.79,22.04,8.78,9.659090909090907
17.109375,91.63,14.57,-10.82,114.74,-94.84,18.46,-24.15,8.52,-62.96,11.73,8.95,6.893636363636362
17.125,88.46,4.54,-14.87,122.84,-106.31,27.51,-34.89,5.64,-63.62,0.82,8.88,3.5454545454545463
17.140625,83.31,-8.62,-18.8,126.37,-113.54,33.98,-46.04,7.76,-59.95,-10.46,8.6,0.23727272727272578
17.15625,76.91,-24.27,-22.28,126.05,-114.57,38.06,-55.86,13.66,-52.02,-21.68,8.15,-2.5318181818181817
17.171875,70.1,-40.35,-25.1,122.29,-108.45,40.1,-63.25,20.56,-40.82,-32.32,7.54,-4.518181818181818
17.1875,63.72,-53.61,-27.32,115.41,-95.6,40.5,-67.95,24.69,-28.02,-41.95,6.86,-5.751818181818181
17.203125,58.32,-60.47,-29.23,105.81,-77.63,39.79,-70.42,22.45,-15.39,-50.44,6.22,-6.453636363636363
17.21875,54.06,-58.06,-31.31,94.15,-56.87,38.55,-71.46,11.72,-4.25,-58.01,5.73,-6.886363636363635
17.234375,50.83,-45.27,-33.98,81.28,-35.75,37.35,-71.94,-7.11,4.81,-65.28,5.43,-7.239090909090908
17.25,48.4,-22.92,-37.51,68.11,-16.24,36.66,-72.67,-30.91,11.9,-73.17,5.28,-7.551818181818181
17.265625,46.6,6.48,-41.88,55.43,0.44,36.74,-74.51,-54.62,17.55,-82.81,5.17,-7.764545454545455
17.28125,45.38,39.57,-46.65,43.84,13.81,37.56,-78.21,-72.83,22.3,-95.2,5.0,-7.766363636363635
17.296875,44.79,72.99,-50.97,33.75,23.98,38.91,-83.84,-81.54,26.43,-110.74,4.75,-7.408181818181816
17.3125,44.88,104.09,-53.69,25.4,31.38,40.5,-90.23,-79.6,30.0,-128.57,4.45,-6.4899999999999975
17.328125,45.63,131.13,-53.64,18.97,36.5,42.05,-94.9,-69.04,32.96,-146.22,4.22,-4.758181818181821
17.34375,46.9,153.1,-50.0,14.61,39.85,43.44,-94.7,-54.55,35.32,-159.8,4.08,-1.9772727272727286
17.359375,48.4,169.51,-42.71,12.33,41.85,44.66,-87.17,-41.74,37.28,-165.03,4.01,1.944545454545454
17.375,49.69,180.2,-32.51,12.01,42.91,45.78,-71.87,-35.37,39.09,-158.62,3.88,6.835454545454542
17.390625,50.18,185.24,-20.76,13.23,43.39,46.81,-50.76,-37.9,40.95,-139.62,3.52,12.207272727272727
17.40625,49.3,185.02,-9.01,15.29,43.63,47.68,-27.64,-49.03,42.94,-110.01,2.87,17.36727272727273
17.421875,46.65,180.28,1.6,17.28,43.94,48.17,-6.4,-66.3,44.96,-74.2,1.92,21.62727272727273
17.4375,42.16,171.94,10.5,18.29,44.51,48.0,10.56,-86.32,46.88,-37.59,0.79,24.519999999999996
17.453125,36.18,161.04,17.8,17.7,45.44,46.91,23.21,-105.87,48.51,-4.89,-0.39,25.967272727272732
17.46875,29.31,148.44,23.9,15.32,46.76,44.82,33.36,-122.49,49.76,21.14,-1.53,26.253636363636364
17.484375,22.21,134.77,29.16,11.44,48.46,41.89,43.38,-134.52,50.54,40.0,-2.58,25.886363636363637
17.5,15.42,120.42,33.7,6.64,50.48,38.51,54.7,-140.81,50.82,52.9,-3.51,25.388181818181817
17.515625,9.13,105.68,37.38,1.55,52.76,35.2,67.2,-140.87,50.58,61.72,-4.34,25.090000000000007
17.53125,3.19,90.85,40.0,-3.31,55.16,32.35,79.47,-135.55,49.82,68.06,-5.1,24.99454545454545
17.546875,-2.83,76.37,41.44,-7.73,57.42,30.13,89.86,-127.59,48.58,72.79,-5.85,24.780909090909088
17.5625,-9.37,62.7,41.83,-11.64,59.19,28.37,97.49,-121.52,46.82,76.1,-6.69,23.934545454545457
17.578125,-16.75,50.23,41.44,-15.09,60.05,26.63,102.74,-122.13,44.5,77.9,-7.7,21.983636363636364
17.59375,-24.92,39.09,40.63,-18.07,59.65,24.47,107.02,-132.36,41.5,78.3,-8.87,18.767272727272726
17.609375,-33.44,29.04,39.79,-20.59,57.76,21.6,112.04,-151.31,37.74,77.76,-10.06,14.575454545454544
17.625,-41.67,19.62,39.25,-22.65,54.41,18.09,119.05,-173.95,33.28,77.03,-11.01,10.131818181818183
17.640625,-48.97,10.33,39.25,-24.37,49.88,14.29,128.16,-192.72,28.4,76.85,-11.42,6.334545454545454
17.65625,-54.99,0.85,39.95,-25.93,44.6,10.72,138.03,-200.51,23.52,77.67,-11.02,3.8990909090909103
17.671875,-59.84,-8.77,41.31,-27.61,39.01,7.79,146.07,-193.73,19.09,79.46,-9.76,3.001818181818182
17.6875,-64.05,-18.19,43.04,-29.62,33.39,5.59,148.76,-173.83,15.33,81.78,-7.77,3.1299999999999994
17.703125,-68.43,-27.0,44.6,-31.99,27.79,3.87,142.17,-146.68,12.15,84.06,-5.33,3.2009090909090885
17.71875,-73.87,-34.93,45.31,-34.54,22.08,2.11,122.69,-120.15,9.13,85.77,-2.77,1.8936363636363625
17.734375,-81.12,-42.12,44.54,-36.92,16.06,-0.21,87.98,-101.1,5.74,86.48,-0.35,-1.9109090909090911
17.75,-90.58,-49.12,41.97,-38.8,9.67,-3.38,38.16,-93.06,1.57,85.96,1.82,-8.708181818181819
17.765625,-101.96,-56.84,37.63,-40.09,3.04,-7.37,-23.17,-95.59,-3.46,83.95,3.71,-18.195454545454545
17.78125,-114.0,-66.28,31.96,-41.05,-3.51,-11.83,-88.67,-105.15,-9.05,80.2,5.36,-29.274545454545454
17.796875,-124.35,-78.06,25.6,-42.28,-9.58,-16.28,-148.48,-116.76,-14.67,74.48,6.78,-40.32727272727273
17.8125,-129.86,-91.96,19.16,-44.44,-14.86,-20.35,-192.68,-125.69,-19.77,66.75,7.91,-49.61727272727273
17.828125,-127.42,-106.56,13.02,-48.01,-19.27,-23.83,-214.46,-128.47,-24.07,57.27,8.66,-55.74000000000001
17.84375,-115.04,-119.26,7.28,-52.93,-22.99,-26.8,-212.48,-123.28,-27.62,46.6,8.96,-57.959999999999994
17.859375,-92.7,-126.71,1.83,-58.72,-26.41,-29.5,-191.31,-109.83,-30.81,35.49,8.82,-56.34999999999998
17.875,-62.63,-125.69,-3.47,-64.61,-29.97,-32.32,-159.56,-89.18,-34.21,24.58,8.33,-51.70272727272727
17.890625,-28.68,-114.21,-8.58,-69.99,-34.05,-35.72,-126.59,-63.76,-38.38,14.24,7.68,-45.27636363636364
17.90625,4.82,-92.16,-13.31,-74.62,-38.81,-40.14,-99.35,-37.0,-43.74,4.41,7.05,-38.440909090909095
17.921875,34.25,-61.53,-17.27,-78.76,-44.11,-45.84,-80.76,-12.94,-50.37,-5.23,6.55,-32.36454545454546
17.9375,57.48,-25.76,-20.23,-83.03,-49.62,-52.67,-70.16,4.85,-58.02,-15.03,6.18,-27.819090909090903
17.953125,73.93,11.26,-22.2,-88.16,-54.89,-59.88,-65.13,14.42,-65.97,-25.08,5.86,-25.076363636363634
17.96875,84.21,46.27,-23.53,-94.86,-59.64,-66.11,-63.37,16.39,-73.08,-35.13,5.46,-23.94454545454545
17.984375,89.44,77.19,-24.81,-103.52,-63.86,-69.7,-63.62,13.85,-77.91,-44.68,4.91,-23.882727272727266
18.0,90.78,103.22,-26.64,-113.93,-67.94,-69.16,-65.38,11.29,-79.14,-53.28,4.24,-24.176363636363632
18.015625,89.22,124.36,-29.48,-124.93,-72.59,-63.76,-68.06,12.76,-75.96,-60.86,3.57,-24.15727272727273
18.03125,85.6,140.9,-33.41,-134.2,-78.56,-53.79,-70.54,20.2,-68.43,-67.95,3.05,-23.375454545454545
18.046875,80.62,153.02,-38.1,-138.62,-86.32,-40.54,-71.48,32.79,-57.51,-75.66,2.8,-21.727272727272723
18.0625,74.86,160.73,-42.83,-135.1,-95.71,-25.83,-70.13,47.52,-44.83,-85.36,2.85,-19.43909090909091
18.078125,68.89,164.06,-46.54,-121.86,-105.73,-11.41,-67.12,60.73,-32.13,-98.21,3.11,-16.928181818181816
18.09375,63.12,163.32,-48.16,-99.33,-114.6,1.49,-64.43,69.68,-20.84,-114.54,3.39,-14.62727272727273
18.109375,57.91,159.14,-46.82,-70.37,-120.13,12.36,-64.58,73.45,-11.68,-133.21,3.52,-12.764545454545454
18.125,53.53,152.5,-42.16,-39.41,-120.27,21.22,-69.25,72.76,-4.64,-151.5,3.35,-11.26090909090909
18.140625,50.21,144.46,-34.5,-10.95,-113.79,28.37,-78.25,69.1,0.76,-165.37,2.85,-9.737272727272726
18.15625,48.02,135.97,-24.77,11.8,-100.68,34.05,-89.2,63.99,5.24,-170.56,2.1,-7.640000000000001
18.171875,46.96,127.68,-14.22,27.64,-82.23,38.36,-98.28,58.56,9.36,-163.89,1.2,-4.4418181818181806
18.1875,46.91,120.03,-4.04,37.1,-60.67,41.4,-101.57,53.86,13.4,-144.56,0.26,0.19272727272727394
18.203125,47.63,113.3,4.98,41.58,-38.57,43.42,-96.59,51.13,17.37,-114.66,-0.66,6.266363636363637
18.21875,48.84,107.77,12.54,42.47,-18.1,44.87,-83.17,51.74,21.06,-78.66,-1.54,13.43818181818182
18.234375,50.17,103.69,18.8,40.74,-0.69,46.29,-63.44,56.57,24.22,-42.01,-2.43,21.082727272727276
18.25,51.24,101.13,24.04,37.04,13.16,48.17,-40.88,65.42,26.71,-9.45,-3.35,28.475454545454543
18.265625,51.68,99.82,28.51,31.97,23.55,50.69,-19.07,76.73,28.52,16.27,-4.32,34.94090909090909
18.28125,51.2,99.09,32.24,26.32,30.97,53.74,-0.53,88.19,29.82,34.69,-5.28,40.040909090909096
18.296875,49.66,98.01,35.1,20.95,35.9,57.04,13.73,97.68,30.82,47.06,-6.21,43.61272727272728
18.3125,47.04,95.68,36.91,16.52,38.74,60.38,23.98,104.24,31.71,55.27,-7.07,45.76363636363636
18.328125,43.5,91.57,37.6,13.24,39.86,63.71,31.21,108.28,32.59,60.89,-7.83,46.78363636363636
18.34375,39.22,85.73,37.25,10.96,39.68,67.27,36.45,111.07,33.49,64.73,-8.48,47.03363636363636
18.359375,34.42,78.75,36.08,9.35,38.7,71.28,40.41,113.87,34.44,67.02,-8.94,46.85272727272727
18.375,29.27,71.48,34.37,8.2,37.53,75.86,43.48,117.23,35.44,67.82,-9.11,46.50636363636364
18.390625,23.88,64.78,32.33,7.61,36.73,80.83,45.85,120.86,36.47,67.48,-8.85,46.17909090909091
18.40625,18.32,59.25,30.06,7.95,36.64,85.81,47.64,124.12,37.39,66.64,-8.06,45.97818181818181
18.421875,12.68,55.12,27.62,9.66,37.34,90.4,48.93,126.7,37.93,66.11,-6.7,45.980909090909094
18.4375,7.04,52.25,25.04,12.99,38.71,94.34,49.76,128.95,37.76,66.47,-4.85,46.22363636363636
18.453125,1.48,50.18,22.5,17.85,40.48,97.66,50.06,131.96,36.62,67.89,-2.62,46.73272727272727
18.46875,-4.03,48.22,20.25,23.75,42.41,100.61,49.66,136.9,34.44,70.1,-0.17,47.46727272727273
18.484375,-9.61,45.49,18.61,29.88,44.27,103.51,48.28,144.43,31.4,72.59,2.34,48.290000000000006
18.5,-15.47,41.03,17.81,35.32,45.86,106.72,45.51,154.26,27.82,74.84,4.76,48.950909090909086
18.515625,-21.78,34.0,17.83,39.3,46.97,110.47,41.05,165.13,24.14,76.51,6.95,49.14272727272728
18.53125,-28.52,23.79,18.31,41.41,47.41,114.97,34.89,175.14,20.68,77.45,8.81,48.57636363636363
18.546875,-35.44,10.33,18.67,41.72,47.03,120.31,27.64,182.41,17.61,77.48,10.28,47.094545454545454
18.5625,-42.02,-5.7,18.24,40.7,45.75,126.54,20.65,185.54,15.0,76.34,11.35,44.76272727272727
18.578125,-47.73,-22.71,16.56,39.03,43.58,133.48,15.7,184.0,12.8,73.65,12.07,41.85727272727273
18.59375,-52.24,-38.22,13.51,37.35,40.59,140.68,14.37,178.03,10.92,69.1,12.54,38.78454545454546
18.609375,-55.64,-49.25,9.42,36.03,36.83,147.42,17.28,168.45,9.26,62.66,12.86,35.938181818181825
18.625,-58.53,-52.93,4.91,35.08,32.37,152.88,23.62,156.3,7.62,54.65,13.18,33.559090909090905
18.640625,-61.86,-47.28,0.62,34.22,27.32,156.38,31.33,142.58,5.78,45.69,13.66,31.676363636363636
18.65625,-66.67,-31.66,-3.07,33.03,21.9,157.59,37.82,127.97,3.47,36.49,14.41,30.11636363636364
18.671875,-73.79,-6.96,-6.17,31.19,16.5,156.55,40.97,112.73,0.52,27.47,15.46,28.588181818181816
18.6875,-83.38,24.67,-9.08,28.64,11.49,153.53,39.9,96.62,-3.1,18.73,16.66,26.789090909090916
18.703125,-94.63,60.38,-12.37,25.63,7.14,148.84,35.1,78.86,-7.19,10.05,17.67,24.49818181818182
18.71875,-105.57,97.14,-16.52,22.56,3.44,142.74,28.0,58.46,-11.38,1.1,18.06,21.63909090909091
18.734375,-113.28,132.17,-21.76,19.85,0.1,135.49,20.23,34.68,-15.29,-8.28,17.56,18.315454545454546
18.75,-114.52,163.08,-27.9,17.66,-3.32,127.5,12.96,7.46,-18.68,-17.93,16.27,14.780000000000003
18.765625,-106.81,188.17,-34.42,15.91,-7.23,119.48,6.68,-22.47,-21.58,-27.42,14.77,11.370909090909093
18.78125,-89.37,206.56,-40.38,14.32,-11.86,112.32,1.3,-53.98,-24.31,-36.24,13.95,8.39181818181818
18.796875,-63.64,218.38,-44.65,12.6,-17.17,106.95,-3.38,-86.31,-27.32,-44.03,14.65,6.007272727272729
18.8125,-32.99,224.79,-46.13,10.64,-22.92,103.92,-7.54,-119.43,-31.05,-50.83,17.22,4.15272727272727
18.828125,-1.67,227.6,-44.0,8.52,-28.84,103.26,-11.19,-153.97,-35.7,-57.13,21.29,2.5609090909090897
18.84375,26.51,228.69,-38.17,6.5,-34.69,104.39,-14.41,-190.37,-41.05,-63.84,25.83,0.8536363636363624
18.859375,49.12,229.35,-29.31,4.77,-40.36,106.34,-17.54,-227.93,-46.46,-72.17,29.51,-1.3345454545454574
18.875,65.39,229.88,-18.72,3.34,-45.84,108.02,-21.39,-264.2,-50.89,-83.26,31.21,-4.223636363636363
18.890625,75.82,229.68,-7.94,2.01,-51.13,108.64,-26.99,-295.49,-53.16,-97.6,30.42,-7.794545454545457
18.90625,81.4,227.68,1.82,0.45,-56.33,107.93,-35.23,-318.0,-52.25,-114.47,27.35,-11.786363636363633
18.921875,83.1,222.93,9.96,-1.64,-61.57,106.22,-46.33,-329.35,-47.68,-131.56,22.77,-15.740909090909097
18.9375,81.65,215.11,16.59,-4.4,-67.16,104.17,-59.41,-329.55,-39.64,-145.18,17.64,-19.107272727272733
18.953125,77.66,204.58,22.13,-7.78,-73.58,102.42,-72.47,-321.0,-29.04,-151.16,12.72,-21.410909090909087
18.96875,71.84,192.08,26.99,-11.62,-81.29,101.23,-82.75,-307.77,-17.28,-146.18,8.34,-22.40090909090909
18.984375,65.13,178.3,31.31,-15.63,-90.47,100.18,-87.54,-294.27,-5.77,-129.09,4.32,-22.13909090909091
19.0,58.45,163.57,34.96,-19.61,-100.61,98.36,-84.99,-284.33,4.38,-101.54,0.07,-21.026363636363637
19.015625,52.59,147.8,37.73,-23.33,-110.31,94.63,-74.64,-280.28,12.67,-67.57,-5.11,-19.619999999999997
19.03125,47.91,130.8,39.54,-26.74,-117.45,88.14,-57.6,-282.51,19.14,-32.36,-11.81,-18.44909090909091
19.046875,44.42,112.58,40.56,-29.91,-119.8,78.48,-36.12,-289.1,24.17,-0.58,-20.26,-17.77818181818182
19.0625,41.91,93.65,41.06,-33.13,-115.68,65.8,-12.99,-296.17,28.23,24.84,-30.21,-17.51727272727273
19.078125,40.16,74.88,41.34,-36.95,-104.69,50.49,9.19,-298.59,31.61,43.13,-40.99,-17.31090909090909
19.09375,39.11,57.12,41.56,-42.06,-87.83,33.0,28.48,-291.31,34.36,55.19,-51.66,-16.73090909090909
19.109375,38.86,40.82,41.74,-48.96,-67.23,13.73,43.85,-271.07,36.38,62.61,-61.24,-15.500909090909092
19.125,39.56,25.69,41.79,-57.62,-45.44,-7.01,55.1,-237.65,37.56,66.81,-68.93,-13.649090909090908
19.140625,41.2,10.88,41.66,-67.1,-24.72,-28.73,62.65,-194.42,37.96,68.6,-74.22,-11.476363636363631
19.15625,43.5,-4.73,41.35,-75.57,-6.6,-50.83,67.27,-147.52,37.79,68.3,-76.96,-9.454545454545455
19.171875,45.84,-22.0,40.99,-80.69,8.24,-72.67,69.77,-104.06,37.43,66.22,-77.31,-8.021818181818183
19.1875,47.48,-41.34,40.78,-80.42,19.77,-93.83,70.93,-69.79,37.27,62.99,-75.58,-7.430909090909092
19.203125,47.81,-62.55,40.96,-73.64,28.36,-114.32,71.37,-47.24,37.5,59.71,-72.02,-7.64181818181818
19.21875,46.56,-84.97,41.73,-60.74,34.52,-134.57,71.55,-35.2,38.08,57.66,-66.7,-8.370909090909091
19.234375,43.92,-107.58,43.13,-43.38,38.8,-155.18,71.79,-29.68,38.75,57.82,-59.46,-9.18818181818182
19.25,40.44,-129.25,44.9,-23.95,41.7,-176.57,72.34,-26.1,39.16,60.47,-50.03,-9.717272727272729
19.265625,36.71,-148.85,46.51,-4.74,43.64,-198.68,73.3,-21.33,39.01,65.01,-38.36,-9.798181818181819
19.28125,33.21,-165.49,47.32,12.56,44.95,-220.92,74.65,-14.83,38.17,70.26,-24.95,-9.551818181818176
19.296875,30.03,-178.89,46.75,27.1,45.87,-242.44,76.11,-8.15,36.67,74.81,-10.94,-9.37090909090909
19.3125,26.99,-189.46,44.55,38.64,46.62,-262.51,77.26,-3.31,34.65,77.56,1.86,-9.74090909090909
19.328125,23.69,-198.25,41.0,47.27,47.34,-280.72,77.6,-1.15,32.21,77.95,11.51,-11.049999999999999
19.34375,19.75,-206.41,36.78,53.22,48.2,-296.92,76.67,-0.52,29.37,75.99,16.4,-13.406363636363636
19.359375,14.93,-214.46,32.7,56.79,49.27,-310.77,74.23,0.91,26.09,72.07,15.89,-16.577272727272728
19.375,9.31,-221.82,29.45,58.43,50.59,-321.38,70.24,5.04,22.31,66.69,10.68,-20.04181818181818
19.390625,3.23,-226.7,27.33,58.68,52.08,-327.29,64.86,11.84,18.06,60.27,2.86,-23.161818181818184
19.40625,-2.83,-226.71,26.25,58.01,53.66,-326.88,58.4,19.18,13.43,53.04,-4.47,-25.356363636363643
19.421875,-8.4,-219.84,25.81,56.6,55.22,-319.0,51.18,24.02,8.66,45.07,-7.98,-26.24181818181818
19.4375,-13.27,-205.33,25.39,54.36,56.66,-303.51,43.5,24.18,4.0,36.26,-4.89,-25.69545454545454
19.453125,-17.62,-184.07,24.25,51.09,57.86,-281.28,35.64,19.69,-0.26,26.52,6.27,-23.81
19.46875,-21.93,-158.31,21.52,46.74,58.57,-254.0,27.78,12.76,-3.94,15.86,25.54,-20.855454545454545
19.484375,-26.81,-130.85,16.43,41.73,58.53,-223.73,20.0,6.67,-6.93,4.53,51.69,-17.158181818181816
19.5,-32.67,-104.22,8.64,36.83,57.44,-192.7,12.29,4.07,-9.29,-6.95,82.75,-13.07363636363636
