Timestamp,Participant_11,Participant_12,Participant_13,Participant_14,Participant_15,Participant_16,Participant_17,Participant_18,Participant_22,Participant_23,Participant_24,Average
0.0,7.29,-364.58,23.23,-12.52,64.0,35.87,40.55,9.36,1.52,-0.23,-410.56,-55.097272727272724
0.015625,6.36,-328.18,26.54,1.96,-0.0,34.89,43.03,9.46,-0.46,9.92,-368.43,-51.355454545454556
0.03125,5.49,-293.7,26.69,14.17,-0.0,32.09,44.17,6.4,-3.06,18.7,-314.45,-42.13636363636363
0.046875,4.63,-262.83,24.08,23.31,-0.0,28.48,44.03,1.09,-6.04,24.74,-257.09,-34.14545454545454
0.0625,3.71,-235.45,19.64,29.24,-0.0,25.35,42.83,-5.02,-9.06,27.37,-205.58,-27.90636363636364
0.078125,2.73,-210.72,14.37,32.27,-0.0,24.05,40.97,-10.47,-11.8,26.77,-167.26,-23.553636363636368
0.09375,1.69,-188.08,8.89,33.03,-0.0,25.52,38.9,-14.13,-14.18,23.67,-145.15,-20.894545454545458
0.109375,0.65,-167.59,3.37,32.24,-0.0,30.02,37.0,-15.33,-16.34,19.02,-136.63,-19.417272727272724
0.125,-0.34,-149.49,-2.28,30.67,-0.0,37.09,35.43,-13.78,-18.62,13.86,-134.31,-18.342727272727274
0.140625,-1.27,-133.7,-8.11,28.98,-0.0,45.76,34.1,-9.54,-21.34,8.96,-128.67,-16.80272727272727
0.15625,-2.11,-119.57,-13.85,27.65,-0.0,55.05,32.84,-2.99,-24.62,4.94,-111.79,-14.04090909090909
0.171875,-2.89,-106.08,-18.9,26.81,0.0,64.25,31.44,5.04,-28.17,2.18,-80.26,-9.68909090909091
0.1875,-3.55,-92.41,-22.51,26.27,0.01,73.13,29.8,13.28,-31.36,0.83,-36.03,-3.8672727272727268
0.203125,-4.05,-78.28,-24.18,25.62,0.01,81.63,27.92,20.17,-33.38,0.8,14.76,2.8200000000000016
0.21875,-4.32,-64.07,-23.92,24.49,-0.0,89.6,25.81,24.21,-33.52,1.71,64.18,9.47
0.234375,-4.28,-50.63,-22.26,22.77,-0.03,96.47,23.36,24.33,-31.48,3.06,104.7,15.091818181818182
0.25,-3.9,-38.76,-20.13,20.73,-0.05,101.25,20.41,20.27,-27.5,4.33,130.36,18.819090909090907
0.265625,-3.24,-28.83,-18.43,18.94,-0.05,102.79,16.75,12.73,-22.3,5.22,137.22,20.072727272727274
0.28125,-2.45,-20.65,-17.63,18.01,0.0,100.15,12.33,3.17,-16.78,5.78,123.68,18.69181818181818
0.296875,-1.7,-13.58,-17.65,18.33,0.13,92.96,7.34,-6.43,-11.82,6.39,91.19,15.014545454545452
0.3125,-1.15,-6.75,-17.84,19.77,0.36,81.65,2.24,-14.15,-7.88,7.46,44.78,9.862727272727273
0.328125,-0.88,0.52,-17.45,21.78,0.66,67.47,-2.5,-18.58,-5.11,9.22,-7.53,4.327272727272727
0.34375,-0.86,8.53,-15.93,23.52,1.01,52.3,-6.49,-19.17,-3.44,11.48,-56.91,-0.5418181818181825
0.359375,-1.0,17.16,-13.22,24.24,1.37,38.26,-9.67,-16.33,-2.71,13.63,-96.86,-4.102727272727273
0.375,-1.21,25.94,-9.84,23.54,1.72,27.39,-12.2,-11.29,-2.85,14.95,-125.55,-6.3090909090909095
0.390625,-1.41,34.34,-6.62,21.45,2.06,21.08,-14.37,-5.75,-3.81,14.8,-145.92,-7.6499999999999995
0.40625,-1.63,41.99,-4.42,18.3,2.4,19.76,-16.41,-1.54,-5.48,12.98,-163.6,-8.877272727272727
0.421875,-1.88,48.72,-3.83,14.47,2.79,22.72,-18.36,-0.17,-7.69,9.69,-183.73,-10.66090909090909
0.4375,-2.13,54.68,-4.92,10.35,3.24,28.29,-20.13,-2.53,-10.17,5.45,-208.56,-13.311818181818182
0.453125,-2.29,60.25,-7.38,6.42,3.8,34.29,-21.58,-8.53,-12.58,0.98,-236.57,-16.653636363636362
0.46875,-2.26,65.86,-10.59,3.3,4.42,38.57,-22.64,-17.15,-14.62,-3.05,-264.27,-20.22090909090909
0.484375,-1.95,71.94,-13.94,1.63,5.06,39.73,-23.38,-26.57,-16.07,-6.05,-288.17,-23.433636363636367
0.5,-1.43,78.73,-16.97,1.67,5.66,37.41,-23.99,-34.77,-16.85,-7.77,-306.0,-25.846363636363638
0.515625,-0.89,86.31,-19.49,2.96,6.2,32.27,-24.66,-40.22,-17.06,-8.29,-316.76,-27.23909090909091
0.53125,-0.57,94.56,-21.53,4.27,6.68,25.72,-25.59,-42.44,-17.02,-8.18,-320.01,-27.64636363636364
0.546875,-0.61,103.21,-23.23,4.15,7.15,19.47,-26.87,-42.1,-17.12,-8.25,-315.46,-27.24181818181818
0.5625,-0.96,111.96,-24.72,1.63,7.68,14.98,-28.52,-40.59,-17.73,-9.4,-303.25,-26.265454545454546
0.578125,-1.28,120.57,-26.06,-3.16,8.31,13.04,-30.31,-39.32,-18.92,-12.14,-284.42,-24.88090909090909
0.59375,-1.17,129.04,-27.29,-9.11,9.14,13.69,-31.77,-39.03,-20.48,-16.42,-260.85,-23.113636363636367
0.609375,-0.35,137.67,-28.45,-14.79,10.09,16.24,-32.2,-39.79,-21.88,-21.49,-235.3,-20.931818181818183
0.625,1.2,146.96,-29.63,-19.37,11.04,19.65,-30.85,-41.15,-22.6,-26.18,-210.76,-18.335454545454546
0.640625,3.19,157.61,-30.85,-23.14,11.88,22.82,-27.22,-42.68,-22.28,-29.39,-189.44,-15.409090909090908
0.65625,5.08,170.12,-32.0,-27.22,12.56,24.97,-21.36,-44.3,-20.98,-30.48,-172.16,-12.342727272727272
0.671875,6.46,184.69,-32.77,-32.76,13.14,25.71,-13.98,-46.17,-19.07,-29.66,-158.39,-9.345454545454544
0.6875,7.09,201.13,-32.69,-40.07,13.76,25.12,-6.29,-48.38,-17.1,-27.72,-146.72,-6.5336363636363615
0.703125,7.0,218.89,-31.39,-48.33,14.65,23.57,0.31,-50.67,-15.61,-25.73,-135.54,-3.8954545454545477
0.71875,6.31,237.31,-28.84,-56.11,15.96,21.64,4.69,-52.33,-14.89,-24.4,-123.71,-1.3063636363636355
0.734375,5.11,255.8,-25.42,-62.22,17.91,19.99,6.23,-52.65,-14.95,-23.79,-110.05,1.4509090909090956
0.75,3.37,274.16,-21.88,-66.35,20.32,19.29,4.96,-51.23,-15.66,-23.28,-94.37,4.484545454545458
0.765625,1.0,292.63,-19.0,-69.24,22.9,20.23,1.46,-48.32,-16.87,-21.91,-77.46,7.765454545454543
0.78125,-1.95,312.01,-17.29,-72.19,25.38,23.39,-3.44,-44.8,-18.53,-19.03,-60.67,11.170909090909092
0.796875,-5.2,333.62,-16.84,-76.31,27.58,29.09,-8.81,-41.88,-20.79,-14.54,-45.09,14.620909090909093
0.8125,-8.23,358.98,-17.35,-82.07,29.57,37.19,-13.82,-40.73,-23.77,-9.17,-31.01,18.144545454545458
0.828125,-10.49,389.17,-18.33,-89.07,31.68,47.09,-17.78,-42.0,-27.37,-4.07,-17.76,21.91545454545455
0.84375,-11.6,423.89,-19.29,-96.23,34.32,57.87,-20.22,-45.63,-31.08,-0.34,-4.12,26.142727272727278
0.859375,-11.45,460.89,-19.78,-102.3,37.81,68.72,-20.95,-50.75,-33.99,1.42,11.28,30.99090909090909
0.875,-10.24,495.82,-19.39,-106.15,42.54,79.33,-20.02,-55.85,-35.14,1.3,31.57,36.70636363636363
0.890625,-8.28,523.18,-17.71,-107.21,48.15,90.06,-17.71,-59.38,-33.87,-0.08,58.77,43.265454545454546
0.90625,-5.78,537.78,-14.47,-105.46,54.1,101.94,-14.42,-60.18,-30.17,-1.94,92.84,50.38545454545454
0.921875,-2.84,536.2,-9.66,-101.38,59.83,116.38,-10.47,-58.08,-24.57,-3.73,131.95,57.60272727272727
0.9375,0.61,517.71,-3.67,-95.72,64.97,134.95,-6.09,-53.92,-17.88,-5.05,173.72,64.51181818181819
0.953125,4.65,484.21,2.88,-89.24,69.58,159.27,-1.44,-49.08,-10.74,-5.65,216.46,70.99090909090908
0.96875,9.25,439.5,9.41,-82.45,74.14,190.65,3.36,-44.73,-3.38,-5.13,259.37,77.27181818181818
0.984375,14.29,388.09,15.78,-75.47,79.34,229.78,8.11,-41.07,4.13,-3.0,302.31,83.84454545454545
1.0,19.58,334.45,22.5,-67.93,85.71,275.96,12.66,-37.0,11.59,1.24,345.29,91.27727272727272
1.015625,24.91,282.33,30.61,-59.07,93.76,326.7,17.07,-30.48,18.43,7.65,392.44,100.39545454545454
1.03125,30.12,234.6,41.35,-47.89,103.0,377.68,21.72,-19.18,23.83,15.77,446.45,111.58636363636364
1.046875,35.17,192.98,55.61,-33.49,112.62,423.52,27.36,-1.33,27.11,24.76,506.88,124.65363636363637
1.0625,40.05,157.89,73.55,-15.37,121.73,459.12,34.87,23.69,28.23,33.68,570.42,138.89636363636365
1.078125,44.66,128.5,94.39,6.45,129.77,480.79,44.92,55.36,27.97,42.12,633.14,153.4609090909091
1.09375,48.84,103.23,116.57,31.47,136.75,487.02,57.5,92.29,27.8,50.16,692.19,167.62
1.109375,52.37,80.7,138.13,58.9,143.3,478.22,71.78,132.59,29.31,58.3,745.79,180.85363636363635
1.125,55.01,60.49,157.1,87.93,150.75,456.04,86.19,174.45,33.63,66.97,792.38,192.81272727272727
1.140625,56.54,43.64,172.04,117.86,157.77,422.63,98.8,216.38,41.14,76.08,829.88,202.9781818181818
1.15625,56.77,32.1,182.37,148.11,166.64,380.2,107.91,257.43,51.42,85.01,862.72,211.88000000000002
1.171875,55.41,27.73,188.45,178.11,177.95,331.26,112.49,297.03,63.48,92.7,893.75,219.8509090909091
1.1875,52.1,31.39,191.45,207.29,191.79,278.62,112.43,334.86,76.15,98.09,921.84,226.91000000000003
1.203125,46.47,42.42,193.03,235.13,206.97,225.4,108.49,370.47,88.5,100.44,942.36,232.69818181818184
1.21875,38.37,58.94,194.56,261.35,220.57,174.42,102.08,402.83,100.05,99.48,950.74,236.67181818181817
1.234375,28.11,78.51,196.48,285.9,228.25,127.44,94.75,430.0,110.94,95.29,945.22,238.2627272727273
1.25,16.6,98.79,197.8,308.66,225.36,84.49,87.68,448.95,121.69,88.21,926.73,236.81454545454545
1.265625,5.23,117.63,195.97,328.75,208.53,44.01,81.2,455.78,132.93,78.61,897.41,231.4590909090909
1.28125,-4.45,132.75,187.36,344.23,176.87,3.15,74.39,446.41,144.91,66.76,858.67,221.00454545454548
1.296875,-11.25,141.57,168.39,352.05,132.76,-41.55,65.23,417.99,157.33,52.9,819.9,205.0290909090909
1.3125,-14.63,141.54,136.97,348.86,80.05,-93.04,51.06,370.4,169.3,37.28,787.61,183.21818181818182
1.328125,-14.8,131.43,93.41,332.2,23.07,-152.35,29.58,307.09,179.53,20.37,762.17,155.6090909090909
1.34375,-12.62,112.16,40.47,301.38,-34.94,-217.34,-0.15,234.66,186.43,2.81,738.8,122.8781818181818
1.359375,-9.26,87.11,-17.63,257.64,-92.44,-282.19,-36.93,160.96,188.17,-14.63,712.66,86.67818181818183
1.375,-6.02,60.82,-76.4,203.83,-149.16,-338.28,-77.21,92.53,182.83,-31.27,682.42,49.46272727272728
1.390625,-4.0,37.04,-131.98,143.71,-205.23,-376.71,-115.66,32.6,168.62,-46.62,650.26,13.820909090909089
1.40625,-3.98,17.11,-181.25,81.57,-260.37,-391.44,-146.47,-19.07,144.79,-60.3,619.62,-18.16272727272726
1.421875,-6.15,-0.19,-221.45,22.1,-313.74,-381.85,-164.88,-64.64,112.3,-71.81,539.48,-50.07545454545454
1.4375,-10.14,-17.33,-250.1,-29.76,-363.87,-353.47,-168.41,-105.75,74.3,-80.36,387.17,-83.42909090909089
1.453125,-15.09,-36.03,-265.32,-69.53,-409.83,-316.12,-157.51,-141.78,35.46,-84.93,176.59,-116.73545454545456
1.46875,-19.91,-55.93,-266.79,-94.28,-450.91,-280.59,-135.29,-170.0,0.65,-84.74,-48.62,-146.03727272727272
1.484375,-23.67,-74.7,-256.43,-103.74,-486.5,-255.14,-106.49,-187.34,-26.74,-79.86,-245.75,-167.85090909090908
1.5,-25.91,-89.56,-238.16,-100.59,-515.74,-243.49,-76.21,-192.7,-45.78,-71.43,-394.22,-181.25363636363636
1.515625,-26.69,-98.85,-216.79,-89.65,-537.23,-244.81,-48.68,-188.11,-57.87,-61.55,-494.41,-187.69454545454545
1.53125,-26.4,-102.91,-196.2,-76.07,-549.22,-255.36,-26.62,-178.02,-65.58,-52.44,-556.52,-189.57636363636365
1.546875,-25.57,-103.54,-178.24,-63.64,-549.96,-270.61,-11.08,-167.13,-71.23,-45.66,-592.25,-188.99181818181816
1.5625,-24.53,-102.72,-162.48,-53.86,-538.37,-286.68,-1.85,-158.21,-76.05,-41.47,-612.05,-187.1154545454545
1.578125,-23.41,-101.53,-147.15,-46.28,-514.21,-300.88,2.13,-151.14,-80.25,-39.06,-617.62,-183.5818181818182
1.59375,-22.11,-99.91,-130.49,-39.61,-478.67,-311.36,2.25,-143.64,-83.65,-37.06,-608.77,-177.5472727272727
1.609375,-20.56,-97.21,-111.77,-32.83,-433.88,-316.75,0.07,-133.27,-86.31,-34.32,-588.64,-168.6790909090909
1.625,-18.8,-93.12,-91.57,-25.82,-382.45,-316.19,-2.88,-119.08,-88.58,-30.48,-564.99,-157.63272727272727
1.640625,-17.02,-88.15,-71.44,-19.15,-327.02,-309.5,-5.19,-102.26,-90.74,-25.89,-545.77,-145.64818181818183
1.65625,-15.44,-83.5,-53.26,-13.56,-269.84,-297.55,-5.89,-85.38,-92.54,-21.4,-536.62,-134.0890909090909
1.671875,-14.23,-80.54,-38.7,-9.57,-212.63,-282.18,-4.64,-71.08,-93.06,-17.81,-540.11,-124.04999999999997
1.6875,-13.39,-80.12,-28.83,-7.26,-156.66,-265.97,-1.93,-60.67,-91.21,-15.69,-547.26,-115.3627272727273
1.703125,-12.8,-82.23,-23.7,-6.37,-102.95,-251.47,1.18,-53.68,-86.28,-15.18,-552.01,-107.77181818181816
1.71875,-12.24,-86.03,-22.29,-6.51,-52.37,-240.32,3.43,-48.53,-78.44,-16.19,-544.37,-100.3509090909091
1.734375,-11.57,-90.16,-22.75,-7.27,-5.9,-232.71,3.89,-43.62,-68.7,-18.5,-519.64,-92.44818181818182
1.75,-10.79,-93.27,-22.88,-8.38,35.58,-227.55,2.34,-38.29,-58.48,-21.96,-479.91,-83.96272727272728
1.765625,-10.0,-94.41,-20.81,-9.85,71.43,-222.93,-0.68,-33.08,-49.04,-26.49,-432.35,-75.29181818181819
1.78125,-9.37,-93.35,-15.64,-11.85,101.35,-217.07,-4.15,-29.19,-41.1,-31.99,-383.96,-66.93818181818182
1.796875,-8.97,-90.62,-7.57,-14.56,125.5,-209.08,-7.11,-27.53,-34.73,-38.19,-339.49,-59.304545454545455
1.8125,-8.78,-87.43,2.16,-17.94,144.38,-199.41,-9.06,-28.02,-29.55,-44.55,-300.36,-52.59636363636364
1.828125,-8.64,-85.36,11.84,-21.62,158.69,-189.53,-10.15,-29.48,-25.05,-50.34,-265.79,-46.857272727272736
1.84375,-8.39,-85.84,19.82,-24.99,169.15,-181.22,-10.97,-30.09,-20.8,-54.83,-235.63,-42.162727272727274
1.859375,-7.91,-89.64,25.01,-27.49,176.37,-175.6,-12.22,-28.23,-16.62,-57.62,-205.14,-38.099090909090904
1.875,-7.24,-96.38,27.03,-28.96,180.75,-172.49,-14.28,-23.02,-12.52,-58.7,-170.99,-34.25454545454546
1.890625,-6.49,-104.4,26.18,-29.86,182.57,-170.36,-17.06,-14.63,-8.63,-58.36,-132.64,-30.334545454545456
1.90625,-5.77,-111.1,23.12,-31.08,182.07,-166.82,-20.06,-4.04,-5.04,-56.87,-96.21,-26.527272727272724
1.921875,-5.11,-113.55,18.63,-33.61,179.51,-159.64,-22.66,7.36,-1.81,-54.15,-62.71,-22.521818181818183
1.9375,-4.42,-109.31,13.36,-38.14,175.23,-147.57,-24.42,18.21,1.1,-49.79,-32.8,-18.05
1.953125,-3.54,-97.01,7.84,-44.85,169.65,-130.98,-25.26,27.33,3.68,-43.24,-6.08,-12.950909090909091
1.96875,-2.33,-76.67,2.56,-53.41,163.18,-111.67,-25.44,33.74,5.85,-34.3,18.51,-7.27090909090909
1.984375,-0.82,-49.47,-1.93,-63.18,156.15,-92.17,-25.52,36.56,7.38,-23.47,41.02,-1.4045454545454534
2.0,0.8,-17.46,-4.99,-73.47,148.81,-74.86,-26.17,34.96,8.03,-11.94,63.57,4.29818181818182
2.015625,2.21,16.95,-5.93,-83.7,141.3,-61.17,-27.97,28.45,7.54,-1.16,87.16,9.425454545454546
2.03125,3.04,51.34,-4.16,-93.46,133.69,-51.28,-31.15,17.23,5.6,7.67,111.55,13.642727272727273
2.046875,3.03,83.53,0.58,-102.36,126.02,-44.35,-35.47,2.39,1.95,14.1,135.15,16.779090909090908
2.0625,2.15,111.78,8.02,-109.87,118.33,-39.01,-40.05,-14.2,-3.71,18.47,156.67,18.96181818181818
2.078125,0.62,134.88,17.25,-115.15,110.69,-34.09,-43.58,-30.33,-11.47,21.57,174.57,20.45090909090909
2.09375,-1.13,152.13,26.79,-117.13,103.16,-29.03,-44.63,-44.02,-21.1,24.18,187.97,21.562727272727273
2.109375,-2.66,163.22,34.89,-114.74,95.8,-24.03,-42.1,-54.07,-31.99,26.66,196.23,22.473636363636363
2.125,-3.63,168.3,40.05,-107.41,88.68,-19.82,-35.66,-60.12,-43.22,28.91,197.56,23.058181818181822
2.140625,-3.93,167.91,41.44,-95.44,81.83,-17.26,-25.88,-62.48,-53.81,30.52,195.58,23.49818181818182
2.15625,-3.65,163.04,39.15,-80.08,75.25,-16.81,-14.03,-61.8,-63.05,31.09,191.57,23.698181818181812
2.171875,-3.05,155.18,34.06,-63.29,68.95,-18.32,-1.69,-58.84,-70.61,30.42,186.1,23.537272727272725
2.1875,-2.38,146.11,27.55,-47.12,62.95,-20.96,9.75,-54.41,-76.51,28.58,179.17,22.975454545454546
2.203125,-1.79,137.56,21.18,-33.13,57.25,-23.55,19.46,-49.47,-80.97,25.81,171.09,22.130909090909093
2.21875,-1.27,130.66,16.61,-22.1,51.86,-25.02,27.13,-45.04,-84.26,22.4,161.76,21.157272727272723
2.234375,-0.78,125.68,15.61,-14.03,46.78,-24.72,32.79,-42.1,-86.47,18.76,151.37,20.262727272727275
2.25,-0.28,121.94,19.63,-8.44,42.03,-22.74,36.54,-41.34,-87.65,15.29,140.37,19.577272727272728
2.265625,0.18,118.33,28.8,-4.72,37.59,-19.71,38.37,-43.02,-87.79,12.45,128.98,19.04181818181818
2.28125,0.49,113.9,41.01,-2.36,33.45,-16.66,38.22,-46.96,-86.89,10.67,117.59,18.405454545454546
2.296875,0.55,108.31,51.78,-1.0,29.61,-14.57,36.16,-52.7,-84.92,10.2,106.03,17.222727272727273
2.3125,0.34,101.95,55.79,-0.36,26.07,-14.07,32.57,-59.59,-81.98,11.05,94.42,15.108181818181817
2.328125,-0.01,95.49,49.32,-0.22,22.81,-14.96,28.2,-66.8,-78.3,12.96,83.0,11.953636363636361
2.34375,-0.41,89.36,32.47,-0.38,19.83,-15.9,23.89,-73.28,-74.33,15.46,72.33,8.094545454545454
2.359375,-0.78,83.34,9.6,-0.73,17.11,-14.18,20.33,-77.92,-70.71,17.95,62.56,4.233636363636364
2.375,-1.12,76.61,-12.48,-1.25,14.67,-5.97,17.79,-79.76,-68.05,19.87,53.76,1.2790909090909077
2.390625,-1.5,68.26,-27.73,-1.93,12.48,12.9,16.12,-78.32,-66.68,20.77,46.05,0.03818181818181963
2.40625,-1.94,57.77,-33.61,-2.74,10.54,45.38,14.95,-73.79,-66.48,20.33,39.39,0.8909090909090907
2.421875,-2.44,45.38,-31.71,-3.54,8.83,91.69,13.94,-66.94,-66.89,18.48,33.89,3.6990909090909088
2.4375,-2.88,32.03,-26.31,-4.17,7.35,148.18,12.87,-58.77,-67.15,15.41,29.1,7.787272727272727
2.453125,-3.21,18.92,-21.58,-4.44,6.07,207.58,11.61,-50.08,-66.71,11.53,24.82,12.22818181818182
2.46875,-3.35,7.04,-19.52,-4.25,4.97,260.68,9.92,-41.25,-65.43,7.28,20.97,16.09636363636364
2.484375,-3.26,-3.19,-19.52,-3.55,4.05,298.87,7.44,-32.23,-63.56,3.01,17.65,18.70090909090909
2.5,-2.94,-11.94,-19.59,-2.38,3.27,316.6,3.74,-22.9,-61.68,-1.16,14.78,19.61818181818182
2.515625,-2.34,-19.81,-18.06,-0.84,2.62,312.63,-1.47,-13.35,-60.25,-5.28,12.33,18.743636363636366
2.53125,-1.42,-27.47,-14.77,0.95,2.09,289.7,-8.16,-3.98,-59.46,-9.4,10.29,16.21545454545454
2.546875,-0.18,-35.53,-10.87,2.83,1.65,252.93,-15.9,4.63,-59.08,-13.29,8.68,12.351818181818185
2.5625,1.26,-44.26,-8.0,4.63,1.3,207.91,-24.12,12.03,-58.61,-16.23,7.54,7.586363636363637
2.578125,2.69,-53.6,-7.13,6.15,1.01,159.3,-32.27,18.04,-57.58,-17.26,6.57,2.356363636363635
2.59375,3.91,-63.01,-8.09,7.29,0.79,110.56,-40.03,22.8,-55.76,-15.37,5.58,-2.848181818181817
2.609375,4.75,-71.66,-9.65,7.96,0.61,64.39,-47.36,26.45,-53.21,-10.11,4.49,-7.576363636363637
2.625,5.22,-78.56,-10.16,8.18,0.47,23.25,-54.39,28.98,-50.23,-1.77,3.34,-11.424545454545456
2.640625,5.38,-82.91,-8.39,7.92,0.37,-10.59,-61.3,30.11,-47.19,8.39,2.13,-14.189090909090908
2.65625,5.38,-84.35,-4.27,7.16,0.29,-35.45,-68.35,29.5,-44.33,18.64,0.92,-15.896363636363635
2.671875,5.31,-83.04,1.01,5.92,0.23,-51.03,-75.9,27.02,-41.7,27.17,-0.23,-16.84
2.6875,5.21,-79.56,5.58,4.24,0.18,-58.71,-84.37,22.98,-39.28,32.63,-1.28,-17.48909090909091
2.703125,5.08,-74.58,7.86,2.3,0.15,-61.29,-94.1,18.04,-37.02,34.42,-2.19,-18.30272727272727
2.71875,4.92,-68.79,7.48,0.37,0.14,-62.08,-104.93,12.97,-34.97,32.63,-3.07,-19.575454545454548
2.734375,4.74,-62.7,5.61,-1.25,0.13,-63.78,-115.87,8.35,-33.33,28.05,-3.92,-21.27
2.75,4.59,-56.84,4.33,-2.33,0.14,-67.89,-125.16,4.36,-32.32,21.97,-4.68,-23.075454545454548
2.765625,4.52,-51.77,5.54,-2.79,0.15,-74.43,-130.72,0.85,-32.21,16.05,-5.22,-24.54818181818182
2.78125,4.52,-48.08,9.8,-2.75,0.17,-82.35,-130.76,-2.5,-33.22,11.91,-5.38,-25.330909090909085
2.796875,4.56,-46.2,16.18,-2.45,0.19,-90.18,-124.55,-5.95,-35.43,10.81,-5.03,-25.277272727272724
2.8125,4.55,-46.17,22.77,-2.13,0.22,-96.56,-112.59,-9.64,-38.8,13.06,-4.14,-24.493636363636366
2.828125,4.45,-47.61,27.76,-2.01,0.26,-100.53,-96.32,-13.5,-43.02,17.91,-2.75,-23.214545454545455
2.84375,4.25,-49.77,30.31,-2.18,0.29,-101.53,-77.47,-17.35,-47.39,23.68,-1.05,-21.65545454545455
2.859375,3.98,-51.82,30.73,-2.66,0.34,-99.35,-57.39,-20.89,-50.81,28.38,0.7,-19.89
2.875,3.69,-53.04,30.03,-3.34,0.38,-93.91,-36.77,-23.76,-51.95,30.51,2.24,-17.810909090909092
2.890625,3.42,-53.07,29.23,-4.05,0.42,-85.26,-15.83,-25.72,-49.65,29.59,3.47,-15.222727272727274
2.90625,3.14,-51.89,28.83,-4.65,0.47,-73.57,5.16,-26.72,-43.28,26.26,4.37,-11.989090909090908
2.921875,2.82,-49.74,28.73,-5.04,0.52,-59.28,25.47,-26.78,-33.1,21.85,5.03,-8.138181818181819
2.9375,2.48,-47.01,28.55,-5.35,0.56,-43.15,43.81,-25.7,-20.17,17.73,5.54,-3.8827272727272715
2.953125,2.16,-44.03,27.97,-5.83,0.62,-26.31,58.66,-22.79,-6.03,14.8,5.81,0.45727272727272683
2.96875,1.95,-41.07,26.93,-6.85,0.67,-10.12,68.81,-17.1,7.81,13.24,5.57,4.530909090909091
2.984375,1.93,-38.14,25.51,-8.71,0.73,4.15,73.9,-7.9,20.31,12.73,4.34,8.077272727272728
3.0,2.12,-35.17,23.86,-11.46,0.79,15.62,74.51,4.54,31.17,12.72,1.57,10.933636363636364
3.015625,2.46,-32.06,22.1,-14.86,0.86,24.07,72.02,18.66,40.62,12.73,-3.12,13.04363636363636
3.03125,2.85,-28.94,20.37,-18.46,0.93,29.87,68.18,31.96,49.12,12.42,-9.76,14.412727272727274
3.046875,3.16,-26.17,19.06,-21.77,1.01,33.8,64.58,42.08,56.98,11.57,-17.92,15.125454545454545
3.0625,3.36,-24.2,18.82,-24.47,1.1,36.66,62.4,48.0,64.21,10.05,-26.89,15.367272727272729
3.078125,3.39,-23.26,20.31,-26.52,1.2,39.04,62.2,50.45,70.53,7.85,-35.9,15.390000000000002
3.09375,3.24,-23.2,23.81,-28.2,1.31,41.14,64.05,51.49,75.54,5.05,-44.5,15.430000000000001
3.109375,2.9,-23.48,28.96,-29.98,1.44,43.02,67.53,53.21,78.89,1.88,-52.78,15.59909090909091
3.125,2.36,-23.52,34.56,-32.4,1.58,44.62,71.92,56.52,80.52,-1.34,-61.38,15.767272727272724
3.140625,1.73,-23.1,39.04,-35.83,1.74,46.06,76.38,60.74,80.68,-4.31,-71.17,15.632727272727276
3.15625,1.11,-22.51,40.9,-40.37,1.91,47.47,80.18,64.19,79.86,-6.89,-82.77,14.82545454545455
3.171875,0.64,-22.58,39.31,-45.64,2.11,48.92,82.88,65.3,78.7,-9.19,-96.12,13.12090909090909
3.1875,0.37,-24.22,34.42,-50.72,2.33,50.42,84.55,63.59,77.71,-11.55,-110.42,10.589090909090906
3.203125,0.27,-27.98,27.17,-54.34,2.57,51.86,85.67,59.79,77.27,-14.35,-124.37,7.596363636363639
3.21875,0.22,-33.72,18.95,-55.13,2.83,53.17,86.96,55.25,77.53,-17.67,-136.82,4.688181818181818
3.234375,0.13,-40.55,11.01,-52.1,3.13,54.34,89.02,51.07,78.51,-21.19,-147.38,2.3627272727272737
3.25,-0.01,-46.98,4.1,-45.01,3.45,55.47,91.89,47.49,80.23,-24.13,-156.78,0.8836363636363661
3.265625,-0.17,-51.29,-1.59,-34.57,3.8,56.54,94.97,43.87,82.63,-25.46,-166.74,0.18090909090908916
3.28125,-0.27,-52.0,-6.28,-22.2,4.18,57.42,96.98,39.24,85.57,-24.31,-179.28,-0.08636363636363792
3.296875,-0.28,-48.25,-10.35,-9.63,4.6,57.85,96.43,32.89,88.72,-20.28,-195.81,-0.3736363636363675
3.3125,-0.23,-40.08,-14.23,1.59,5.07,57.63,92.0,24.82,91.49,-13.64,-216.47,-1.095454545454544
3.328125,-0.17,-28.45,-18.42,10.54,5.58,56.75,83.01,15.76,93.26,-5.21,-240.02,-2.4881818181818187
3.34375,-0.08,-15.07,-23.53,16.93,6.13,55.46,69.57,6.85,93.57,3.75,-264.38,-4.618181818181819
3.359375,0.11,-1.97,-30.26,21.0,6.69,54.1,52.5,-0.97,92.36,12.03,-287.74,-7.468181818181819
3.375,0.49,9.03,-39.25,23.21,7.27,52.88,33.05,-7.28,90.01,18.63,-309.42,-11.034545454545453
3.390625,1.08,16.77,-50.79,24.06,7.85,51.71,12.73,-12.41,87.22,23.0,-330.29,-15.370000000000003
3.40625,1.76,21.21,-64.65,23.92,8.44,50.26,-6.9,-17.11,84.62,25.0,-352.28,-20.520909090909086
3.421875,2.39,23.33,-79.91,23.09,9.06,48.17,-24.3,-22.15,82.46,24.87,-377.4,-26.39909090909091
3.4375,2.8,24.98,-95.3,21.81,9.74,45.29,-38.06,-27.8,80.52,23.05,-406.99,-32.723636363636366
3.453125,2.96,28.19,-109.57,20.29,10.5,41.79,-47.12,-33.65,78.14,20.16,-441.27,-39.052727272727275
3.46875,2.9,34.49,-121.91,18.75,11.33,38.07,-51.02,-38.86,74.63,16.82,-479.76,-44.96
3.484375,2.73,44.34,-132.12,17.33,12.24,34.43,-50.16,-42.62,69.51,13.62,-521.49,-50.19909090909091
3.5,2.54,56.82,-140.55,16.11,13.21,31.01,-45.74,-44.65,62.74,11.01,-564.67,-54.74272727272727
3.515625,2.31,69.94,-147.7,15.14,14.21,27.68,-39.38,-45.37,54.77,9.26,-605.93,-58.642727272727264
3.53125,2.0,81.26,-153.76,14.44,15.22,24.21,-32.58,-45.69,46.26,8.43,-640.26,-61.8609090909091
3.546875,1.55,88.67,-158.43,14.09,16.27,20.41,-26.34,-46.47,37.86,8.39,-662.4,-64.21818181818182
3.5625,1.05,90.87,-160.92,14.19,17.35,16.2,-20.89,-48.0,29.92,8.86,-669.33,-65.51818181818182
3.578125,0.61,87.64,-160.37,14.86,18.51,11.65,-15.95,-49.83,22.41,9.55,-662.4,-65.75636363636363
3.59375,0.42,79.65,-156.3,16.2,19.71,6.91,-11.2,-50.98,15.04,10.22,-647.16,-65.22636363636364
3.609375,0.56,68.1,-149.01,18.17,20.93,2.18,-6.61,-50.39,7.38,10.8,-630.52,-64.40090909090908
3.625,1.05,54.42,-139.55,20.61,22.04,-2.29,-2.58,-47.5,-0.86,11.23,-616.7,-63.648181818181826
3.640625,1.73,39.91,-129.39,23.14,22.92,-6.23,0.17,-42.5,-9.8,11.45,-604.51,-63.01
3.65625,2.44,25.58,-119.87,25.33,23.39,-9.55,0.97,-36.18,-19.33,11.3,-587.85,-62.16090909090909
3.671875,3.03,12.03,-111.75,26.75,23.28,-12.4,-0.56,-29.62,-29.16,10.6,-559.58,-60.67090909090909
3.6875,3.37,-0.63,-105.02,27.13,22.54,-15.18,-4.29,-23.64,-38.92,9.25,-516.15,-58.32181818181818
3.703125,3.41,-12.59,-99.17,26.45,21.11,-18.57,-9.65,-18.65,-48.11,7.32,-460.15,-55.32727272727272
3.71875,3.13,-24.1,-93.57,24.92,19.01,-23.18,-15.78,-14.6,-56.22,5.18,-398.98,-52.19909090909091
3.734375,2.56,-35.07,-87.9,22.9,16.32,-29.24,-21.73,-11.27,-62.74,3.27,-340.6,-49.40909090909091
3.75,1.75,-45.18,-82.34,20.73,13.07,-36.38,-26.71,-8.53,-67.3,2.01,-289.15,-47.093636363636364
3.765625,0.79,-53.84,-77.43,18.59,9.26,-43.59,-30.22,-6.47,-69.79,1.48,-243.22,-44.94909090909091
3.78125,-0.17,-60.7,-73.76,16.51,4.93,-49.48,-32.22,-5.38,-70.5,1.46,-197.69,-42.45454545454545
3.796875,-0.95,-65.75,-71.66,14.38,0.14,-52.73,-33.07,-5.43,-70.02,1.45,-147.72,-39.21454545454546
3.8125,-1.42,-69.39,-70.99,12.08,-4.97,-52.49,-33.47,-6.61,-69.1,0.94,-92.19,-35.23727272727273
3.828125,-1.57,-72.15,-71.1,9.58,-10.14,-48.59,-34.24,-8.58,-68.38,-0.41,-34.54,-30.920000000000005
3.84375,-1.47,-74.43,-70.88,7.02,-15.01,-41.47,-35.96,-10.85,-68.1,-2.69,19.32,-26.774545454545454
3.859375,-1.31,-76.38,-69.06,4.61,-19.24,-31.89,-38.85,-12.89,-68.13,-5.7,64.38,-23.13272727272727
3.875,-1.2,-77.97,-64.46,2.57,-22.53,-20.81,-42.72,-14.36,-68.0,-9.09,99.35,-19.92909090909091
3.890625,-1.15,-79.18,-56.36,1.04,-24.8,-9.13,-47.06,-15.12,-67.2,-12.26,127.39,-16.71181818181818
3.90625,-1.07,-80.06,-44.83,0.0,-26.21,2.26,-51.28,-15.23,-65.33,-14.49,154.58,-12.878181818181817
3.921875,-0.8,-80.69,-30.78,-0.7,-27.06,12.56,-54.99,-14.9,-62.31,-14.96,187.06,-7.96090909090909
3.9375,-0.28,-80.89,-15.68,-1.32,-27.7,21.06,-58.05,-14.37,-58.24,-13.0,228.21,-1.8418181818181836
3.953125,0.42,-80.05,-1.03,-2.05,-28.39,27.34,-60.68,-13.91,-53.41,-8.35,277.68,5.233636363636365
3.96875,1.11,-77.16,12.13,-3.01,-29.15,31.41,-63.34,-13.74,-48.11,-1.42,332.09,12.800909090909089
3.984375,1.61,-71.12,23.52,-4.2,-29.8,33.69,-66.7,-14.01,-42.56,6.75,386.76,20.358181818181816
4.0,1.83,-61.25,33.45,-5.55,-30.04,34.93,-71.4,-14.76,-36.96,14.84,437.3,27.49
4.015625,1.86,-47.63,42.38,-6.97,-29.66,35.87,-77.8,-15.9,-31.49,21.67,480.03,33.850909090909084
4.03125,1.85,-31.28,50.56,-8.38,-28.68,37.02,-85.66,-17.29,-26.32,26.51,511.58,39.082727272727276
4.046875,1.94,-13.89,57.8,-9.76,-27.37,38.52,-93.98,-18.74,-21.58,29.33,528.48,42.79545454545455
4.0625,2.16,2.63,63.75,-11.12,-26.24,40.3,-101.05,-19.99,-17.34,30.52,527.82,44.67636363636364
4.078125,2.45,16.65,68.21,-12.54,-25.79,42.11,-104.86,-20.74,-13.52,30.62,508.79,44.67090909090909
4.09375,2.79,27.23,71.4,-14.13,-26.28,43.8,-103.67,-20.71,-9.97,30.1,473.87,43.13
4.109375,3.22,34.14,73.88,-16.01,-27.59,45.27,-96.53,-19.68,-6.42,29.16,428.4,40.71272727272727
4.125,3.81,37.74,76.3,-18.2,-29.27,46.47,-83.59,-17.62,-2.67,27.85,378.02,38.07636363636363
4.140625,4.58,38.7,78.88,-20.68,-30.75,47.48,-65.87,-14.73,1.31,26.25,326.12,35.57181818181818
4.15625,5.35,37.74,81.3,-23.23,-31.57,48.36,-44.95,-11.38,5.32,24.42,273.02,33.125454545454545
4.171875,5.82,35.43,82.77,-25.62,-31.59,49.19,-22.5,-7.97,8.91,22.46,217.88,30.434545454545454
4.1875,5.7,32.24,82.49,-27.65,-31.05,50.03,0.07,-4.75,11.55,20.42,162.21,27.387272727272727
4.203125,4.91,28.59,80.11,-29.24,-30.38,50.85,21.65,-1.75,12.88,18.3,112.76,24.425454545454546
4.21875,3.6,24.9,75.95,-30.58,-30.13,51.47,41.39,1.15,12.87,16.02,80.75,22.490000000000002
4.234375,2.16,21.64,70.89,-32.06,-30.77,51.7,58.58,4.05,11.91,13.56,77.34,22.636363636363637
4.25,0.99,19.19,65.91,-34.19,-32.66,51.38,72.62,6.94,10.7,10.99,107.42,25.39
4.265625,0.33,17.78,61.66,-37.4,-36.01,50.47,83.11,9.59,9.96,8.47,165.04,30.272727272727273
4.28125,0.14,17.39,58.07,-41.76,-40.5,49.08,89.89,11.74,10.13,6.25,233.7,35.83
4.296875,0.22,17.74,54.5,-46.85,-45.09,47.39,93.18,13.19,11.2,4.55,291.72,40.15909090909091
4.3125,0.28,18.47,50.09,-51.65,-47.94,45.6,93.57,13.91,12.76,3.48,320.3,41.71545454545455
4.328125,0.17,19.24,44.2,-54.79,-46.86,43.8,91.84,14.08,14.18,2.93,310.77,39.96
4.34375,-0.17,19.8,36.81,-54.84,-40.18,41.94,88.86,13.9,14.88,2.63,267.76,35.58090909090909
4.359375,-0.62,20.04,28.52,-50.82,-27.63,39.91,85.33,13.51,14.59,2.23,207.01,30.188181818181818
4.375,-1.04,19.89,20.22,-42.56,-10.73,37.58,81.66,12.95,13.32,1.43,148.97,25.60818181818182
4.390625,-1.34,19.32,12.7,-30.84,7.62,34.92,77.97,12.12,11.25,0.14,111.81,23.242727272727272
4.40625,-1.46,18.24,6.21,-17.15,24.17,31.95,74.12,10.99,8.53,-1.48,105.57,23.608181818181823
4.421875,-1.38,16.58,0.45,-3.3,36.57,28.81,69.97,9.61,5.07,-3.15,130.32,26.322727272727267
4.4375,-1.17,14.3,-5.24,9.13,44.03,25.6,65.47,8.2,0.58,-4.65,177.65,30.35454545454546
4.453125,-0.86,11.48,-11.64,19.05,47.27,22.41,60.75,6.97,-5.41,-5.9,234.32,34.403636363636366
4.46875,-0.52,8.22,-19.34,26.04,47.76,19.26,56.08,6.14,-13.32,-7.09,286.62,37.25909090909091
4.484375,-0.2,4.64,-28.64,30.24,46.87,16.13,51.61,5.73,-23.33,-8.49,323.67,38.02090909090909
4.5,0.06,0.72,-39.35,32.1,45.24,12.99,47.25,5.61,-35.22,-10.39,339.61,36.23818181818182
4.515625,0.31,-3.65,-50.64,32.22,42.98,9.78,42.64,5.54,-48.18,-12.85,334.16,32.02818181818182
4.53125,0.57,-8.69,-60.85,31.17,40.0,6.46,37.23,5.23,-60.9,-15.71,311.92,26.03909090909091
4.546875,0.88,-14.39,-67.67,29.44,36.46,2.96,30.61,4.42,-71.64,-18.6,280.51,19.36181818181818
4.5625,1.28,-20.48,-68.69,27.39,32.81,-0.66,22.71,2.99,-78.59,-20.96,247.95,13.25
4.578125,1.74,-26.17,-62.23,25.32,29.64,-4.27,13.86,0.96,-80.35,-22.23,219.82,8.735454545454544
4.59375,2.22,-30.24,-48.16,23.44,27.29,-7.68,4.62,-1.43,-76.41,-21.93,197.84,6.323636363636364
4.609375,2.64,-31.41,-28.26,21.96,25.72,-10.74,-4.43,-3.75,-67.34,-19.82,180.39,5.9054545454545435
4.625,2.93,-28.69,-5.74,21.01,24.58,-13.48,-12.93,-5.43,-54.75,-15.97,164.06,6.871818181818182
4.640625,3.04,-21.83,15.82,20.64,23.33,-16.21,-20.84,-5.97,-40.72,-10.92,145.98,8.392727272727273
4.65625,2.93,-11.41,33.64,20.77,21.55,-19.46,-28.34,-5.08,-27.17,-5.49,124.87,9.71
4.671875,2.63,1.2,46.48,21.26,19.11,-23.69,-35.71,-2.85,-15.31,-0.62,100.38,10.261818181818182
4.6875,2.2,14.26,54.65,22.0,16.18,-29.07,-43.24,0.31,-5.44,3.0,71.6,9.677272727272728
4.703125,1.68,26.18,59.38,22.96,13.09,-35.25,-51.3,3.83,2.96,5.11,37.04,7.78909090909091
4.71875,1.17,35.82,62.04,24.23,10.14,-41.47,-60.26,7.33,10.76,5.99,-3.5,4.75
4.734375,0.7,42.76,63.54,25.84,7.46,-46.72,-70.35,10.8,18.77,6.17,-46.39,1.1436363636363636
4.75,0.31,47.13,64.29,27.7,4.87,-50.08,-81.33,14.63,27.42,6.14,-83.05,-1.997272727272726
4.765625,-0.0,49.46,64.45,29.46,2.46,-50.87,-92.23,19.41,36.6,6.12,-102.55,-3.4263636363636363
4.78125,-0.25,50.34,64.21,30.68,-0.02,-48.74,-101.3,25.49,45.69,5.98,-96.78,-2.245454545454547
4.796875,-0.45,50.33,63.92,30.96,-2.86,-43.67,-106.38,32.71,53.75,5.44,-65.61,1.6490909090909092
4.8125,-0.63,49.76,63.91,30.14,-6.23,-36.01,-105.59,40.29,59.85,4.3,-18.37,7.401818181818182
4.828125,-0.8,48.79,64.33,28.36,-10.21,-26.43,-97.95,47.09,63.42,2.54,29.49,13.511818181818184
4.84375,-0.94,47.44,65.07,25.97,-14.68,-15.9,-83.74,52.0,64.44,0.42,63.46,18.503636363636364
4.859375,-1.06,45.6,65.73,23.38,-19.44,-5.53,-64.4,54.44,63.49,-1.76,76.16,21.51
4.875,-1.12,43.17,65.87,20.86,-24.25,3.7,-42.01,54.57,61.55,-3.69,69.65,22.572727272727274
4.890625,-1.13,40.13,65.13,18.52,-28.83,11.16,-18.73,53.11,59.6,-5.21,53.01,22.43272727272727
4.90625,-1.13,36.64,63.4,16.34,-32.98,16.74,3.65,51.02,58.36,-6.19,36.4,22.022727272727277
4.921875,-1.1,32.95,60.78,14.27,-36.73,20.71,23.92,48.98,58.14,-6.62,25.83,21.920909090909092
4.9375,-1.07,29.38,57.48,12.26,-40.2,23.5,41.4,47.17,58.88,-6.48,21.13,22.13181818181818
4.953125,-1.03,26.12,53.66,10.29,-43.69,25.5,55.81,45.24,60.3,-5.84,17.58,22.176363636363636
4.96875,-0.98,23.19,49.42,8.33,-47.59,26.97,67.09,42.53,62.03,-4.89,9.66,21.432727272727274
4.984375,-0.94,20.39,44.74,6.35,-52.35,28.09,75.32,38.37,63.66,-3.96,-5.75,19.447272727272725
5.0,-0.95,17.45,39.61,4.28,-58.41,29.07,80.61,32.37,64.7,-3.45,-28.21,16.097272727272724
5.015625,-1.03,14.14,34.04,2.15,-65.99,30.12,83.15,24.47,64.62,-3.66,-55.02,11.544545454545455
5.03125,-1.19,10.31,28.18,0.05,-74.85,31.42,83.25,15.01,62.94,-4.73,-83.14,6.113636363636365
5.046875,-1.38,5.95,22.24,-1.86,-84.06,32.99,81.42,4.76,59.44,-6.59,-111.02,0.17181818181818187
5.0625,-1.52,1.01,16.48,-3.4,-91.91,34.63,78.38,-5.26,54.24,-8.92,-139.0,-5.933636363636364
5.078125,-1.6,-4.55,11.02,-4.48,-96.12,36.03,75.04,-13.95,47.87,-11.29,-168.91,-11.903636363636364
5.09375,-1.63,-10.77,5.73,-5.17,-94.42,36.89,72.16,-20.44,41.14,-13.27,-203.0,-17.525454545454547
5.109375,-1.67,-17.6,0.24,-5.65,-85.3,37.11,70.16,-24.33,34.83,-14.53,-243.14,-22.716363636363635
5.125,-1.77,-24.87,-6.01,-6.21,-68.71,36.8,68.94,-25.83,29.48,-15.0,-290.7,-27.625454545454545
5.140625,-1.94,-32.36,-13.47,-7.17,-46.21,36.23,67.96,-25.65,25.18,-14.94,-346.47,-32.621818181818185
5.15625,-2.14,-39.82,-22.11,-8.72,-20.61,35.7,66.57,-24.65,21.63,-14.83,-410.07,-38.095454545454544
5.171875,-2.31,-46.93,-31.08,-10.89,4.91,35.39,64.3,-23.52,18.23,-15.21,-479.08,-44.199090909090906
5.1875,-2.43,-53.29,-38.75,-13.47,27.64,35.36,61.13,-22.61,14.43,-16.47,-548.26,-50.6109090909091
5.203125,-2.53,-58.29,-43.09,-16.09,45.96,35.48,57.33,-21.93,9.93,-18.56,-609.94,-56.52090909090909
5.21875,-2.67,-61.17,-42.51,-18.32,59.48,35.49,53.23,-21.35,4.86,-20.98,-655.72,-60.87818181818182
5.234375,-2.86,-61.2,-36.5,-19.9,68.72,35.09,48.87,-20.82,-0.34,-22.86,-679.23,-62.82090909090909
5.25,-2.99,-58.0,-26.01,-20.86,74.59,34.02,43.99,-20.42,-5.11,-23.27,-678.55,-62.055454545454545
5.265625,-2.93,-51.78,-13.13,-21.57,77.9,32.22,38.15,-20.36,-9.13,-21.52,-656.91,-59.00545454545454
5.28125,-2.59,-43.38,-0.29,-22.63,79.19,29.9,31.05,-20.82,-12.48,-17.46,-621.3,-54.61909090909091
5.296875,-2.03,-34.04,10.57,-24.66,78.77,27.48,22.74,-21.85,-15.76,-11.5,-579.59,-49.98818181818182
5.3125,-1.44,-24.95,18.66,-28.07,76.95,25.47,13.68,-23.23,-19.86,-4.5,-537.93,-45.9290909090909
5.328125,-1.05,-16.86,24.24,-32.85,74.2,24.18,4.46,-24.54,-25.68,2.46,-499.41,-42.804545454545455
5.34375,-1.03,-10.01,28.23,-38.48,71.13,23.56,-4.46,-25.24,-33.83,8.46,-464.64,-40.57363636363636
5.359375,-1.33,-4.14,31.46,-43.93,68.38,23.26,-12.97,-24.87,-44.2,12.96,-433.17,-38.95909090909091
5.375,-1.78,1.09,34.33,-47.84,66.26,22.74,-21.23,-23.24,-55.85,15.77,-404.73,-37.68
5.390625,-2.11,5.82,36.77,-48.85,64.74,21.62,-29.58,-20.65,-66.97,17.11,-379.52,-36.51090909090909
5.40625,-2.16,9.93,38.5,-45.98,63.44,19.74,-38.31,-17.86,-75.24,17.33,-357.62,-35.29363636363637
5.421875,-1.86,13.05,39.43,-38.91,61.94,17.3,-47.59,-15.83,-78.42,16.76,-338.32,-33.85909090909091
5.4375,-1.3,14.76,39.72,-28.17,60.09,14.57,-57.6,-15.42,-75.02,15.7,-320.04,-32.06454545454546
5.453125,-0.59,14.78,39.69,-15.05,58.13,11.83,-68.54,-16.97,-64.89,14.31,-300.99,-29.844545454545457
5.46875,0.17,13.07,39.58,-1.26,56.55,9.2,-80.54,-20.18,-49.37,12.75,-280.03,-27.278181818181814
5.484375,0.96,9.89,39.37,11.48,55.74,6.68,-93.41,-24.15,-30.92,11.21,-257.3,-24.58636363636364
5.5,1.76,5.74,38.87,21.85,55.66,4.21,-106.27,-27.71,-12.36,9.86,-234.0,-22.035454545454545
5.515625,2.53,1.28,37.87,29.19,55.77,1.76,-117.46,-29.8,3.99,8.83,-211.87,-19.81
5.53125,3.18,-2.91,36.31,33.47,55.25,-0.66,-124.83,-29.78,16.91,8.15,-192.24,-17.922727272727276
5.546875,3.59,-6.41,34.47,35.2,53.34,-3.07,-126.29,-27.64,26.44,7.72,-175.41,-16.187272727272727
5.5625,3.74,-9.12,32.74,35.14,49.73,-5.49,-120.53,-23.98,33.61,7.41,-160.61,-14.305454545454547
5.578125,3.67,-11.3,31.51,34.06,44.63,-7.99,-107.45,-19.72,39.85,7.08,-146.33,-11.99909090909091
5.59375,3.51,-13.45,30.91,32.48,38.65,-10.56,-88.2,-15.62,46.42,6.65,-131.07,-9.116363636363637
5.609375,3.35,-16.07,30.68,30.66,32.47,-13.15,-64.76,-11.88,54.11,6.08,-113.95,-5.678181818181819
5.625,3.27,-19.54,30.22,28.62,26.57,-15.73,-39.37,-7.94,63.01,5.3,-95.04,-1.875454545454545
5.640625,3.23,-23.92,28.8,26.3,21.14,-18.29,-14.01,-2.77,72.68,4.23,-75.3,2.0081818181818183
5.65625,3.1,-28.97,25.86,23.72,16.07,-20.98,9.96,4.23,82.33,2.78,-56.06,5.64
5.671875,2.81,-34.21,21.25,21.06,11.15,-23.99,31.65,12.59,91.22,1.0,-38.51,8.72909090909091
5.6875,2.29,-39.1,15.28,18.62,6.2,-27.48,50.55,20.57,98.77,-0.96,-23.18,11.050909090909089
5.703125,1.59,-43.22,8.7,16.72,1.2,-31.38,66.24,25.78,104.79,-2.88,-9.9,12.512727272727274
5.71875,0.78,-46.43,2.37,15.59,-3.79,-35.34,78.31,26.42,109.34,-4.44,2.06,13.17
5.734375,-0.04,-48.93,-3.07,15.31,-8.62,-38.76,86.45,22.35,112.6,-5.52,13.5,13.206363636363637
5.75,-0.83,-51.13,-7.47,15.85,-13.13,-40.92,90.64,15.37,114.7,-6.2,24.99,12.897272727272728
5.765625,-1.54,-53.5,-11.24,17.13,-17.24,-41.19,91.36,8.41,115.66,-6.76,36.56,12.513636363636362
5.78125,-2.11,-56.5,-15.22,19.04,-20.95,-39.22,89.6,4.05,115.54,-7.52,47.73,12.22181818181818
5.796875,-2.48,-60.42,-20.28,21.43,-24.4,-35.04,86.68,3.53,114.48,-8.73,57.81,12.052727272727275
5.8125,-2.61,-65.36,-26.98,24.06,-27.86,-29.01,83.85,6.53,112.86,-10.38,66.17,11.933636363636362
5.828125,-2.46,-71.21,-35.21,26.54,-31.66,-21.72,81.94,11.82,111.11,-12.31,72.46,11.754545454545456
5.84375,-2.1,-77.48,-44.09,28.44,-36.07,-13.87,81.09,18.17,109.51,-14.26,76.75,11.462727272727273
5.859375,-1.64,-83.21,-52.03,29.4,-41.18,-6.11,80.78,24.83,107.99,-16.03,79.38,11.107272727272727
5.875,-1.16,-86.96,-57.15,29.26,-46.85,1.03,80.1,31.29,106.14,-17.44,80.75,10.81909090909091
5.890625,-0.75,-87.01,-57.81,28.07,-52.66,7.19,78.18,36.85,103.39,-18.38,81.13,10.745454545454546
5.90625,-0.4,-81.89,-53.14,26.15,-58.09,12.14,74.54,40.52,99.31,-18.68,80.55,11.00090909090909
5.921875,-0.1,-70.93,-43.42,23.89,-62.73,15.83,69.19,41.43,93.88,-18.01,78.84,11.624545454545453
5.9375,0.14,-54.73,-30.07,21.73,-66.53,18.31,62.59,39.52,87.49,-16.11,75.73,12.551818181818184
5.953125,0.26,-35.03,-15.29,19.92,-69.86,19.79,55.36,35.87,80.68,-12.8,71.01,13.628181818181817
5.96875,0.21,-14.29,-1.27,18.52,-73.51,20.59,48.01,32.3,73.92,-8.24,64.67,14.62818181818182
5.984375,-0.04,5.03,10.35,17.41,-78.47,21.07,40.69,30.37,67.36,-2.87,56.89,15.253636363636366
6.0,-0.47,21.02,18.96,16.33,-85.51,21.5,33.24,30.39,60.89,2.64,48.05,15.185454545454546
6.015625,-1.01,32.71,24.89,15.04,-94.76,22.05,25.29,31.2,54.23,7.61,38.6,14.168181818181818
6.03125,-1.57,39.94,29.02,13.45,-105.38,22.69,16.54,30.8,47.22,11.51,28.99,12.110000000000001
6.046875,-2.07,43.15,32.19,11.64,-115.5,23.28,6.92,27.48,39.93,14.09,19.6,9.155454545454546
6.0625,-2.44,43.17,34.82,9.87,-122.57,23.65,-3.3,20.76,32.7,15.37,10.69,5.701818181818184
6.078125,-2.59,41.02,36.82,8.45,-124.01,23.69,-13.59,11.6,26.0,15.54,2.42,2.3045454545454547
6.09375,-2.44,37.84,37.83,7.59,-117.98,23.43,-23.32,1.85,20.27,14.93,-5.08,-0.4618181818181821
6.109375,-2.0,34.72,37.58,7.32,-104.02,22.99,-31.95,-6.58,15.75,13.93,-11.69,-2.177272727272727
6.125,-1.37,32.44,36.19,7.52,-83.23,22.46,-39.29,-12.49,12.28,12.91,-17.28,-2.7145454545454566
6.140625,-0.74,31.17,34.16,8.06,-57.97,21.92,-45.47,-15.56,9.35,12.18,-21.73,-2.239090909090909
6.15625,-0.35,30.29,32.25,8.82,-31.2,21.34,-51.01,-16.12,6.14,11.87,-24.92,-1.1718181818181825
6.171875,-0.32,28.44,31.15,9.79,-5.73,20.67,-56.64,-14.88,1.7,11.95,-26.78,-0.059090909090908965
6.1875,-0.63,24.07,31.18,11.0,16.39,19.86,-63.11,-12.59,-4.73,12.27,-27.34,0.5790909090909092
6.203125,-1.1,16.18,32.17,12.52,34.12,18.94,-70.99,-9.98,-13.41,12.61,-26.7,0.3963636363636363
6.21875,-1.52,5.26,33.56,14.51,47.36,18.04,-80.37,-7.69,-23.76,12.83,-25.01,-0.6172727272727269
6.234375,-1.75,-6.34,34.64,17.1,56.63,17.24,-90.69,-6.39,-34.35,12.92,-22.47,-2.1327272727272715
6.25,-1.8,-14.94,34.81,20.34,62.73,16.58,-100.65,-6.6,-43.03,12.97,-19.22,-3.528181818181817
6.265625,-1.7,-16.72,33.81,23.9,66.46,15.98,-108.38,-8.49,-47.48,13.13,-15.3,-4.07181818181818
6.28125,-1.52,-9.46,31.74,26.92,68.43,15.27,-111.82,-11.78,-45.86,13.48,-10.7,-3.209090909090909
6.296875,-1.22,6.51,28.96,28.06,69.13,14.29,-109.25,-15.72,-37.44,13.99,-5.4,-0.7354545454545467
6.3125,-0.7,28.12,25.87,25.82,68.93,12.92,-99.88,-19.31,-22.96,14.38,0.58,3.0700000000000007
6.328125,0.06,50.79,22.71,19.06,68.14,11.21,-84.09,-21.66,-4.59,14.3,7.07,7.545454545454546
6.34375,0.94,70.2,19.45,7.43,67.01,9.31,-63.36,-22.33,14.59,13.3,13.78,11.847272727272726
6.359375,1.7,83.69,15.9,-8.51,65.71,7.43,-39.89,-21.54,31.35,11.15,20.35,15.212727272727271
6.375,2.11,90.88,11.79,-27.3,64.31,5.71,-15.92,-20.01,43.25,7.86,26.5,17.19818181818182
6.390625,2.08,92.92,7.01,-46.94,62.81,4.19,6.8,-18.64,49.15,3.73,32.13,17.749090909090906
6.40625,1.68,91.41,1.68,-65.0,61.23,2.78,27.28,-18.07,49.47,-0.75,37.46,17.19727272727273
6.421875,1.16,87.28,-3.88,-78.89,59.68,1.38,45.19,-18.38,45.69,-5.13,42.9,16.090909090909093
6.4375,0.73,80.49,-9.26,-86.28,58.35,-0.09,60.47,-19.08,39.77,-9.11,48.96,14.995454545454544
6.453125,0.52,70.52,-14.19,-85.66,57.45,-1.58,73.07,-19.34,33.35,-12.74,55.96,14.305454545454545
6.46875,0.48,57.14,-18.58,-76.91,57.09,-2.97,82.71,-18.43,27.36,-16.2,63.92,14.146363636363638
6.484375,0.48,41.07,-22.57,-61.64,57.2,-4.16,89.06,-16.06,22.05,-19.74,72.44,14.375454545454545
6.5,0.46,24.02,-26.46,-42.83,57.41,-5.12,92.0,-12.47,17.32,-23.5,80.85,14.69818181818182
6.515625,0.4,8.17,-30.62,-24.05,57.25,-5.96,91.85,-8.29,13.18,-27.39,88.53,14.824545454545454
6.53125,0.4,-4.61,-35.48,-8.27,56.18,-6.84,89.43,-4.27,9.84,-31.04,95.16,14.590909090909092
6.546875,0.55,-13.25,-41.41,2.85,53.82,-7.91,85.84,-0.95,7.69,-33.91,100.98,14.02727272727273
6.5625,0.86,-17.66,-48.64,9.12,50.05,-9.27,82.12,1.44,6.93,-35.29,106.73,13.308181818181817
6.578125,1.24,-18.36,-56.99,11.39,45.11,-10.88,78.93,3.04,7.35,-34.59,113.34,12.68909090909091
6.59375,1.56,-16.03,-65.67,10.85,39.51,-12.63,76.39,4.11,8.31,-31.46,121.55,12.408181818181816
6.609375,1.71,-11.28,-73.23,8.58,33.86,-14.35,74.23,4.9,9.09,-25.91,131.47,12.642727272727274
6.625,1.7,-4.49,-77.78,5.42,28.63,-15.94,71.95,5.51,9.18,-18.48,142.52,13.474545454545455
6.640625,1.61,3.84,-77.55,2.06,23.94,-17.35,69.17,5.85,8.57,-10.0,153.58,14.883636363636366
6.65625,1.52,13.0,-71.56,-0.85,19.55,-18.66,65.72,5.77,7.61,-1.5,163.58,16.743636363636366
6.671875,1.47,22.01,-60.07,-2.8,15.0,-19.99,61.71,5.1,6.68,6.11,172.1,18.847272727272728
6.6875,1.43,29.81,-44.59,-3.55,9.85,-21.54,57.32,3.81,5.86,12.18,179.69,20.933636363636364
6.703125,1.33,35.62,-27.44,-3.28,4.03,-23.48,52.7,2.01,4.8,16.4,187.78,22.77
6.71875,1.14,39.06,-11.04,-2.46,-2.13,-25.94,47.78,-0.1,2.8,18.83,198.1,24.185454545454544
6.734375,0.91,40.25,2.85,-1.68,-8.03,-28.89,42.28,-2.28,-0.7,19.83,211.84,25.125454545454545
6.75,0.71,39.61,13.54,-1.3,-13.08,-32.12,35.83,-4.33,-5.89,19.87,229.05,25.626363636363635
6.765625,0.61,37.75,21.33,-1.38,-17.07,-35.23,28.08,-6.05,-12.33,19.5,248.55,25.796363636363637
6.78125,0.62,35.2,27.09,-1.59,-20.24,-37.64,18.92,-7.29,-19.12,19.12,268.36,25.766363636363636
6.796875,0.7,32.33,31.7,-1.42,-23.18,-38.79,8.56,-7.85,-25.22,18.91,286.72,25.678181818181823
6.8125,0.79,29.32,35.67,-0.46,-26.5,-38.2,-2.41,-7.58,-29.86,18.81,302.82,25.672727272727272
6.828125,0.86,26.09,39.01,1.44,-30.55,-35.65,-13.26,-6.44,-32.81,18.61,317.23,25.866363636363634
6.84375,0.95,22.5,41.42,4.07,-35.29,-31.25,-23.23,-4.66,-34.44,18.15,331.59,26.346363636363638
6.859375,1.12,18.46,42.63,6.91,-40.41,-25.41,-31.88,-2.7,-35.55,17.37,347.96,27.136363636363637
6.875,1.41,14.09,42.64,9.39,-45.54,-18.74,-39.19,-1.16,-36.98,16.41,368.22,28.231818181818188
6.890625,1.78,9.78,41.8,11.01,-50.54,-11.93,-45.61,-0.62,-39.33,15.38,393.61,29.575454545454548
6.90625,2.17,6.07,40.65,11.58,-55.48,-5.59,-51.91,-1.4,-42.66,14.35,424.46,31.112727272727273
6.921875,2.51,3.36,39.69,11.19,-60.6,-0.19,-58.86,-3.5,-46.55,13.2,459.75,32.72727272727273
6.9375,2.73,1.75,39.19,10.15,-66.13,4.03,-67.05,-6.62,-50.38,11.74,496.64,34.18636363636364
6.953125,2.81,0.98,39.11,8.81,-72.33,7.01,-76.58,-10.27,-53.55,9.91,530.22,35.10181818181818
6.96875,2.76,0.59,39.24,7.4,-79.43,8.9,-86.95,-13.89,-55.86,7.82,553.95,34.95727272727273
6.984375,2.61,0.16,39.35,5.99,-87.62,9.94,-97.02,-16.92,-57.55,5.75,561.18,33.26090909090909
7.0,2.44,-0.57,39.29,4.56,-96.77,10.46,-105.14,-18.93,-59.23,3.99,547.28,29.76181818181818
7.015625,2.3,-1.55,39.0,3.03,-106.16,10.73,-109.44,-19.62,-61.67,2.65,511.72,24.635454545454547
7.03125,2.27,-2.61,38.42,1.4,-114.24,10.96,-108.36,-18.9,-65.51,1.59,458.69,18.51909090909091
7.046875,2.35,-3.56,37.42,-0.25,-118.83,11.27,-101.06,-16.92,-70.98,0.52,396.01,12.360909090909088
7.0625,2.5,-4.32,35.84,-1.79,-117.7,11.67,-87.77,-14.06,-77.77,-0.82,332.77,7.1409090909090915
7.078125,2.63,-4.9,33.51,-3.08,-109.4,12.11,-69.78,-10.73,-84.95,-2.52,276.5,3.580909090909087
7.09375,2.67,-5.41,30.45,-4.07,-93.87,12.54,-49.01,-7.27,-91.09,-4.48,231.6,2.005454545454546
7.109375,2.6,-6.02,26.77,-4.77,-72.63,12.88,-27.45,-3.85,-94.52,-6.53,199.12,2.3272727272727267
7.125,2.45,-6.99,22.74,-5.24,-48.23,13.12,-6.61,-0.44,-93.74,-8.66,177.72,4.192727272727273
7.140625,2.26,-8.7,18.57,-5.59,-23.59,13.28,12.69,2.99,-87.89,-11.01,165.01,7.092727272727271
7.15625,2.03,-11.56,14.33,-5.91,-1.1,13.41,30.18,6.44,-77.11,-13.85,158.44,10.481818181818182
7.171875,1.73,-15.8,9.96,-6.26,17.79,13.57,45.79,9.74,-62.56,-17.24,155.39,13.828181818181816
7.1875,1.3,-21.19,5.36,-6.68,32.6,13.82,59.3,12.58,-46.14,-20.89,152.75,16.61909090909091
7.203125,0.75,-26.83,0.53,-7.14,43.47,14.09,70.27,14.64,-29.9,-24.1,146.62,18.400000000000002
7.21875,0.21,-31.16,-4.39,-7.66,50.84,14.3,78.16,15.72,-15.46,-25.89,132.78,18.85909090909091
7.234375,-0.16,-32.49,-9.15,-8.32,55.17,14.31,82.68,15.73,-3.58,-25.48,108.07,17.88909090909091
7.25,-0.29,-29.52,-13.5,-9.23,56.88,14.04,84.03,14.77,5.89,-22.54,72.08,15.691818181818183
7.265625,-0.25,-21.95,-17.39,-10.53,56.47,13.48,82.99,13.1,13.66,-17.42,28.87,12.820909090909089
7.28125,-0.26,-10.61,-20.99,-12.35,54.55,12.73,80.71,11.07,20.54,-11.01,-13.11,10.115454545454547
7.296875,-0.52,2.83,-24.61,-14.68,51.87,11.91,78.45,9.09,26.99,-4.41,-43.38,8.503636363636366
7.3125,-1.17,16.35,-28.68,-17.36,49.21,11.15,77.17,7.55,32.98,1.44,-53.79,8.622727272727273
7.328125,-2.14,28.33,-33.6,-20.17,47.17,10.5,77.29,6.79,38.03,6.01,-42.87,10.485454545454543
7.34375,-3.18,37.85,-39.68,-22.83,46.07,9.97,78.6,6.89,41.6,9.2,-17.79,13.336363636363636
7.359375,-4.0,44.66,-47.02,-25.16,45.85,9.56,80.47,7.73,43.41,11.2,7.83,15.866363636363637
7.375,-4.36,48.96,-55.26,-27.08,46.24,9.27,82.08,8.92,43.58,12.23,19.82,16.76363636363636
7.390625,-4.23,50.95,-63.37,-28.7,46.91,9.13,82.81,9.99,42.64,12.41,10.43,15.360909090909091
7.40625,-3.69,50.72,-69.64,-30.3,47.67,9.13,82.37,10.56,41.29,11.69,-17.81,11.99909090909091
7.421875,-2.95,48.22,-72.06,-32.28,48.44,9.15,80.87,10.46,40.16,10.02,-53.36,7.879090909090909
7.4375,-2.22,43.45,-68.99,-35.05,49.19,9.04,78.61,9.84,39.57,7.43,-81.77,4.463636363636367
7.453125,-1.68,36.71,-59.95,-38.84,49.74,8.59,75.76,9.03,39.53,4.21,-92.5,2.7818181818181813
7.46875,-1.39,28.59,-45.89,-43.47,49.78,7.67,72.27,8.41,39.83,0.92,-83.5,3.02
7.484375,-1.29,19.92,-29.02,-48.17,48.88,6.26,67.83,8.21,40.22,-1.8,-60.7,4.576363636363637
7.5,-1.22,11.6,-11.94,-51.64,46.7,4.54,62.02,8.5,40.51,-3.48,-33.84,6.522727272727274
7.515625,-0.94,4.38,3.26,-52.43,43.2,2.72,54.59,9.15,40.63,-3.95,-11.62,8.09
7.53125,-0.19,-1.32,15.57,-49.34,38.63,0.94,45.58,9.96,40.61,-3.5,0.85,8.889999999999999
7.546875,1.24,-5.38,25.16,-41.99,33.41,-0.73,35.38,10.71,40.45,-2.65,1.44,8.821818181818182
7.5625,3.5,-7.93,32.83,-30.97,27.96,-2.35,24.59,11.3,40.12,-2.03,-10.89,7.829999999999999
7.578125,6.7,-9.25,39.44,-17.7,22.55,-4.07,13.8,11.69,39.46,-2.03,-37.03,5.778181818181818
7.59375,10.81,-9.65,45.52,-4.01,17.27,-5.99,3.48,11.91,38.27,-2.7,-76.04,2.624545454545455
7.609375,15.66,-9.47,51.15,8.44,12.1,-8.1,-6.11,12.09,36.4,-3.81,-122.76,-1.310000000000001
7.625,20.9,-9.17,56.16,18.51,7.03,-10.35,-14.88,12.45,33.79,-4.99,-167.36,-5.2645454545454555
7.640625,26.02,-9.2,60.39,25.73,2.12,-12.62,-22.92,13.32,30.61,-6.02,-198.43,-8.272727272727273
7.65625,30.48,-9.98,63.83,30.19,-2.45,-14.81,-30.55,15.07,27.2,-6.89,-208.25,-9.65090909090909
7.671875,33.88,-11.71,66.6,32.27,-6.53,-16.89,-38.33,17.94,23.96,-7.79,-197.52,-9.465454545454547
7.6875,36.04,-14.3,68.9,32.45,-10.08,-18.89,-46.96,21.94,21.18,-8.97,-175.87,-8.596363636363636
7.703125,36.93,-17.39,70.96,31.24,-13.23,-20.86,-56.95,26.7,18.88,-10.57,-157.61,-8.354545454545457
7.71875,36.66,-20.47,72.99,29.18,-16.27,-22.89,-68.23,31.54,16.8,-12.56,-154.7,-9.813636363636364
7.734375,35.37,-23.19,75.15,26.79,-19.56,-25.04,-79.81,35.72,14.48,-14.83,-171.31,-13.293636363636365
7.75,33.26,-25.59,77.58,24.54,-23.35,-27.33,-89.88,38.56,11.51,-17.22,-203.04,-18.269090909090906
7.765625,30.7,-28.12,80.35,22.74,-27.72,-29.75,-96.32,39.66,7.69,-19.63,-240.36,-23.705454545454543
7.78125,28.19,-31.4,83.4,21.47,-32.55,-32.18,-97.51,38.82,3.22,-21.95,-274.14,-28.60272727272727
7.796875,26.37,-35.87,86.62,20.59,-37.52,-34.4,-93.0,35.98,-1.44,-24.03,-299.26,-32.36
7.8125,25.77,-41.56,89.82,19.88,-42.28,-36.05,-83.7,31.07,-5.73,-25.64,-314.78,-34.836363636363636
7.828125,26.61,-47.81,92.78,19.15,-46.62,-36.78,-71.49,24.17,-9.22,-26.56,-321.13,-36.08181818181818
7.84375,28.64,-53.52,95.24,18.41,-50.5,-36.26,-58.42,15.67,-11.88,-26.57,-317.62,-36.07363636363636
7.859375,31.2,-57.35,97.0,17.84,-54.2,-34.39,-45.98,6.41,-14.06,-25.5,-302.18,-34.655454545454546
7.875,33.38,-58.07,97.95,17.72,-58.2,-31.23,-34.74,-2.38,-16.38,-23.19,-273.82,-31.723636363636363
7.890625,34.34,-54.93,98.19,18.28,-63.13,-27.1,-24.62,-9.47,-19.5,-19.49,-235.16,-27.50818181818182
7.90625,33.64,-47.75,97.98,19.56,-69.53,-22.41,-15.42,-14.05,-23.89,-14.31,-193.0,-22.652727272727272
7.921875,31.37,-37.07,97.7,21.4,-77.59,-17.59,-7.33,-16.17,-29.76,-7.67,-155.85,-18.05090909090909
7.9375,28.1,-24.07,97.77,23.43,-86.86,-12.98,-0.87,-16.57,-36.95,0.15,-129.93,-14.434545454545457
7.953125,24.66,-10.37,98.4,25.17,-96.12,-8.77,3.38,-16.38,-44.98,8.52,-116.15,-12.058181818181817
7.96875,21.78,2.4,99.56,26.2,-103.41,-5.04,5.27,-16.58,-53.04,16.58,-109.9,-10.561818181818182
7.984375,19.75,12.91,100.9,26.24,-106.44,-1.89,5.32,-17.6,-60.03,23.41,-103.57,-9.18181818181818
8.0,18.17,20.45,101.95,25.22,-103.27,0.56,4.5,-19.39,-64.75,28.29,-90.17,-7.130909090909088
8.015625,16.0,25.04,102.2,23.28,-92.91,2.13,3.8,-21.69,-66.15,30.85,-65.98,-3.9481818181818182
8.03125,11.99,27.23,101.31,20.72,-75.75,2.68,3.74,-24.36,-63.65,31.14,-30.85,0.38181818181818206
8.046875,5.24,27.75,99.17,17.92,-53.48,2.16,4.3,-27.43,-57.37,29.58,13.25,5.5536363636363655
8.0625,-4.22,27.14,95.85,15.21,-28.64,0.83,5.05,-30.93,-48.25,26.8,63.35,11.108181818181821
8.078125,-15.3,25.59,91.52,12.76,-3.84,-0.85,5.57,-34.53,-37.74,23.55,115.45,16.561818181818182
8.09375,-25.99,23.0,86.37,10.56,18.81,-2.3,5.71,-37.49,-27.44,20.54,163.92,21.426363636363636
8.109375,-34.19,19.32,80.58,8.46,38.03,-3.01,5.6,-39.02,-18.56,18.33,201.54,25.189090909090908
8.125,-38.54,14.68,74.29,6.22,53.35,-2.82,5.42,-38.71,-11.71,17.17,221.64,27.362727272727273
8.140625,-38.97,9.48,67.67,3.65,64.74,-1.99,5.11,-36.94,-6.83,17.01,221.54,27.679090909090913
8.15625,-36.79,4.31,60.93,0.74,72.42,-1.14,4.31,-34.77,-3.47,17.47,205.09,26.281818181818185
8.171875,-34.06,-0.34,54.28,-2.35,76.64,-1.01,2.41,-33.41,-1.06,18.05,182.16,23.755454545454544
8.1875,-32.78,-4.24,48.02,-5.32,77.73,-2.07,-1.03,-33.41,0.85,18.32,164.66,20.975454545454546
8.203125,-34.13,-7.47,42.62,-7.85,76.27,-4.27,-6.16,-34.25,2.51,18.04,161.11,18.765454545454546
8.21875,-38.17,-10.25,38.72,-9.74,73.12,-7.1,-12.63,-34.49,4.02,17.24,173.06,17.616363636363637
8.234375,-43.94,-12.82,37.12,-11.0,69.32,-9.73,-19.75,-32.36,5.36,16.13,194.96,17.57181818181818
8.25,-49.81,-15.27,38.52,-11.82,65.84,-11.42,-26.75,-26.78,6.55,14.93,217.52,18.31909090909091
8.265625,-53.91,-17.61,43.11,-12.54,63.37,-11.95,-33.02,-17.92,7.59,13.73,232.41,19.387272727272727
8.28125,-54.37,-19.78,50.39,-13.5,62.1,-11.69,-38.31,-7.13,8.47,12.47,235.72,20.39727272727273
8.296875,-49.68,-21.8,59.27,-14.87,61.86,-11.51,-42.74,3.62,9.25,10.97,228.68,21.186363636363637
8.3125,-39.02,-23.75,68.37,-16.64,62.28,-12.33,-46.79,12.73,9.94,9.11,216.28,21.834545454545456
8.328125,-22.76,-25.75,76.62,-18.58,63.05,-14.75,-51.14,19.44,10.63,6.91,205.09,22.614545454545453
8.34375,-2.5,-27.95,83.44,-20.38,64.04,-18.64,-56.46,23.97,11.31,4.57,201.38,23.889090909090907
8.359375,19.14,-30.34,88.7,-21.76,65.28,-23.31,-63.27,26.87,12.03,2.36,209.88,25.96181818181818
8.375,39.2,-32.85,92.28,-22.63,66.77,-27.71,-71.61,28.49,12.88,0.51,232.53,28.89636363636364
8.390625,55.24,-35.31,93.73,-23.19,68.31,-30.93,-80.89,28.75,14.01,-0.99,267.4,32.375454545454545
8.40625,65.92,-37.6,92.12,-23.84,69.42,-32.51,-89.8,27.5,15.55,-2.33,308.44,35.71545454545455
8.421875,71.06,-39.61,86.56,-25.16,69.51,-32.6,-96.5,24.96,17.5,-3.89,346.6,38.039090909090916
8.4375,71.3,-41.38,76.7,-27.61,68.02,-31.82,-99.04,22.06,19.59,-6.01,372.75,38.596363636363634
8.453125,67.61,-43.05,63.28,-31.37,64.72,-31.03,-95.89,20.12,21.3,-8.89,380.56,37.03272727272727
8.46875,60.95,-44.95,48.04,-36.05,59.81,-31.01,-86.45,20.15,21.94,-12.51,368.27,33.47181818181818
8.484375,52.34,-47.42,33.23,-40.76,53.81,-32.28,-71.34,22.17,21.03,-16.54,338.43,28.424545454545456
8.5,43.02,-50.65,20.87,-44.14,47.37,-34.84,-52.23,25.13,18.46,-20.41,296.13,22.61
8.515625,34.69,-54.41,12.12,-44.82,40.97,-37.87,-31.35,27.44,14.66,-23.39,246.72,16.796363636363637
8.53125,29.29,-57.79,6.96,-41.78,34.75,-39.52,-10.88,27.85,10.42,-24.8,194.41,11.719090909090909
8.546875,28.4,-59.4,4.4,-34.79,28.6,-36.99,7.65,26.14,6.51,-24.14,142.0,8.034545454545453
8.5625,32.43,-57.62,2.84,-24.48,22.29,-27.16,23.51,23.1,3.42,-21.28,91.14,6.199090909090909
8.578125,39.98,-51.28,0.69,-12.18,15.71,-7.64,36.69,19.94,1.14,-16.56,42.91,6.309090909090907
8.59375,47.97,-40.15,-3.23,0.49,8.98,21.95,47.54,17.48,-0.76,-10.65,-1.58,8.003636363636362
8.609375,52.56,-25.21,-9.34,12.05,2.46,59.25,56.34,15.77,-2.81,-4.45,-40.45,10.56090909090909
8.625,50.83,-8.34,-17.29,21.46,-3.49,99.29,63.16,14.13,-5.36,1.24,-70.69,13.176363636363636
8.640625,42.05,8.16,-26.27,28.21,-8.62,135.64,67.85,11.73,-8.4,5.91,-88.23,15.275454545454538
8.65625,28.28,22.26,-35.41,32.28,-13.0,162.25,70.26,8.06,-11.6,9.46,-89.59,16.659090909090907
8.671875,13.39,32.64,-44.28,33.94,-16.91,175.02,70.5,3.16,-14.53,12.06,-74.12,17.35181818181818
8.6875,1.16,38.63,-52.89,33.63,-20.78,172.7,68.97,-2.56,-16.94,14.0,-46.14,17.25272727272727
8.703125,-6.6,40.22,-61.57,31.95,-24.96,156.73,66.32,-8.6,-18.84,15.44,-14.89,15.927272727272726
8.71875,-10.78,37.85,-70.55,29.49,-29.62,130.32,63.17,-14.57,-20.59,16.4,8.38,12.68181818181818
8.734375,-14.18,32.51,-79.63,26.84,-34.75,97.29,59.98,-20.16,-22.68,16.72,15.22,7.0145454545454555
8.75,-19.67,25.88,-88.11,24.49,-40.2,61.34,56.84,-25.12,-25.59,16.3,3.93,-0.9009090909090919
8.765625,-28.37,20.07,-95.15,22.7,-45.76,25.59,53.67,-29.09,-29.51,15.18,-19.66,-10.030000000000001
8.78125,-39.05,17.22,-100.17,21.51,-51.31,-7.23,50.36,-31.72,-34.38,13.61,-45.3,-18.769090909090906
8.796875,-49.03,18.74,-103.14,20.82,-56.81,-34.79,46.9,-32.71,-39.79,11.96,-63.76,-25.600909090909088
8.8125,-55.85,24.73,-104.63,20.5,-62.4,-55.19,43.41,-32.01,-45.09,10.53,-71.21,-29.746363636363636
8.828125,-58.73,33.93,-105.36,20.48,-68.43,-67.29,40.03,-29.86,-49.41,9.42,-70.28,-31.40909090909091
8.84375,-58.92,44.18,-105.91,20.84,-75.43,-71.07,36.71,-26.76,-51.88,8.55,-67.4,-31.553636363636368
8.859375,-58.74,53.3,-106.34,21.74,-83.92,-67.78,33.14,-23.3,-51.76,7.72,-68.31,-31.295454545454547
8.875,-60.21,59.79,-106.28,23.31,-94.17,-59.74,28.82,-20.01,-48.67,6.82,-74.83,-31.37909090909091
8.890625,-63.9,63.25,-105.12,25.54,-105.75,-49.8,23.26,-17.19,-42.83,5.87,-84.77,-31.94909090909091
8.90625,-68.86,64.03,-102.33,28.24,-117.31,-40.48,16.28,-14.9,-35.04,5.04,-94.32,-32.695454545454545
8.921875,-73.31,62.89,-97.59,31.03,-126.67,-33.37,8.13,-13.06,-26.48,4.48,-101.11,-33.18727272727273
8.9375,-75.83,60.47,-90.86,33.5,-131.32,-28.84,-0.57,-11.54,-18.39,4.17,-105.45,-33.15090909090909
8.953125,-76.03,57.1,-82.57,35.33,-129.12,-26.21,-9.01,-10.24,-11.71,3.89,-109.34,-32.53727272727273
8.96875,-74.66,52.82,-73.93,36.34,-119.08,-24.39,-16.55,-9.18,-6.85,3.38,-114.19,-31.480909090909087
8.984375,-73.06,47.59,-67.08,36.55,-101.7,-22.46,-22.96,-8.32,-3.62,2.51,-119.13,-30.152727272727272
9.0,-72.47,41.41,-64.93,36.09,-78.83,-20.14,-28.49,-7.64,-1.49,1.34,-121.0,-28.74090909090909
9.015625,-73.52,34.37,-70.35,35.22,-53.1,-17.76,-33.74,-7.07,0.21,0.14,-115.99,-27.417272727272724
9.03125,-76.15,26.7,-84.95,34.27,-27.12,-15.85,-39.54,-6.53,1.94,-0.86,-102.17,-26.387272727272727
9.046875,-79.78,18.71,-108.14,33.64,-2.98,-14.76,-46.54,-5.96,3.86,-1.54,-81.06,-25.868181818181814
9.0625,-83.63,10.74,-136.81,33.68,18.06,-14.3,-55.08,-5.37,5.79,-2.05,-57.63,-26.05454545454546
9.078125,-87.02,3.02,-166.23,34.49,35.49,-13.91,-64.86,-4.81,7.44,-2.7,-38.52,-27.05545454545454
9.09375,-89.59,-4.37,-191.67,35.72,49.32,-12.93,-74.84,-4.37,8.58,-3.8,-29.33,-28.843636363636367
9.109375,-91.39,-11.46,-209.95,36.55,59.82,-11.01,-83.33,-4.14,9.21,-5.62,-32.21,-31.229999999999997
9.125,-92.79,-18.33,-220.39,35.94,67.33,-8.35,-88.37,-4.21,9.56,-8.29,-45.36,-33.93272727272728
9.140625,-94.36,-24.95,-224.51,33.05,72.25,-5.5,-88.31,-4.6,9.95,-11.79,-64.21,-36.63454545454545
9.15625,-96.63,-31.26,-224.78,27.69,74.98,-3.04,-82.33,-5.29,10.64,-15.94,-84.03,-39.09
9.171875,-99.84,-37.1,-223.16,20.43,75.98,-1.34,-70.78,-6.2,11.64,-20.3,-102.33,-41.18181818181818
9.1875,-103.85,-42.48,-220.13,12.29,75.75,-0.34,-55.03,-7.18,12.82,-24.1,-119.48,-42.88454545454545
9.203125,-108.0,-47.48,-214.63,4.35,74.78,0.3,-36.96,-8.08,13.91,-26.42,-137.2,-44.129999999999995
9.21875,-111.14,-52.2,-204.85,-2.75,73.54,0.97,-18.35,-8.8,14.8,-26.39,-155.88,-44.64090909090908
9.234375,-111.81,-56.48,-189.26,-8.96,72.32,1.9,-0.43,-9.29,15.49,-23.61,-172.64,-43.88818181818181
9.25,-108.38,-59.64,-167.53,-14.59,71.26,3.13,16.23,-9.59,16.1,-18.39,-181.98,-41.21636363636364
9.265625,-99.51,-60.51,-140.72,-19.97,70.32,4.51,31.44,-9.75,16.68,-11.69,-178.69,-36.17181818181819
9.28125,-84.64,-57.78,-110.98,-25.23,69.5,5.8,45.04,-9.82,17.1,-4.78,-161.4,-28.83545454545455
9.296875,-64.38,-50.62,-80.85,-30.22,68.87,6.82,56.7,-9.78,17.03,1.17,-134.2,-19.95090909090909
9.3125,-40.71,-39.11,-52.47,-34.72,68.58,7.47,65.89,-9.55,16.13,5.44,-104.99,-10.73090909090909
9.328125,-16.4,-24.42,-27.21,-38.73,68.8,7.74,72.16,-8.98,14.23,7.95,-81.39,-2.3863636363636376
9.34375,5.7,-8.48,-5.64,-42.51,69.47,7.69,75.31,-7.96,11.48,8.99,-66.72,4.302727272727271
9.359375,23.62,6.67,12.2,-46.58,70.24,7.48,75.62,-6.44,8.33,8.99,-58.48,9.240909090909094
9.375,36.75,19.48,26.44,-51.46,70.45,7.24,73.77,-4.5,5.34,8.29,-50.12,12.879999999999997
9.390625,45.67,29.29,37.19,-57.36,69.39,7.08,70.62,-2.31,2.9,7.1,-34.82,15.886363636363637
9.40625,51.58,36.24,44.65,-64.04,66.64,6.97,66.99,-0.1,1.17,5.56,-9.39,18.75181818181818
9.421875,55.52,40.88,49.23,-70.64,62.15,6.8,63.47,1.96,-0.08,3.88,24.05,21.565454545454546
9.4375,58.03,43.77,51.74,-75.84,56.39,6.35,60.3,3.79,-1.23,2.41,59.04,24.068181818181824
9.453125,59.2,45.1,53.29,-78.13,50.09,5.46,57.39,5.4,-2.69,1.49,87.77,25.85181818181818
9.46875,59.06,44.8,55.05,-76.26,43.93,4.07,54.52,6.82,-4.71,1.34,104.26,26.625454545454545
9.484375,57.84,42.75,57.84,-69.64,38.36,2.31,51.48,8.0,-7.27,1.9,106.36,26.35727272727273
9.5,56.02,39.08,61.87,-58.65,33.5,0.38,48.24,8.82,-10.17,2.88,95.85,25.256363636363634
9.515625,53.97,34.28,66.71,-44.64,29.11,-1.51,44.91,9.08,-13.08,3.88,77.16,23.62454545454545
9.53125,51.64,29.17,71.49,-29.57,24.84,-3.2,41.67,8.71,-15.72,4.6,55.72,21.759090909090908
9.546875,48.29,24.47,75.32,-15.43,20.31,-4.7,38.52,7.79,-17.94,5.11,36.92,19.87818181818182
9.5625,42.75,20.62,77.56,-3.73,15.3,-6.05,35.24,6.64,-19.83,5.75,25.07,18.12
9.578125,33.8,17.68,78.05,4.8,9.84,-7.38,31.41,5.61,-21.72,6.99,22.63,16.51909090909091
9.59375,20.74,15.4,76.98,10.22,4.19,-8.8,26.58,5.02,-24.06,9.13,29.34,14.976363636363637
9.609375,3.74,13.5,74.74,13.15,-1.27,-10.34,20.53,4.91,-27.3,12.0,42.25,13.264545454545454
9.625,-16.19,11.83,71.71,14.36,-6.17,-11.92,13.41,5.16,-31.69,14.94,56.33,11.07
9.640625,-37.51,10.42,68.18,14.52,-10.41,-13.45,5.72,5.45,-37.06,17.02,66.39,8.115454545454547
9.65625,-58.73,9.3,64.3,14.09,-14.23,-14.82,-1.89,5.58,-42.81,17.38,69.54,4.337272727272728
9.671875,-78.8,8.38,60.11,13.34,-18.13,-16.05,-8.91,5.43,-47.9,15.7,66.47,-0.032727272727272674
9.6875,-97.44,7.31,55.58,12.47,-22.66,-17.31,-15.17,5.1,-51.13,12.33,60.78,-4.558181818181819
9.703125,-115.0,5.55,50.68,11.63,-28.15,-18.81,-20.83,4.7,-51.47,8.22,56.64,-8.803636363636363
9.71875,-132.07,2.66,45.4,10.99,-34.53,-20.79,-26.29,4.32,-48.41,4.59,56.07,-12.55090909090909
9.734375,-149.05,-1.55,39.83,10.57,-41.38,-23.37,-32.07,3.91,-42.19,2.35,57.5,-15.950000000000001
9.75,-165.75,-6.86,34.18,10.27,-48.11,-26.49,-38.6,3.39,-33.74,1.8,56.67,-19.385454545454547
9.765625,-181.38,-12.65,28.77,9.92,-54.24,-29.93,-46.24,2.63,-24.45,2.43,49.01,-23.284545454545455
9.78125,-194.58,-18.16,23.99,9.39,-59.61,-33.26,-55.04,1.62,-15.71,3.17,32.12,-27.824545454545454
9.796875,-203.73,-22.68,20.09,8.72,-64.44,-35.97,-64.66,0.38,-8.47,2.87,7.04,-32.804545454545455
9.8125,-207.2,-25.87,17.08,8.18,-69.26,-37.49,-74.12,-1.03,-3.1,0.81,-22.49,-37.6809090909091
9.828125,-203.64,-27.83,14.71,8.13,-74.8,-37.35,-81.94,-2.53,0.68,-3.0,-51.46,-41.73
9.84375,-192.33,-29.05,12.5,8.8,-81.77,-35.29,-86.35,-3.98,3.44,-7.74,-74.89,-44.24181818181818
9.859375,-173.55,-30.23,10.02,10.16,-90.62,-31.39,-85.81,-5.21,5.76,-12.09,-88.46,-44.67454545454545
9.875,-148.76,-31.97,7.0,11.81,-101.23,-26.0,-79.58,-5.92,7.95,-14.73,-88.65,-42.73454545454546
9.890625,-120.45,-34.58,3.38,13.22,-112.62,-19.75,-68.0,-5.84,9.98,-14.87,-73.39,-38.447272727272725
9.90625,-91.64,-37.92,-0.71,13.88,-122.88,-13.37,-52.38,-4.8,11.63,-12.47,-43.48,-32.194545454545455
9.921875,-65.08,-41.41,-5.08,13.56,-129.51,-7.5,-34.51,-2.88,12.74,-8.2,-4.11,-24.725454545454543
9.9375,-42.58,-44.06,-9.5,12.33,-130.06,-2.63,-16.12,-0.4,13.29,-3.12,35.26,-17.053636363636368
9.953125,-24.65,-44.72,-13.6,10.43,-122.93,1.04,1.54,2.19,13.49,1.82,63.05,-10.212727272727271
9.96875,-10.73,-42.31,-16.87,8.22,-107.95,3.55,17.78,4.53,13.68,6.03,69.96,-4.919090909090909
9.984375,0.28,-36.16,-18.6,5.97,-86.49,5.13,32.3,6.49,14.13,9.35,53.48,-1.2836363636363648
10.0,9.48,-26.31,-18.14,3.9,-61.04,6.16,44.83,8.17,14.93,11.81,20.09,1.2618181818181822
10.015625,17.57,-13.6,-15.2,2.15,-34.43,7.01,55.01,9.77,15.95,13.22,-16.52,3.7209090909090916
10.03125,24.96,0.49,-10.21,0.83,-9.18,7.93,62.4,11.38,16.9,13.01,-40.9,7.0554545454545465
10.046875,31.9,14.17,-4.23,-0.04,13.02,9.02,66.68,12.88,17.5,10.25,-42.71,11.676363636363634
10.0625,38.73,25.87,1.32,-0.56,31.37,10.23,67.89,13.91,17.59,4.04,-20.97,17.22
10.078125,45.79,34.67,5.21,-0.92,45.77,11.42,66.52,14.13,17.24,-5.99,16.36,22.74545454545455
10.09375,53.24,40.32,6.92,-1.4,56.57,12.54,63.38,13.38,16.61,-19.34,57.18,27.218181818181815
10.109375,60.91,43.21,6.77,-2.24,64.28,13.56,59.39,11.84,15.92,-34.66,91.8,30.070909090909094
10.125,68.31,43.95,5.62,-3.54,69.52,14.52,55.3,9.97,15.27,-50.09,116.76,31.417272727272724
10.140625,74.81,43.02,4.47,-5.19,72.81,15.42,51.53,8.32,14.62,-63.71,134.13,31.83909090909091
10.15625,79.92,40.76,3.89,-6.95,74.6,16.23,48.16,7.33,13.77,-73.94,147.9,31.969999999999995
10.171875,83.57,37.37,3.88,-8.52,75.25,16.89,45.03,7.15,12.49,-79.7,160.13,32.14
10.1875,86.04,33.13,4.03,-9.7,75.0,17.4,42.02,7.59,10.62,-80.5,169.82,32.31363636363636
10.203125,87.96,28.5,3.91,-10.47,74.13,17.79,39.09,8.25,8.16,-76.46,175.29,32.377272727272725
10.21875,89.96,24.06,3.33,-10.98,72.87,18.1,36.38,8.69,5.32,-68.42,177.37,32.42545454545454
10.234375,92.42,20.34,2.47,-11.53,71.44,18.36,34.0,8.6,2.37,-57.82,180.75,32.85454545454546
10.25,95.38,17.69,1.71,-12.42,70.04,18.51,31.86,7.9,-0.38,-46.47,192.01,34.166363636363634
10.265625,98.48,16.15,1.42,-13.8,68.77,18.4,29.61,6.62,-2.76,-36.07,215.34,36.559999999999995
10.28125,101.15,15.52,1.77,-15.67,67.74,17.9,26.68,4.94,-4.75,-27.76,248.83,39.66818181818182
10.296875,102.88,15.46,2.66,-17.84,67.08,16.92,22.54,2.94,-6.43,-21.82,284.37,42.61454545454546
10.3125,103.39,15.77,3.81,-20.07,66.89,15.54,16.97,0.62,-7.98,-17.88,310.82,44.35272727272727
10.328125,102.72,16.28,4.87,-22.13,67.2,13.86,10.21,-2.01,-9.59,-15.35,319.01,44.097272727272724
10.34375,101.21,16.96,5.62,-23.92,67.84,12.1,2.89,-4.98,-11.39,-13.89,305.66,41.64545454545455
10.359375,99.26,17.68,6.04,-25.47,68.4,10.4,-4.2,-8.22,-13.5,-13.6,274.01,37.345454545454544
10.375,97.2,18.2,6.3,-26.94,68.34,8.93,-10.44,-11.62,-15.95,-14.68,231.57,31.900909090909092
10.390625,95.1,18.11,6.67,-28.6,67.1,7.79,-15.64,-14.88,-18.65,-17.0,186.59,26.053636363636368
10.40625,92.91,16.96,7.41,-30.86,64.39,7.04,-20.05,-17.64,-21.31,-19.85,145.0,20.363636363636363
10.421875,90.48,14.42,8.61,-34.08,60.21,6.62,-24.3,-19.41,-23.54,-22.07,109.03,15.088181818181821
10.4375,87.74,10.45,10.07,-38.49,54.95,6.35,-29.12,-19.67,-25.02,-22.77,77.66,10.195454545454545
10.453125,84.74,5.32,11.43,-43.91,49.15,5.95,-35.2,-18.08,-25.67,-21.89,48.15,5.453636363636364
10.46875,81.63,-0.49,12.28,-49.57,43.41,5.15,-42.93,-14.65,-25.79,-20.41,17.69,0.5745454545454546
10.484375,78.49,-6.45,12.37,-54.2,38.15,3.8,-52.27,-9.84,-26.01,-19.94,-15.15,-4.640909090909092
10.5,75.21,-12.13,11.79,-56.27,33.49,2.02,-62.58,-4.56,-27.03,-21.84,-50.34,-10.203636363636365
10.515625,71.55,-17.32,10.89,-54.49,29.25,0.05,-72.54,0.17,-29.32,-26.36,-87.03,-15.922727272727274
10.53125,67.16,-22.1,10.15,-48.32,25.05,-1.79,-80.25,3.49,-32.84,-32.34,-124.52,-21.482727272727274
10.546875,61.79,-26.75,9.89,-38.17,20.5,-3.37,-83.75,5.01,-37.0,-37.46,-163.2,-26.59181818181818
10.5625,55.45,-31.67,10.18,-25.35,15.33,-4.82,-81.56,4.87,-40.8,-39.03,-204.99,-31.126363636363635
10.578125,48.44,-37.12,10.78,-11.67,9.65,-6.42,-73.22,3.52,-43.12,-34.93,-252.92,-35.18272727272727
10.59375,41.29,-43.0,11.4,1.13,3.81,-8.45,-59.54,1.44,-43.05,-24.26,-310.02,-39.02272727272727
10.609375,34.53,-48.73,11.88,11.78,-1.68,-11.02,-42.34,-0.98,-40.18,-7.56,-377.53,-42.893636363636354
10.625,28.49,-53.22,12.28,19.69,-6.45,-13.96,-23.83,-3.48,-34.68,13.38,-453.11,-46.808181818181815
10.640625,23.14,-55.16,12.82,24.87,-10.43,-16.94,-5.93,-5.83,-27.24,35.93,-530.41,-50.47090909090909
10.65625,18.16,-53.47,13.63,27.73,-13.99,-19.68,10.12,-7.82,-18.89,57.33,-600.13,-53.36454545454546
10.671875,13.07,-47.74,14.63,28.86,-17.67,-22.09,23.84,-9.42,-10.73,75.08,-652.67,-54.98545454545454
10.6875,7.41,-38.48,15.59,28.82,-21.99,-24.3,35.2,-10.98,-3.66,87.58,-681.46,-55.11545454545455
10.703125,0.97,-26.97,16.48,28.14,-27.18,-26.6,44.24,-13.2,1.82,94.29,-685.19,-53.92727272727273
10.71875,-6.15,-14.79,17.65,27.24,-33.05,-29.29,50.9,-16.71,5.6,95.73,-667.98,-51.89545454545455
10.734375,-13.6,-3.39,19.89,26.42,-39.2,-32.58,54.98,-21.46,7.96,93.25,-637.42,-49.559090909090905
10.75,-20.87,6.25,24.19,25.82,-45.17,-36.45,56.35,-26.2,9.37,88.55,-601.34,-47.22727272727273
10.765625,-27.53,13.78,31.11,25.48,-50.7,-40.71,55.21,-28.7,10.2,83.15,-565.22,-44.902727272727276
10.78125,-33.41,19.21,40.46,25.35,-55.77,-44.92,52.09,-26.71,10.78,78.09,-531.33,-42.37818181818182
10.796875,-38.73,22.64,51.19,25.33,-60.62,-48.5,47.79,-19.15,11.22,73.86,-499.63,-39.50909090909091
10.8125,-44.07,24.12,61.77,25.35,-65.57,-50.75,43.12,-6.88,11.57,70.45,-469.33,-36.38363636363636
10.828125,-50.32,23.71,70.85,25.39,-71.0,-51.05,38.65,7.55,11.82,67.63,-440.12,-33.35363636363636
10.84375,-58.39,21.53,77.75,25.47,-77.29,-49.01,34.63,21.1,12.01,65.06,-412.18,-30.847272727272728
10.859375,-68.83,17.98,82.65,25.71,-84.75,-44.69,30.96,31.64,12.17,62.39,-385.56,-29.12090909090909
10.875,-81.39,13.69,86.27,26.22,-93.4,-38.6,27.42,38.67,12.35,59.33,-359.52,-28.087272727272726
10.890625,-94.7,9.28,89.39,27.17,-102.69,-31.5,23.84,42.99,12.53,55.63,-332.65,-27.337272727272726
10.90625,-106.31,5.25,92.39,28.56,-111.32,-24.21,20.19,45.75,12.65,51.11,-303.73,-26.333636363636366
10.921875,-113.18,1.7,95.22,30.29,-117.29,-17.31,16.59,47.36,12.69,45.78,-272.65,-24.618181818181814
10.9375,-112.58,-1.6,97.58,32.01,-118.4,-11.07,13.12,47.42,12.68,39.91,-240.56,-21.953636363636363
10.953125,-103.04,-4.85,99.22,33.32,-112.99,-5.5,9.67,45.14,12.71,33.92,-209.18,-18.325454545454548
10.96875,-84.93,-8.15,100.16,33.79,-100.54,-0.54,5.84,40.23,12.92,28.32,-179.82,-13.883636363636366
10.984375,-60.49,-11.21,100.56,33.19,-81.92,3.79,1.09,33.27,13.33,23.53,-152.39,-8.840909090909088
11.0,-33.26,-13.55,100.57,31.55,-59.18,7.36,-4.98,25.55,13.79,19.7,-125.31,-3.432727272727273
11.015625,-7.03,-14.83,100.12,29.14,-34.87,10.08,-12.44,18.42,14.01,16.7,-96.3,2.090909090909092
11.03125,15.15,-15.09,98.99,26.36,-11.39,11.97,-20.87,12.68,13.62,14.18,-63.65,7.449999999999999
11.046875,31.63,-14.9,96.8,23.57,9.55,13.25,-29.45,8.42,12.41,11.79,-27.18,12.353636363636362
11.0625,42.31,-15.17,93.25,20.97,26.99,14.33,-37.32,5.36,10.41,9.22,11.56,16.53727272727273
11.078125,48.24,-16.82,88.18,18.61,40.6,15.54,-43.87,3.26,7.92,6.37,49.89,19.810909090909092
11.09375,50.92,-20.37,81.55,16.44,50.49,17.02,-49.07,2.06,5.32,3.25,85.36,22.088181818181816
11.109375,51.72,-25.75,73.42,14.38,56.96,18.66,-53.38,1.8,2.92,-0.11,116.75,23.39727272727273
11.125,51.54,-32.25,63.88,12.36,60.47,20.17,-57.7,2.37,0.82,-3.71,144.85,23.89090909090909
11.140625,50.76,-38.84,53.18,10.39,61.61,21.32,-62.96,3.38,-1.09,-7.56,172.19,23.85272727272727
11.15625,49.55,-44.44,41.68,8.44,61.05,22.08,-69.8,4.33,-3.04,-11.62,202.28,23.682727272727274
11.171875,48.09,-48.27,29.87,6.52,59.45,22.66,-78.33,4.73,-5.21,-15.57,238.46,23.85454545454546
11.1875,46.7,-50.19,18.27,4.64,57.35,23.4,-87.99,4.38,-7.63,-18.86,282.29,24.76
11.203125,45.84,-50.69,7.29,2.88,55.21,24.61,-97.56,3.29,-10.2,-20.68,332.1,26.553636363636368
11.21875,45.87,-50.8,-2.86,1.34,53.33,26.33,-105.4,1.54,-12.7,-20.26,382.2,28.96272727272727
11.234375,46.86,-51.55,-12.24,0.09,51.88,28.34,-109.72,-0.73,-14.95,-17.13,423.67,31.320000000000004
11.25,48.56,-53.51,-21.0,-0.89,50.98,30.17,-109.07,-3.42,-16.83,-11.4,447.16,32.79545454545455
11.265625,50.59,-56.33,-29.31,-1.81,50.66,31.31,-102.76,-6.39,-18.36,-3.71,446.78,32.78818181818181
11.28125,52.67,-58.73,-37.15,-3.01,50.89,31.42,-91.04,-9.43,-19.66,4.91,423.37,31.294545454545457
11.296875,54.75,-58.79,-44.43,-4.84,51.6,30.4,-75.08,-12.3,-21.0,13.39,385.47,29.015454545454546
11.3125,56.98,-54.69,-51.09,-7.46,52.65,28.43,-56.55,-14.75,-22.72,20.91,346.89,27.14545454545454
11.328125,59.51,-45.32,-57.41,-10.77,53.83,25.95,-37.13,-16.63,-25.18,27.03,321.78,26.878181818181815
11.34375,62.26,-30.79,-64.08,-14.37,54.86,23.4,-18.07,-17.95,-28.6,31.62,319.38,28.878181818181815
11.359375,64.92,-12.58,-72.12,-17.73,55.43,21.07,-0.05,-18.78,-32.87,34.68,340.91,32.98909090909091
11.375,66.99,6.71,-82.45,-20.43,55.21,19.01,16.57,-19.25,-37.4,36.2,379.69,38.25909090909091
11.390625,67.97,23.8,-95.48,-22.29,53.94,17.02,31.57,-19.46,-41.18,36.1,424.1,43.28090909090909
11.40625,67.6,35.5,-110.85,-23.47,51.52,14.83,44.57,-19.49,-43.0,34.43,461.98,46.692727272727275
11.421875,65.9,39.81,-127.44,-24.42,47.97,12.27,55.1,-19.44,-41.83,31.46,484.65,47.6390909090909
11.4375,63.15,36.78,-143.88,-25.74,43.46,9.45,62.82,-19.42,-37.33,27.86,488.97,46.01090909090909
11.453125,59.81,29.01,-159.01,-27.97,38.27,6.7,67.7,-19.55,-29.92,24.49,477.07,42.41818181818182
11.46875,56.38,21.02,-172.18,-31.45,32.7,4.35,70.16,-19.9,-20.75,22.18,454.43,37.903636363636366
11.484375,53.24,17.86,-183.21,-36.16,27.09,2.54,70.89,-20.44,-11.27,21.48,427.04,33.550909090909094
11.5,50.59,23.07,-192.08,-41.56,21.67,1.07,70.58,-21.03,-2.74,22.42,399.12,30.10090909090909
11.515625,48.3,37.34,-198.58,-46.64,16.58,-0.47,69.74,-21.42,4.12,24.59,372.06,27.783636363636358
11.53125,46.01,58.14,-202.3,-50.05,11.8,-2.49,68.52,-21.35,9.23,27.32,344.62,26.313636363636363
11.546875,43.22,80.73,-202.79,-50.42,7.18,-5.14,66.92,-20.56,13.01,29.93,314.35,25.130000000000006
11.5625,39.5,100.02,-199.8,-46.77,2.57,-8.24,64.88,-18.93,16.01,31.96,279.08,23.66181818181818
11.578125,34.7,112.27,-193.54,-38.89,-2.14,-11.45,62.45,-16.45,18.65,33.25,237.82,21.515454545454546
11.59375,29.06,116.1,-184.53,-27.37,-6.88,-14.42,59.83,-13.24,21.08,33.87,190.97,18.588181818181816
11.609375,23.13,112.26,-173.45,-13.57,-11.5,-17.07,57.27,-9.54,23.29,34.02,140.14,14.99818181818182
11.625,17.56,102.73,-160.86,0.76,-15.86,-19.53,54.95,-5.63,25.19,33.88,88.17,11.032727272727271
11.640625,12.76,89.71,-147.15,13.92,-19.95,-22.09,52.87,-1.77,26.82,33.46,39.0,7.052727272727271
11.65625,8.73,75.02,-132.61,24.66,-23.97,-25.01,50.94,1.84,28.39,32.78,-2.8,3.4518181818181803
11.671875,5.02,59.93,-117.53,32.42,-28.22,-28.46,48.95,5.03,30.19,31.84,-33.51,0.5145454545454555
11.6875,0.93,45.38,-102.35,37.44,-32.9,-32.48,46.74,7.63,32.49,30.79,-52.03,-1.6690909090909078
11.703125,-4.18,32.15,-87.51,40.57,-38.0,-36.98,44.26,9.48,35.29,29.88,-60.77,-3.255454545454546
11.71875,-10.58,20.74,-73.42,42.87,-43.27,-41.72,41.62,10.45,38.27,29.3,-65.06,-4.618181818181821
11.734375,-18.13,11.42,-60.26,45.18,-48.4,-46.21,39.13,10.52,40.8,29.11,-70.8,-6.149090909090909
11.75,-26.3,3.9,-47.85,47.81,-53.17,-49.74,37.16,9.82,42.11,29.01,-81.93,-8.107272727272727
11.765625,-34.42,-2.39,-35.78,50.53,-57.71,-51.42,35.94,8.6,41.6,28.61,-99.44,-10.534545454545453
11.78125,-42.02,-8.22,-23.59,52.78,-62.47,-50.51,35.44,7.14,39.11,27.57,-121.94,-13.337272727272726
11.796875,-48.86,-14.22,-11.03,54.1,-68.16,-46.66,35.23,5.69,34.98,25.94,-147.08,-16.37
11.8125,-55.13,-20.5,1.73,54.42,-75.39,-40.13,34.64,4.33,30.02,24.07,-172.37,-19.482727272727274
11.828125,-61.29,-26.67,14.02,54.0,-84.35,-31.75,32.92,3.1,25.15,22.43,-195.13,-22.506363636363634
11.84375,-68.07,-31.96,24.9,53.25,-94.43,-22.63,29.53,1.93,21.05,21.23,-212.35,-25.231818181818177
11.859375,-76.29,-35.71,33.47,52.36,-104.14,-13.88,24.25,0.85,17.95,20.3,-221.06,-27.44545454545454
11.875,-86.69,-37.63,39.22,51.21,-111.35,-6.21,17.25,-0.03,15.61,19.16,-219.76,-29.019999999999996
11.890625,-99.58,-38.21,42.15,49.43,-113.8,0.16,9.06,-0.6,13.52,17.45,-209.73,-30.013636363636362
11.90625,-114.27,-38.49,42.74,46.72,-109.77,5.38,0.46,-0.72,11.23,15.19,-195.35,-30.625454545454545
11.921875,-128.97,-39.63,41.66,43.06,-98.71,9.76,-7.47,-0.31,8.52,12.78,-182.64,-31.08636363636363
11.9375,-140.76,-42.39,39.55,38.77,-81.37,13.62,-13.36,0.59,5.49,10.76,-176.6,-31.427272727272722
11.953125,-146.47,-46.51,36.89,34.28,-59.57,17.13,-15.81,1.77,2.38,9.41,-179.25,-31.431818181818183
11.96875,-143.61,-50.76,33.97,29.92,-35.74,20.31,-13.69,2.89,-0.67,8.51,-189.01,-30.716363636363635
11.984375,-131.36,-53.3,31.01,25.72,-12.2,23.09,-6.64,3.53,-3.74,7.41,-201.8,-28.934545454545457
12.0,-110.94,-52.41,28.19,21.49,9.22,25.42,4.66,3.32,-7.09,5.33,-212.64,-25.95
12.015625,-85.25,-47.24,25.68,17.03,27.4,27.21,18.57,2.09,-10.97,1.6,-217.14,-21.91090909090909
12.03125,-57.9,-38.19,23.54,12.27,41.82,28.4,32.9,-0.02,-15.4,-4.21,-212.46,-17.204545454545453
12.046875,-32.06,-26.62,21.74,7.38,52.43,28.99,45.62,-2.61,-20.09,-12.33,-197.81,-12.305454545454547
12.0625,-9.83,-14.26,20.19,2.72,59.49,29.06,55.24,-5.08,-24.52,-23.0,-174.96,-7.722727272727273
12.078125,8.05,-2.73,18.73,-1.4,63.49,28.81,60.95,-6.87,-28.22,-36.33,-148.11,-3.966363636363637
12.09375,21.84,7.02,17.26,-4.76,65.05,28.44,62.48,-7.61,-31.04,-51.96,-122.57,-1.440909090909093
12.109375,32.31,14.65,15.71,-7.33,64.8,28.23,59.77,-7.24,-33.24,-68.69,-102.28,-0.3009090909090911
12.125,40.38,20.23,14.0,-9.26,63.35,28.33,52.9,-5.93,-35.4,-84.42,-87.72,-0.3218181818181824
12.140625,46.79,23.96,12.04,-10.78,61.17,28.76,42.21,-3.98,-38.22,-96.51,-75.75,-0.9372727272727261
12.15625,52.17,26.0,9.64,-12.08,58.63,29.42,28.56,-1.69,-42.15,-102.78,-61.66,-1.4490909090909063
12.171875,56.85,26.44,6.62,-13.36,56.06,30.16,13.36,0.75,-47.27,-102.33,-42.6,-1.3927272727272741
12.1875,60.99,25.42,2.78,-14.65,53.75,30.85,-1.66,3.21,-53.13,-96.16,-19.39,-0.7263636363636359
12.203125,64.56,23.22,-1.83,-15.96,51.96,31.39,-14.89,5.59,-58.91,-86.74,4.03,0.22000000000000267
12.21875,67.42,20.16,-6.84,-17.25,50.86,31.67,-25.35,7.73,-63.57,-77.0,23.12,0.9954545454545441
12.234375,69.46,16.58,-11.47,-18.54,50.5,31.63,-32.92,9.43,-66.05,-69.16,35.57,1.3663636363636358
12.25,70.68,12.78,-14.7,-19.86,50.83,31.16,-38.19,10.54,-65.64,-63.9,42.26,1.4509090909090916
12.265625,71.17,8.98,-15.58,-21.26,51.67,30.28,-42.08,11.04,-62.09,-60.52,45.9,1.591818181818181
12.28125,71.14,5.41,-13.59,-22.77,52.78,29.08,-45.31,11.04,-55.72,-57.7,48.79,2.1045454545454545
12.296875,70.9,2.25,-8.98,-24.32,53.87,27.74,-48.25,10.78,-47.42,-54.5,51.04,3.0100000000000007
12.3125,70.81,-0.36,-2.8,-25.81,54.59,26.45,-50.83,10.47,-38.32,-50.85,50.68,4.002727272727274
12.328125,71.25,-2.39,3.5,-27.08,54.6,25.29,-52.87,10.17,-29.54,-47.44,45.18,4.606363636363636
12.34375,72.46,-3.95,8.57,-28.1,53.55,24.22,-54.33,9.78,-21.84,-44.94,33.08,4.409090909090907
12.359375,74.43,-5.26,11.72,-28.97,51.21,23.13,-55.44,9.14,-15.47,-43.57,14.62,3.2309090909090914
12.375,76.81,-6.52,13.1,-30.02,47.55,21.94,-56.73,8.14,-10.2,-42.82,-9.1,1.1045454545454552
12.390625,78.98,-7.96,13.51,-31.82,42.8,20.59,-58.72,6.82,-5.53,-41.92,-36.98,-1.8390909090909076
12.40625,80.31,-9.6,13.91,-35.01,37.4,19.14,-61.74,5.39,-0.9,-40.35,-68.41,-5.4418181818181806
12.421875,80.42,-11.43,14.9,-40.07,31.91,17.6,-65.7,4.13,3.94,-38.22,-102.61,-9.557272727272727
12.4375,79.33,-13.34,16.55,-47.02,26.76,15.95,-70.08,3.27,8.96,-36.2,-137.4,-13.929090909090911
12.453125,77.38,-15.29,18.39,-55.11,22.13,14.18,-74.16,2.92,13.83,-34.94,-168.55,-18.11090909090909
12.46875,74.95,-17.26,19.87,-62.91,17.9,12.24,-77.29,3.1,18.14,-34.75,-190.44,-21.495454545454546
12.484375,72.28,-19.39,20.61,-68.5,13.72,10.21,-79.24,3.67,21.54,-35.27,-197.81,-23.470909090909092
12.5,69.25,-21.82,20.57,-70.11,9.26,8.2,-80.26,4.44,23.91,-35.81,-187.58,-23.631818181818186
12.515625,65.58,-24.66,20.0,-66.67,4.38,6.32,-81.01,5.26,25.35,-35.65,-160.29,-21.94454545454545
12.53125,61.03,-27.94,19.24,-58.22,-0.79,4.58,-82.34,5.99,26.13,-34.5,-120.48,-18.845454545454547
12.546875,55.62,-31.55,18.58,-45.91,-5.89,2.86,-84.95,6.5,26.55,-32.5,-75.83,-15.138181818181819
12.5625,49.7,-35.2,18.17,-31.63,-10.56,0.92,-89.17,6.7,26.82,-30.04,-35.27,-11.77818181818182
12.578125,43.75,-38.36,18.04,-17.4,-14.63,-1.49,-94.92,6.55,27.04,-27.48,-6.45,-9.57727272727273
12.59375,38.22,-40.32,18.12,-4.8,-18.22,-4.53,-101.6,5.98,27.25,-24.82,6.62,-8.918181818181818
12.609375,33.29,-40.2,18.32,5.24,-21.7,-8.12,-108.2,5.06,27.46,-21.87,4.68,-9.639999999999999
12.625,28.86,-37.29,18.55,12.5,-25.53,-12.01,-113.36,3.94,27.73,-18.33,-7.36,-11.118181818181817
12.640625,24.58,-31.23,18.7,17.21,-30.03,-15.81,-115.55,2.92,28.15,-14.1,-22.46,-12.510909090909092
12.65625,20.04,-22.35,18.69,19.79,-35.26,-19.19,-113.34,2.41,28.69,-9.34,-34.1,-13.087272727272726
12.671875,14.94,-11.61,18.47,20.74,-40.99,-21.97,-105.76,2.77,29.15,-4.44,-38.23,-12.44818181818182
12.6875,9.24,-0.33,18.0,20.52,-46.85,-24.28,-92.72,4.18,29.22,0.14,-33.95,-10.620909090909091
12.703125,3.17,10.2,17.25,19.6,-52.45,-26.49,-75.09,6.63,28.48,4.1,-22.69,-7.935454545454546
12.71875,-2.76,19.09,16.19,18.41,-57.58,-29.1,-54.47,9.85,26.72,7.33,-7.7,-4.910909090909092
12.734375,-7.95,26.03,14.83,17.31,-62.31,-32.54,-32.84,13.48,23.97,9.87,8.17,-1.9981818181818178
12.75,-11.95,31.08,13.2,16.51,-66.96,-37.01,-12.01,17.17,20.58,11.73,23.0,0.4854545454545454
12.765625,-14.66,34.45,11.4,16.05,-72.08,-42.36,6.76,20.68,17.1,12.95,36.13,2.4018181818181827
12.78125,-16.47,36.22,9.6,15.86,-78.31,-47.98,22.76,23.86,14.1,13.48,48.02,3.7400000000000015
12.796875,-18.17,36.25,7.94,15.84,-86.12,-52.99,35.69,26.52,11.96,13.36,59.6,4.534545454545452
12.8125,-20.6,34.37,6.48,15.99,-95.66,-56.34,45.42,28.49,10.67,12.75,71.35,4.81090909090909
12.828125,-24.33,30.71,5.15,16.38,-106.42,-57.12,51.9,29.52,9.9,11.86,82.66,4.564545454545455
12.84375,-29.41,25.78,3.84,17.12,-117.11,-54.79,55.2,29.41,9.07,10.97,91.94,3.819999999999999
12.859375,-35.37,20.37,2.45,18.27,-125.8,-49.32,55.67,28.18,7.65,10.22,96.45,2.6154545454545453
12.875,-41.53,15.38,0.98,19.78,-130.24,-41.28,53.96,25.98,5.35,9.65,94.65,1.1527272727272722
12.890625,-47.35,11.38,-0.5,21.47,-128.54,-31.63,50.94,23.1,2.31,9.15,87.35,-0.2109090909090903
12.90625,-52.78,8.52,-1.93,23.1,-119.66,-21.55,47.51,19.79,-0.96,8.6,78.1,-1.0236363636363655
12.921875,-58.33,6.55,-3.34,24.49,-103.9,-12.1,44.22,16.18,-3.87,7.85,71.78,-0.951818181818183
12.9375,-64.87,5.03,-4.94,25.51,-82.75,-4.07,41.31,12.27,-5.96,6.85,71.88,0.0236363636363641
12.953125,-73.39,3.58,-7.08,26.07,-58.55,2.18,38.68,8.08,-7.14,5.63,78.13,1.4718181818181824
12.96875,-84.54,2.08,-9.97,26.08,-33.82,6.64,36.12,3.75,-7.75,4.29,86.2,2.6436363636363627
12.984375,-98.4,0.63,-13.53,25.42,-10.69,9.55,33.48,-0.42,-8.35,2.93,90.32,2.8127272727272707
13.0,-114.1,-0.59,-17.12,24.05,9.44,11.39,30.77,-4.0,-9.55,1.56,85.02,1.5336363636363641
13.015625,-129.76,-1.46,-19.61,22.01,25.95,12.69,27.99,-6.69,-11.83,0.15,70.04,-0.9563636363636348
13.03125,-142.58,-2.06,-19.64,19.54,38.85,13.95,25.09,-8.38,-15.5,-1.41,50.46,-3.7890909090909104
13.046875,-149.38,-2.72,-16.13,17.02,48.51,15.48,21.82,-9.2,-20.61,-3.22,34.8,-5.784545454545452
13.0625,-147.44,-3.9,-8.69,14.77,55.39,17.32,17.77,-9.45,-26.87,-5.23,31.56,-5.888181818181818
13.078125,-135.44,-6.1,2.1,12.98,59.99,19.23,12.53,-9.48,-33.55,-7.28,45.94,-3.5527272727272727
13.09375,-114.03,-9.76,14.88,11.55,62.77,20.82,5.87,-9.6,-39.44,-9.11,77.86,1.0736363636363626
13.109375,-85.8,-15.13,28.01,10.2,64.2,21.77,-2.14,-10.05,-43.05,-10.55,122.15,7.237272727272728
13.125,-54.53,-22.12,40.08,8.61,64.67,22.0,-11.11,-10.98,-43.11,-11.54,171.99,13.996363636363638
13.140625,-24.1,-30.2,50.39,6.61,64.5,21.73,-20.43,-12.45,-39.15,-12.26,215.84,20.043636363636367
13.15625,2.51,-38.3,59.01,4.28,63.91,21.42,-29.54,-14.33,-31.79,-13.05,245.67,24.526363636363637
13.171875,23.78,-45.08,66.59,1.87,62.98,21.57,-38.05,-16.28,-22.58,-14.22,257.43,27.09181818181818
13.1875,39.55,-49.15,73.89,-0.33,61.8,22.46,-46.0,-17.77,-13.5,-15.94,252.47,27.952727272727273
13.203125,50.59,-49.51,81.32,-2.12,60.49,24.04,-53.87,-18.35,-6.12,-18.14,237.04,27.76090909090909
13.21875,58.04,-45.86,88.82,-3.52,59.29,25.93,-62.47,-17.87,-1.18,-20.47,219.78,27.317272727272726
13.234375,63.07,-38.75,95.88,-4.71,58.5,27.61,-72.72,-16.67,1.5,-22.4,207.92,27.202727272727273
13.25,66.66,-29.37,101.9,-5.94,58.38,28.65,-85.23,-15.39,2.69,-23.34,203.66,27.515454545454542
13.265625,69.57,-19.26,106.52,-7.44,59.02,28.88,-99.93,-14.67,3.24,-22.72,206.6,28.16454545454545
13.28125,72.29,-9.81,109.78,-9.38,60.18,28.43,-115.79,-14.78,3.71,-20.19,204.47,28.08272727272727
13.296875,75.0,-1.95,112.1,-11.79,61.4,27.6,-130.88,-15.38,4.38,-15.71,189.34,26.737272727272728
13.3125,77.52,4.02,113.9,-14.61,62.1,26.68,-142.71,-15.76,5.26,-9.64,158.43,24.10818181818182
13.328125,79.51,8.17,115.34,-17.72,61.77,25.79,-148.89,-15.28,6.34,-2.63,116.25,20.78636363636364
13.34375,80.58,10.74,116.08,-20.93,60.17,24.86,-147.8,-13.73,7.6,4.52,73.1,17.744545454545456
13.359375,80.52,11.78,115.47,-24.0,57.26,23.72,-139.04,-11.5,9.02,11.04,40.36,15.875454545454545
13.375,79.48,11.07,112.86,-26.76,53.24,22.23,-123.53,-9.44,10.49,16.39,25.2,15.566363636363638
13.390625,77.94,8.29,107.93,-29.16,48.39,20.45,-103.18,-8.39,11.86,20.4,27.37,16.536363636363635
13.40625,76.55,3.23,100.86,-31.3,43.05,18.51,-80.3,-8.66,12.96,23.2,45.59,18.517272727272726
13.421875,75.94,-3.88,92.21,-33.47,37.51,16.58,-56.97,-10.01,13.73,25.07,62.68,19.94454545454545
13.4375,76.53,-12.22,82.7,-36.08,32.02,14.73,-34.61,-11.66,14.22,26.33,68.34,20.027272727272727
13.453125,78.33,-20.52,72.94,-39.5,26.76,12.85,-13.92,-12.85,14.58,27.14,56.39,18.38181818181818
13.46875,81.01,-27.44,63.32,-43.92,21.76,10.77,4.93,-13.23,14.96,27.56,26.28,15.090909090909092
13.484375,83.93,-32.0,54.14,-49.11,16.95,8.33,21.9,-13.12,15.44,27.56,-17.54,10.589090909090912
13.5,86.35,-33.94,45.56,-54.32,12.21,5.5,36.76,-13.43,15.99,27.15,-67.52,5.482727272727272
13.515625,87.58,-33.81,37.74,-58.31,7.45,2.42,49.03,-15.21,16.52,26.37,-115.32,0.4054545454545449
13.53125,87.2,-32.82,30.75,-59.65,2.66,-0.66,58.19,-19.08,16.88,25.32,-153.9,-4.100909090909092
13.546875,85.15,-32.5,24.53,-57.14,-2.01,-3.55,63.96,-24.84,16.91,24.13,-170.94,-6.9363636363636365
13.5625,81.74,-34.13,18.91,-50.2,-6.38,-6.11,66.6,-31.37,16.51,22.86,-172.46,-8.54818181818182
13.578125,77.6,-38.22,13.59,-39.29,-10.33,-8.36,66.9,-36.99,15.62,21.55,-158.24,-8.742727272727272
13.59375,73.45,-44.21,8.25,-25.71,-13.94,-10.45,65.99,-40.1,14.29,20.19,-128.79,-7.366363636363636
13.609375,69.81,-50.45,2.58,-11.35,-17.51,-12.56,64.88,-39.7,12.67,18.88,-84.6,-4.304545454545456
13.625,66.89,-54.64,-3.6,1.93,-21.44,-14.9,64.13,-35.77,10.91,17.76,-26.0,0.47909090909090807
13.640625,64.46,-54.72,-10.2,12.74,-26.04,-17.67,63.68,-29.17,9.12,17.01,45.93,6.830909090909089
13.65625,62.0,-49.63,-16.96,20.52,-31.33,-21.07,62.97,-21.34,7.35,16.63,127.71,14.259090909090908
13.671875,58.98,-39.82,-23.52,25.38,-37.04,-25.19,61.34,-13.81,5.51,16.34,163.2,17.397272727272725
13.6875,55.07,-27.21,-29.67,27.91,-42.67,-29.97,58.38,-7.84,3.45,15.65,200.5,20.327272727272728
13.703125,50.41,-14.5,-35.56,28.87,-47.79,-35.11,54.22,-4.19,0.97,14.05,218.18,20.86818181818182
13.71875,45.45,-4.2,-41.68,28.9,-52.26,-39.98,49.4,-3.0,-2.03,11.31,207.14,18.095454545454544
13.734375,40.87,2.14,-48.74,28.42,-56.28,-43.76,44.66,-3.82,-5.49,7.66,166.22,11.989090909090908
13.75,37.19,4.39,-57.33,27.69,-60.46,-45.54,40.5,-5.65,-9.17,3.78,103.85,3.568181818181817
13.765625,34.66,3.71,-67.75,26.83,-65.63,-44.66,36.97,-7.06,-12.73,0.43,35.76,-5.406363636363637
13.78125,33.09,2.04,-79.96,25.85,-72.47,-40.92,33.62,-6.44,-15.85,-1.83,-20.62,-13.044545454545453
13.796875,32.04,1.4,-93.74,24.79,-81.22,-34.74,29.75,-2.49,-18.39,-2.92,-52.38,-17.990909090909092
13.8125,30.93,3.33,-108.78,23.67,-91.29,-26.95,24.8,5.19,-20.44,-3.22,-54.83,-19.780909090909088
13.828125,29.32,8.53,-124.69,22.6,-101.2,-18.61,18.64,15.79,-22.31,-3.32,-23.92,-18.10636363636364
13.84375,27.03,16.72,-140.83,21.71,-108.8,-10.67,11.64,27.39,-24.41,-3.74,23.17,-14.617272727272729
13.859375,24.24,26.89,-156.2,21.2,-111.82,-3.71,4.48,37.62,-27.17,-4.76,75.85,-10.30727272727273
13.875,21.36,37.65,-169.38,21.2,-108.53,2.06,-2.18,44.65,-30.89,-6.46,124.89,-5.966363636363638
13.890625,18.83,47.68,-178.78,21.79,-98.34,6.72,-7.97,47.9,-35.64,-8.76,163.66,-2.0827272727272725
13.90625,16.92,56.0,-183.06,22.94,-81.92,10.49,-12.98,48.24,-41.17,-11.46,188.14,1.1036363636363598
13.921875,15.48,62.08,-181.48,24.54,-60.99,13.68,-17.66,47.4,-46.82,-14.18,196.58,3.5118181818181813
13.9375,13.91,65.75,-174.14,26.42,-37.83,16.54,-22.7,47.0,-51.6,-16.25,188.87,5.088181818181821
13.953125,11.3,66.99,-161.98,28.36,-14.69,19.3,-28.83,47.72,-54.33,-16.79,166.13,5.743636363636361
13.96875,6.73,65.9,-146.57,30.12,6.63,22.02,-36.58,49.11,-54.02,-15.05,135.87,5.832727272727275
13.984375,-0.33,62.65,-129.72,31.47,24.89,24.56,-46.12,50.08,-50.27,-10.74,93.64,4.555454545454546
14.0,-9.82,57.62,-113.07,32.21,39.42,26.62,-56.99,49.79,-43.44,-4.33,41.96,1.8154545454545472
14.015625,-21.13,51.43,-97.79,32.18,50.06,27.89,-67.98,48.12,-34.62,3.13,-14.37,-2.09818181818182
14.03125,-33.27,44.8,-84.39,31.35,57.04,28.25,-77.22,45.82,-25.27,10.43,-67.72,-6.380000000000001
14.046875,-45.32,38.44,-72.88,29.78,60.86,27.86,-82.48,43.81,-16.7,16.7,-108.67,-9.872727272727273
14.0625,-56.73,32.83,-63.0,27.6,62.22,27.1,-81.71,42.53,-9.63,21.75,-129.38,-11.492727272727272
14.078125,-67.42,28.15,-54.48,25.0,61.79,26.36,-73.66,41.63,-4.12,25.98,-127.88,-10.786363636363633
14.09375,-77.79,24.3,-47.2,22.18,60.2,25.88,-58.29,40.12,0.28,29.96,-109.84,-8.200000000000001
14.109375,-88.47,21.01,-41.01,19.31,57.95,25.69,-36.76,36.93,4.1,34.0,-82.41,-4.514545454545454
14.125,-100.16,17.95,-35.56,16.51,55.45,25.72,-11.19,31.58,7.69,37.91,-59.9,-1.272727272727272
14.140625,-113.43,14.87,-30.27,13.87,53.12,25.97,15.9,24.33,11.03,41.14,-46.51,0.9109090909090899
14.15625,-128.45,11.67,-24.44,11.43,51.31,26.53,42.24,16.1,13.88,43.06,-38.55,2.2527272727272747
14.171875,-144.57,8.4,-17.6,9.18,50.25,27.51,66.14,7.96,15.98,43.35,-27.97,3.5118181818181853
14.1875,-160.06,5.33,-9.85,7.01,49.99,28.83,86.69,0.71,17.32,42.06,-8.93,5.37272727272727
14.203125,-172.11,2.74,-1.87,4.82,50.46,30.16,103.64,-5.41,18.08,39.61,17.33,7.95
14.21875,-177.43,0.76,5.36,2.49,51.42,31.04,117.07,-10.62,18.63,36.55,42.57,10.712727272727271
14.234375,-173.27,-0.61,10.98,0.07,52.68,31.1,127.18,-15.39,19.29,33.38,56.9,12.937272727272726
14.25,-158.61,-1.72,14.66,-2.31,54.02,30.26,134.0,-20.09,20.2,30.47,57.36,14.385454545454543
14.265625,-134.71,-3.0,16.59,-4.44,55.21,28.79,137.47,-24.77,21.29,27.98,46.06,15.133636363636361
14.28125,-104.9,-4.89,17.4,-6.18,55.99,27.14,137.61,-29.13,22.37,25.88,33.68,15.906363636363638
14.296875,-73.54,-7.68,17.71,-7.56,55.98,25.63,134.67,-32.63,23.28,24.13,30.91,17.354545454545452
14.3125,-44.53,-11.46,17.88,-8.77,54.86,24.43,129.25,-34.75,23.95,22.62,41.67,19.55909090909091
14.328125,-20.35,-16.09,17.94,-10.13,52.4,23.48,122.16,-35.18,24.46,21.37,60.49,21.86818181818182
14.34375,-1.71,-21.3,17.68,-11.91,48.65,22.59,114.22,-33.99,24.86,20.42,75.36,23.17
14.359375,12.01,-26.63,16.88,-14.22,43.92,21.63,105.97,-31.6,25.18,19.83,74.41,22.489090909090912
14.375,22.0,-31.36,15.52,-16.98,38.7,20.51,97.59,-28.62,25.24,19.5,51.96,19.460000000000004
14.390625,29.37,-34.6,13.81,-19.95,33.51,19.2,89.06,-25.64,24.84,19.2,11.27,14.55181818181818
14.40625,34.9,-35.36,12.16,-22.9,28.74,17.65,80.31,-23.02,23.85,18.59,-39.88,8.640000000000002
14.421875,39.17,-32.88,10.96,-25.66,24.5,15.82,71.51,-20.82,22.29,17.51,-92.47,2.720909090909093
14.4375,42.69,-26.84,10.49,-28.17,20.63,13.68,63.1,-18.88,20.4,16.03,-141.53,-2.5818181818181825
14.453125,45.97,-17.62,10.71,-30.5,16.8,11.29,55.57,-16.94,18.47,14.46,-187.56,-7.213636363636363
14.46875,49.38,-6.18,11.36,-32.79,12.68,8.77,49.2,-14.88,16.71,13.21,-234.26,-11.527272727272726
14.484375,53.06,6.18,11.97,-35.27,8.03,6.24,43.83,-12.82,15.13,12.41,-284.6,-15.985454545454548
14.5,56.85,18.13,12.1,-38.23,2.93,3.77,38.77,-11.04,13.52,11.85,-337.76,-20.828181818181818
14.515625,60.39,28.7,11.48,-42.0,-2.33,1.33,33.03,-9.85,11.63,10.9,-388.69,-25.946363636363632
14.53125,63.28,37.35,10.16,-46.75,-7.3,-1.21,25.67,-9.34,9.27,8.8,-430.53,-30.96363636363636
14.546875,65.25,43.93,8.47,-52.35,-11.64,-3.99,16.2,-9.33,6.46,4.85,-457.78,-35.448181818181816
14.5625,66.21,48.47,6.87,-58.13,-15.27,-7.1,4.75,-9.43,3.39,-1.24,-468.53,-39.091818181818184
14.578125,66.34,51.09,5.62,-62.93,-18.48,-10.5,-7.91,-9.23,0.33,-9.32,-464.25,-41.74909090909091
14.59375,66.0,51.94,4.71,-65.26,-21.78,-14.05,-20.65,-8.47,-2.55,-18.7,-448.04,-43.35
14.609375,65.66,51.2,3.8,-63.81,-25.7,-17.52,-32.47,-7.16,-5.15,-28.21,-422.19,-43.77727272727273
14.625,65.74,49.15,2.4,-57.88,-30.57,-20.68,-42.74,-5.56,-7.58,-36.43,-387.12,-42.842727272727274
14.640625,66.37,46.04,0.09,-47.69,-36.33,-23.39,-51.55,-3.98,-9.98,-41.9,-342.44,-40.43272727272727
14.65625,67.39,42.19,-3.33,-34.41,-42.57,-25.61,-59.56,-2.7,-12.54,-43.6,-289.05,-36.708181818181814
14.671875,68.29,37.8,-7.65,-19.74,-48.74,-27.49,-67.75,-1.89,-15.43,-41.23,-230.68,-32.22818181818182
14.6875,68.53,33.09,-12.33,-5.46,-54.32,-29.3,-77.08,-1.56,-18.85,-35.4,-173.47,-27.83181818181818
14.703125,67.73,28.29,-16.47,7.01,-59.06,-31.4,-88.15,-1.63,-22.86,-27.4,-123.45,-24.30818181818182
14.71875,65.85,23.71,-18.95,16.88,-63.12,-34.16,-100.91,-1.84,-27.32,-18.78,-83.45,-22.008181818181814
14.734375,63.21,19.66,-18.72,23.94,-66.96,-37.82,-114.5,-1.95,-31.74,-10.79,-51.59,-20.66
14.75,60.3,16.43,-15.08,28.42,-71.3,-42.44,-127.33,-1.72,-35.27,-3.93,-22.67,-19.50818181818182
14.765625,57.5,14.11,-8.12,30.79,-76.92,-47.76,-137.27,-1.1,-36.88,2.13,8.19,-17.757272727272728
14.78125,54.94,12.46,1.23,31.57,-84.33,-53.17,-142.14,-0.31,-35.66,8.27,41.92,-15.019999999999998
14.796875,52.47,11.1,11.32,31.3,-93.41,-57.73,-140.25,0.28,-31.26,15.37,74.14,-11.515454545454546
14.8125,49.77,9.57,20.4,30.43,-103.19,-60.32,-130.91,0.24,-24.06,23.65,97.14,-7.934545454545448
14.828125,46.6,7.57,27.11,29.33,-111.81,-59.95,-114.64,-0.62,-15.17,32.15,103.93,-5.0454545454545405
14.84375,42.88,5.05,30.98,28.23,-116.91,-56.0,-93.0,-2.15,-6.05,38.85,92.07,-3.277272727272731
14.859375,38.75,2.18,32.41,27.23,-116.24,-48.53,-68.13,-3.89,1.97,41.16,65.4,-2.5172727272727244
14.875,34.54,-0.79,32.32,26.34,-108.43,-38.28,-42.12,-5.25,8.11,36.96,32.81,-2.162727272727274
14.890625,30.56,-3.72,31.69,25.55,-93.39,-26.49,-16.67,-5.75,12.3,25.65,4.72,-1.4136363636363654
14.90625,27.09,-6.67,31.15,24.81,-72.4,-14.61,7.19,-5.27,14.98,8.52,-10.27,0.4109090909090902
14.921875,24.18,-9.85,30.92,24.15,-47.68,-3.9,28.88,-4.0,16.76,-11.54,-7.4,3.6836363636363645
14.9375,21.69,-13.58,30.86,23.61,-21.74,4.85,48.06,-2.34,18.11,-31.04,14.06,8.412727272727272
14.953125,19.3,-18.1,30.76,23.33,3.21,11.37,64.36,-0.66,19.16,-47.08,51.52,14.288181818181817
14.96875,16.59,-23.48,30.44,23.47,25.71,15.87,77.41,0.84,19.83,-58.12,99.7,20.75090909090909
14.984375,13.22,-29.52,29.84,24.21,44.96,18.85,86.94,2.19,20.05,-64.1,151.13,27.069999999999997
15.0,9.05,-35.6,29.0,25.61,60.73,20.8,92.85,3.49,19.9,-65.9,197.06,32.45363636363636
15.015625,4.22,-40.79,28.01,27.56,73.09,22.17,95.47,4.84,19.7,-64.7,229.3,36.26090909090909
15.03125,-0.89,-43.92,27.01,29.75,82.2,23.23,95.45,6.21,19.79,-61.45,242.91,38.208181818181814
15.046875,-5.79,-43.78,26.05,31.7,88.24,24.17,93.64,7.41,20.43,-56.84,238.26,38.49909090909091
15.0625,-10.11,-39.57,25.1,32.95,91.36,25.05,90.91,8.24,21.62,-51.36,220.89,37.734545454545454
15.078125,-13.77,-31.12,24.0,33.15,91.73,25.9,87.88,8.59,23.13,-45.5,199.12,36.64636363636364
15.09375,-17.06,-19.18,22.61,32.21,89.56,26.65,84.79,8.51,24.62,-39.75,180.16,35.73818181818182
15.109375,-20.57,-5.15,20.87,30.29,85.18,27.2,81.62,8.2,25.79,-34.48,166.92,35.07909090909091
15.125,-24.94,9.28,18.9,27.72,79.04,27.44,78.16,7.84,26.49,-29.93,157.51,34.31909090909091
15.140625,-30.67,22.63,16.99,24.9,71.69,27.37,74.3,7.52,26.69,-26.28,147.29,32.948181818181816
15.15625,-37.81,34.02,15.41,22.11,63.74,27.09,70.16,7.22,26.43,-23.74,132.39,30.638181818181817
15.171875,-46.06,43.17,14.32,19.52,55.74,26.81,66.03,6.81,25.78,-22.53,112.44,27.457272727272724
15.1875,-54.8,50.12,13.63,17.08,48.23,26.74,62.19,6.2,24.75,-22.77,90.75,23.829090909090908
15.203125,-63.33,54.93,13.13,14.65,41.72,26.99,58.72,5.38,23.31,-24.3,72.26,20.314545454545453
15.21875,-71.15,57.46,12.61,12.08,36.69,27.48,55.32,4.47,21.41,-26.66,60.51,17.292727272727273
15.234375,-78.1,57.49,11.95,9.27,33.53,28.01,51.42,3.61,19.08,-29.19,55.69,14.796363636363635
15.25,-84.44,54.95,11.17,6.25,32.36,28.33,46.33,2.92,16.37,-31.24,54.75,12.522727272727273
15.265625,-90.85,50.15,10.34,3.17,32.91,28.33,39.63,2.44,13.46,-32.49,53.5,10.053636363636365
15.28125,-98.29,43.89,9.49,0.22,34.5,27.99,31.33,2.12,10.49,-32.86,48.96,7.076363636363637
15.296875,-107.71,37.12,8.62,-2.42,36.15,27.37,21.99,1.93,7.56,-32.49,40.89,3.5463636363636355
15.3125,-119.61,30.75,7.73,-4.65,36.85,26.57,12.43,1.79,4.57,-31.49,31.56,-0.3181818181818185
15.328125,-133.47,25.31,6.93,-6.47,35.9,25.59,3.44,1.61,1.28,-29.85,24.15,-4.143636363636365
15.34375,-147.45,20.86,6.43,-7.96,33.07,24.39,-4.54,1.26,-2.54,-27.43,20.75,-7.559999999999997
15.359375,-158.49,17.15,6.47,-9.26,28.71,22.91,-11.59,0.6,-6.99,-24.04,21.45,-10.28
15.375,-163.1,13.68,7.18,-10.55,23.45,21.18,-18.21,-0.42,-11.85,-19.56,24.9,-12.118181818181817
15.390625,-158.4,10.0,8.49,-11.98,18.08,19.24,-25.09,-1.72,-16.72,-14.07,29.83,-12.940000000000003
15.40625,-143.25,5.77,10.07,-13.63,13.18,17.13,-32.91,-3.01,-21.14,-7.89,36.38,-12.663636363636359
15.421875,-118.76,0.88,11.46,-15.51,9.05,14.87,-42.15,-3.89,-24.89,-1.52,45.79,-11.333636363636366
15.4375,-88.02,-4.53,12.13,-17.51,5.65,12.48,-52.93,-4.0,-28.14,4.43,59.12,-9.210909090909091
15.453125,-55.14,-10.02,11.73,-19.48,2.66,9.96,-65.0,-3.19,-31.45,9.44,75.52,-6.815454545454544
15.46875,-24.0,-15.07,10.33,-21.3,-0.32,7.37,-77.51,-1.59,-35.48,13.16,91.49,-4.8109090909090915
15.484375,2.71,-19.25,8.5,-22.99,-3.67,4.83,-88.96,0.45,-40.65,15.59,101.83,-3.7827272727272727
15.5,23.85,-22.47,7.27,-24.76,-7.58,2.43,-97.38,2.55,-46.91,16.99,101.71,-4.027272727272727
15.515625,39.58,-25.01,7.83,-26.99,-11.95,0.24,-100.73,4.46,-53.5,17.8,88.71,-5.414545454545453
15.53125,50.82,-27.46,11.08,-30.06,-16.46,-1.72,-97.54,6.15,-59.17,18.28,63.46,-7.510909090909092
15.546875,58.71,-30.42,17.18,-34.21,-20.71,-3.52,-87.46,7.74,-62.48,18.53,29.27,-9.76090909090909
15.5625,64.31,-34.26,25.44,-39.26,-24.39,-5.34,-71.39,9.38,-62.3,18.47,-9.67,-11.728181818181817
15.578125,68.47,-38.92,34.5,-44.55,-27.55,-7.47,-51.17,11.13,-58.18,17.97,-49.9,-13.242727272727274
15.59375,71.84,-43.92,42.89,-48.98,-30.54,-10.25,-29.01,12.88,-50.56,17.09,-89.55,-14.373636363636365
15.609375,74.86,-48.51,49.53,-51.26,-33.93,-14.02,-6.75,14.49,-40.65,16.05,-128.55,-15.340000000000002
15.625,77.73,-51.85,54.07,-50.26,-38.17,-18.9,14.36,15.73,-30.04,15.17,-168.52,-16.425454545454546
15.640625,80.37,-53.29,56.92,-45.35,-43.37,-24.64,33.68,16.5,-20.18,14.65,-212.33,-17.91272727272727
15.65625,82.56,-52.46,58.87,-36.64,-49.27,-30.6,50.8,16.76,-11.97,14.48,-263.22,-20.062727272727276
15.671875,84.03,-49.37,60.68,-24.95,-55.32,-35.94,65.31,16.55,-5.6,14.46,-323.13,-23.025454545454544
15.6875,84.63,-44.5,62.77,-11.61,-61.03,-40.01,76.66,15.93,-0.67,14.34,-390.55,-26.730909090909094
15.703125,84.42,-38.57,65.18,1.89,-66.2,-42.73,84.4,14.9,3.51,13.99,-459.15,-30.759999999999994
15.71875,83.73,-32.47,67.67,14.27,-71.03,-44.76,88.44,13.49,7.53,13.34,-518.51,-34.39090909090909
15.734375,83.01,-26.99,69.95,24.65,-76.01,-47.35,89.17,11.78,11.69,12.45,-557.14,-36.799090909090914
15.75,82.77,-22.67,71.84,32.57,-81.76,-51.75,87.44,9.85,15.91,11.29,-566.81,-37.392727272727264
15.765625,83.31,-19.69,73.32,38.0,-88.84,-58.48,84.22,7.84,19.87,9.75,-545.96,-36.06
15.78125,84.64,-17.98,74.43,41.11,-97.58,-66.92,80.35,5.84,23.16,7.77,-500.35,-33.230000000000004
15.796875,86.39,-17.38,75.18,42.25,-107.84,-75.25,76.3,3.88,25.5,5.39,-440.81,-29.671818181818182
15.8125,87.93,-17.79,75.37,41.85,-118.86,-81.03,72.19,1.95,26.87,2.8,-378.99,-26.155454545454543
15.828125,88.55,-19.17,74.65,40.41,-129.13,-82.17,67.97,0.04,27.49,0.34,-323.39,-23.12818181818182
15.84375,87.73,-21.39,72.57,38.51,-136.53,-77.77,63.6,-1.86,27.79,-1.67,-277.31,-20.575454545454548
15.859375,85.33,-24.08,68.7,36.66,-138.78,-68.57,59.17,-3.66,28.19,-3.03,-239.29,-18.12363636363636
15.875,81.58,-26.55,62.81,35.24,-134.06,-56.7,54.9,-5.21,28.89,-3.77,-205.27,-15.285454545454543
15.890625,76.97,-27.83,54.98,34.39,-121.65,-44.84,50.94,-6.42,29.89,-4.12,-170.92,-11.691818181818183
15.90625,72.03,-26.89,45.6,34.01,-102.21,-35.23,47.22,-7.32,31.0,-4.39,-133.1,-7.207272727272726
15.921875,67.17,-23.12,35.26,33.87,-77.68,-28.87,43.41,-8.14,32.04,-4.89,-90.41,-1.9418181818181843
15.9375,62.58,-16.63,24.67,33.77,-50.75,-25.37,38.98,-9.19,32.94,-5.9,-43.19,3.8099999999999996
15.953125,58.27,-8.45,14.51,33.77,-24.18,-23.33,33.44,-10.72,33.69,-7.58,6.45,9.624545454545455
15.96875,54.15,-0.42,5.41,34.17,-0.15,-21.19,26.54,-12.76,34.2,-9.86,54.67,14.978181818181817
15.984375,50.1,5.24,-2.18,35.44,20.05,-17.85,18.48,-15.03,34.24,-12.45,96.66,19.336363636363636
16.0,46.02,6.66,-8.1,37.93,35.99,-13.08,9.81,-16.99,33.39,-14.81,128.32,22.285454545454545
16.015625,41.85,3.27,-12.67,41.62,47.9,-7.48,1.24,-18.06,31.28,-16.25,148.26,23.723636363636363
16.03125,37.56,-3.72,-16.81,46.09,56.32,-2.14,-6.62,-17.83,27.8,-16.23,159.25,23.970000000000002
16.046875,33.19,-11.39,-21.9,50.6,61.86,1.75,-13.53,-16.2,23.24,-14.42,168.14,23.758181818181814
16.0625,28.85,-15.95,-29.27,54.42,65.05,3.44,-19.7,-13.29,18.25,-10.91,183.68,24.051818181818188
16.078125,24.71,-14.19,-39.72,57.12,66.34,3.05,-25.77,-9.29,13.49,-6.12,212.86,25.680000000000003
16.09375,20.92,-4.69,-53.04,58.71,66.18,1.96,-32.57,-4.09,9.42,-0.71,257.3,29.03545454545455
16.109375,17.59,11.51,-68.26,59.62,65.08,3.05,-40.85,2.6,6.02,4.63,311.62,33.873636363636365
16.125,14.69,31.43,-84.04,60.47,63.55,10.25,-50.96,11.1,2.94,9.3,364.74,39.406363636363636
16.140625,12.06,51.18,-99.48,61.78,62.1,27.56,-62.52,21.32,-0.33,12.95,403.8,44.583636363636366
16.15625,9.4,67.27,-114.45,63.81,61.08,57.44,-74.34,32.49,-4.14,15.45,418.86,48.442727272727275
16.171875,6.42,77.44,-129.44,66.52,60.65,99.26,-84.55,43.22,-8.49,16.88,406.25,50.378181818181815
16.1875,2.83,80.8,-144.93,69.58,60.82,148.6,-90.94,51.8,-13.13,17.5,369.23,50.196363636363635
16.203125,-1.41,77.66,-160.73,72.36,61.54,197.86,-91.64,56.93,-17.66,17.63,316.02,48.050909090909094
16.21875,-6.15,69.09,-175.75,74.06,62.71,238.1,-85.64,58.16,-21.72,17.51,256.62,44.27181818181818
16.234375,-11.01,56.61,-188.19,73.73,64.2,261.74,-73.19,56.06,-25.2,17.27,200.06,39.28
16.25,-15.6,42.01,-196.09,70.61,65.74,264.66,-55.64,51.84,-28.27,16.94,152.82,33.54727272727273
16.265625,-19.72,27.24,-197.9,64.39,67.0,247.17,-35.11,46.7,-31.34,16.46,118.75,27.60363636363636
16.28125,-23.47,14.13,-192.87,55.45,67.57,213.43,-13.78,41.3,-34.89,15.78,99.23,21.989090909090905
16.296875,-27.29,4.09,-181.14,44.75,67.09,169.74,6.62,35.59,-39.39,14.92,93.29,17.11545454545455
16.3125,-31.74,-2.21,-163.73,33.5,65.41,122.5,24.99,29.17,-45.02,13.98,97.41,13.114545454545453
16.328125,-37.31,-4.89,-142.4,22.64,62.58,76.8,40.86,21.78,-51.54,13.07,105.53,9.738181818181816
16.34375,-44.15,-4.69,-119.39,12.52,58.83,35.92,54.05,13.74,-58.22,12.3,110.19,6.463636363636362
16.359375,-51.97,-2.75,-96.94,2.94,54.36,1.63,64.38,5.9,-63.9,11.71,105.0,2.760000000000001
16.375,-60.18,-0.31,-76.75,-6.56,49.36,-25.21,71.62,-0.73,-67.22,11.36,87.02,-1.600000000000002
16.390625,-68.05,1.53,-59.61,-16.17,43.91,-44.23,75.57,-5.6,-67.08,11.22,58.1,-6.400909090909093
16.40625,-75.07,2.13,-45.34,-25.58,38.05,-55.55,76.3,-8.79,-62.92,11.2,24.08,-11.044545454545458
16.421875,-81.11,1.42,-33.18,-34.11,31.86,-60.09,74.31,-11.04,-55.04,11.14,-7.83,-14.879090909090907
16.4375,-86.48,-0.1,-22.36,-41.08,25.51,-59.66,70.51,-13.29,-44.47,10.81,-31.87,-17.498181818181816
16.453125,-91.91,-1.65,-12.52,-46.24,19.26,-56.73,65.95,-16.26,-32.69,9.89,-45.71,-18.964545454545455
16.46875,-98.44,-2.57,-3.75,-50.06,13.34,-53.71,61.44,-20.14,-21.17,8.15,-50.57,-19.77090909090909
16.484375,-107.03,-2.62,3.66,-53.53,7.89,-52.27,57.38,-24.64,-10.92,5.52,-49.87,-20.584545454545456
16.5,-118.26,-2.14,9.56,-57.81,2.86,-52.78,53.64,-29.23,-2.29,2.08,-47.17,-21.958181818181814
16.515625,-131.79,-1.82,14.22,-63.79,-1.97,-54.38,49.88,-33.41,4.92,-1.85,-44.69,-24.06181818181818
16.53125,-145.97,-2.2,18.13,-71.68,-6.9,-55.67,45.81,-36.92,11.22,-5.84,-42.94,-26.632727272727276
16.546875,-157.93,-3.46,21.71,-80.78,-12.13,-55.44,41.46,-39.62,17.19,-9.47,-41.41,-29.08
16.5625,-164.11,-5.38,25.09,-89.5,-17.67,-53.4,37.19,-41.41,23.17,-12.41,-39.84,-30.75181818181818
16.578125,-161.34,-7.39,27.95,-95.7,-23.33,-50.26,33.41,-42.21,29.26,-14.57,-38.88,-31.187272727272727
16.59375,-147.99,-9.01,29.8,-97.23,-28.84,-47.28,30.26,-41.89,35.32,-16.04,-40.0,-30.263636363636365
16.609375,-124.63,-9.98,30.25,-92.65,-33.94,-45.63,27.43,-40.34,41.06,-17.18,-44.51,-28.19272727272727
16.625,-94.05,-10.41,29.32,-81.93,-38.63,-45.82,24.21,-37.67,46.17,-18.45,-52.45,-25.428181818181816
16.640625,-60.37,-10.61,27.47,-66.67,-43.15,-47.48,19.79,-34.13,50.38,-20.37,-62.16,-22.48181818181818
16.65625,-27.8,-10.92,25.42,-49.83,-47.99,-49.72,13.61,-30.15,53.55,-23.16,-70.78,-19.797272727272727
16.671875,0.48,-11.48,23.81,-34.86,-53.71,-51.53,5.62,-26.2,55.75,-26.66,-75.55,-17.666363636363634
16.6875,22.87,-12.21,22.88,-24.65,-60.88,-52.28,-3.69,-22.7,57.23,-30.22,-75.03,-16.243636363636366
16.703125,39.25,-12.95,22.41,-20.71,-69.81,-51.95,-13.51,-19.94,58.37,-32.79,-69.68,-15.573636363636364
16.71875,50.46,-13.51,21.92,-22.82,-80.46,-51.09,-22.97,-18.0,59.63,-33.32,-61.41,-15.597272727272726
16.734375,57.71,-13.93,20.93,-29.41,-92.21,-50.52,-31.48,-16.8,61.41,-31.07,-52.12,-16.135454545454543
16.75,62.19,-14.4,19.29,-38.26,-103.73,-51.03,-38.87,-16.08,63.85,-25.97,-42.59,-16.87272727272727
16.765625,64.96,-15.25,17.22,-47.28,-113.05,-53.03,-45.42,-15.62,66.88,-18.62,-31.98,-17.38090909090909
16.78125,66.9,-16.73,15.19,-54.99,-117.91,-56.48,-51.8,-15.26,70.01,-10.05,-18.71,-17.257272727272728
16.796875,68.69,-19.01,13.64,-60.59,-116.34,-60.78,-58.82,-14.95,72.48,-1.46,-2.05,-16.290000000000003
16.8125,70.68,-22.1,12.69,-63.78,-107.26,-64.96,-67.16,-14.78,73.37,6.19,16.7,-14.582727272727276
16.828125,72.9,-25.92,12.11,-64.45,-90.9,-67.82,-76.97,-14.81,71.75,12.32,34.03,-12.523636363636365
16.84375,75.06,-30.35,11.44,-62.56,-68.87,-68.26,-87.65,-15.06,66.98,16.76,45.65,-10.623636363636363
16.859375,76.69,-35.11,10.24,-58.22,-43.71,-65.53,-97.74,-15.48,58.91,19.62,48.77,-9.232727272727272
16.875,77.48,-39.73,8.36,-51.87,-18.2,-59.44,-105.2,-15.88,47.94,21.09,44.06,-8.308181818181817
16.890625,77.38,-43.47,5.95,-44.31,5.23,-50.37,-107.9,-15.97,35.02,21.34,35.83,-7.388181818181815
16.90625,76.73,-45.35,3.41,-36.63,25.06,-39.16,-104.28,-15.48,21.42,20.55,30.17,-5.77818181818182
16.921875,76.08,-44.4,1.15,-29.84,40.68,-26.97,-93.89,-14.18,8.37,18.84,31.78,-2.943636363636362
16.9375,76.0,-40.01,-0.67,-24.49,52.23,-14.93,-77.56,-11.96,-3.22,16.48,41.13,1.1818181818181808
16.953125,76.82,-32.18,-2.27,-20.43,60.27,-4.08,-57.13,-8.91,-12.91,13.85,53.9,6.084545454545454
16.96875,78.52,-21.56,-4.19,-16.93,65.42,4.92,-34.86,-5.31,-20.77,11.36,62.95,10.868181818181817
16.984375,80.77,-9.35,-7.09,-12.98,68.2,11.74,-12.76,-1.59,-27.14,9.33,62.31,14.676363636363636
17.0,83.02,3.12,-11.38,-7.83,69.04,16.43,7.77,1.83,-32.39,7.85,50.68,17.103636363636365
17.015625,84.68,14.67,-16.94,-1.35,68.36,19.37,26.04,4.55,-36.77,6.72,32.42,18.34090909090909
17.03125,85.28,24.54,-22.99,5.88,66.66,21.06,41.74,6.34,-40.38,5.57,15.07,18.979090909090907
17.046875,84.53,32.44,-28.14,12.85,64.55,22.06,54.73,7.12,-43.18,4.11,5.14,19.655454545454543
17.0625,82.32,38.28,-30.84,18.52,62.64,22.82,64.79,6.89,-45.28,2.29,4.52,20.631818181818183
17.078125,78.84,42.13,-29.82,22.28,61.37,23.65,71.72,5.74,-46.96,0.4,9.69,21.730909090909087
17.09375,74.45,44.0,-24.59,24.09,60.9,24.66,75.52,3.88,-48.68,-1.07,14.41,22.506363636363634
17.109375,69.65,43.97,-15.68,24.39,61.12,25.82,76.53,1.71,-50.97,-1.72,13.9,22.61090909090909
17.125,64.98,42.15,-4.44,23.87,61.81,26.99,75.47,-0.25,-54.21,-1.51,7.79,22.05909090909091
17.140625,60.82,38.9,7.31,23.09,62.74,28.0,73.2,-1.42,-58.52,-0.8,-0.06,21.205454545454543
17.15625,57.26,34.68,17.86,22.33,63.74,28.73,70.4,-1.45,-63.63,-0.25,-4.7,20.451818181818183
17.171875,54.13,30.01,26.11,21.56,64.71,29.16,67.4,-0.29,-68.88,-0.44,-3.86,19.96454545454545
17.1875,51.08,25.34,31.72,20.58,65.48,29.35,64.14,1.7,-73.28,-1.61,0.31,19.528181818181817
17.203125,47.77,20.95,35.01,19.18,65.76,29.5,60.37,3.95,-75.65,-3.56,2.76,18.73090909090909
17.21875,44.02,17.0,36.67,17.28,65.16,29.77,55.92,5.96,-74.93,-5.7,-0.57,17.325454545454544
17.234375,39.87,13.6,37.42,14.93,63.37,30.28,50.92,7.49,-70.48,-7.38,-9.42,15.509090909090908
17.25,35.54,10.85,37.81,12.31,60.28,30.98,45.74,8.64,-62.36,-8.16,-18.55,13.916363636363638
17.265625,31.35,8.74,38.14,9.59,56.02,31.66,40.89,9.63,-51.32,-7.97,-20.89,13.258181818181821
17.28125,27.57,7.13,38.49,6.84,50.93,32.03,36.62,10.68,-38.64,-7.14,-12.28,13.839090909090908
17.296875,24.34,5.68,38.77,4.08,45.35,31.84,32.82,11.77,-25.71,-6.35,5.09,15.243636363636364
17.3125,21.68,4.01,38.82,1.25,39.57,30.97,29.0,12.71,-13.65,-6.27,22.88,16.45181818181818
17.328125,19.41,1.81,38.43,-1.6,33.69,29.54,24.5,13.18,-3.07,-7.47,30.65,16.279090909090908
17.34375,17.28,-0.99,37.51,-4.32,27.68,27.81,18.85,13.04,5.93,-10.21,21.33,13.991818181818184
17.359375,14.93,-4.21,36.12,-6.68,21.49,26.05,11.95,12.28,13.56,-14.23,-5.2,9.64181818181818
17.375,12.03,-7.51,34.54,-8.46,15.14,24.37,4.11,11.11,20.05,-18.87,-42.05,4.041818181818181
17.390625,8.37,-10.59,33.14,-9.63,8.76,22.75,-4.08,9.77,25.53,-23.12,-78.87,-1.6336363636363649
17.40625,3.91,-13.35,32.29,-10.42,2.54,20.99,-12.02,8.41,29.96,-25.84,-106.8,-6.393636363636364
17.421875,-1.16,-15.93,32.11,-11.26,-3.38,18.94,-19.33,7.05,33.19,-26.16,-121.84,-9.797272727272727
17.4375,-6.52,-18.63,32.51,-12.6,-9.01,16.57,-25.91,5.62,35.13,-23.65,-125.33,-11.983636363636363
17.453125,-11.89,-21.81,33.17,-14.63,-14.49,14.0,-31.95,4.12,35.84,-18.44,-121.68,-13.432727272727275
17.46875,-17.14,-25.58,33.69,-17.17,-20.07,11.42,-37.85,2.6,35.55,-11.23,-115.21,-14.635454545454547
17.484375,-22.4,-29.67,33.81,-19.8,-25.94,8.94,-44.12,1.21,34.61,-2.98,-108.0,-15.84909090909091
17.5,-28.01,-33.42,33.44,-22.03,-32.11,6.5,-51.34,0.1,33.41,5.32,-99.97,-17.10090909090909
17.515625,-34.34,-35.78,32.65,-23.66,-38.39,3.95,-59.94,-0.62,32.3,12.85,-90.46,-18.312727272727273
17.53125,-41.61,-35.7,31.58,-24.9,-44.49,1.12,-69.97,-0.97,31.45,19.06,-80.21,-19.512727272727272
17.546875,-49.69,-32.38,30.28,-26.33,-50.17,-1.99,-80.75,-1.03,30.96,23.66,-71.85,-20.844545454545454
17.5625,-58.17,-25.56,28.8,-28.65,-55.44,-5.26,-90.83,-0.95,30.8,26.6,-68.44,-22.463636363636365
17.578125,-66.44,-15.66,27.09,-32.44,-60.55,-8.44,-98.13,-0.88,30.93,28.02,-71.01,-24.319090909090907
17.59375,-73.92,-3.6,25.16,-37.83,-65.99,-11.36,-100.52,-1.02,31.3,28.21,-77.07,-26.05818181818182
17.609375,-80.29,9.48,23.06,-44.4,-72.32,-13.98,-96.57,-1.51,31.86,27.53,-81.27,-27.128181818181815
17.625,-85.58,22.39,20.96,-51.16,-80.08,-16.37,-86.01,-2.47,32.41,26.36,-78.3,-27.077272727272728
17.640625,-90.23,34.09,19.07,-56.71,-89.57,-18.71,-69.95,-3.86,32.7,25.04,-66.17,-25.845454545454547
17.65625,-95.02,43.73,17.62,-59.55,-100.61,-21.19,-50.41,-5.47,32.4,23.77,-47.75,-23.86181818181818
17.671875,-100.96,50.63,16.82,-58.45,-112.28,-23.95,-29.69,-6.91,31.24,22.64,-29.44,-21.849999999999998
17.6875,-109.01,54.29,16.76,-52.82,-122.85,-27.15,-9.76,-7.71,29.19,21.61,-17.71,-20.46909090909091
17.703125,-119.63,54.51,17.44,-42.9,-129.92,-30.9,8.2,-7.56,26.51,20.56,-15.51,-19.927272727272726
17.71875,-132.28,51.52,18.64,-29.77,-130.98,-35.3,23.63,-6.43,23.63,19.36,-20.72,-19.88181818181818
17.734375,-145.08,45.98,20.0,-15.04,-124.22,-40.18,36.44,-4.59,20.95,17.98,-27.42,-19.561818181818186
17.75,-154.98,38.89,21.04,-0.49,-109.21,-45.06,46.63,-2.5,18.65,16.46,-28.91,-18.13454545454545
17.765625,-158.4,31.34,21.19,12.37,-87.22,-49.15,54.16,-0.5,16.61,15.02,-20.63,-15.01909090909091
17.78125,-152.49,24.21,20.01,22.59,-60.84,-51.44,58.99,1.28,14.45,13.94,-1.64,-10.085454545454546
17.796875,-136.11,17.96,17.38,29.82,-33.29,-51.07,61.19,2.97,11.82,13.4,25.7,-3.6572727272727277
17.8125,-110.49,12.61,13.64,34.26,-7.4,-47.57,61.05,4.82,8.55,13.38,57.19,3.6400000000000006
17.828125,-78.85,7.87,9.68,36.45,14.9,-41.06,59.13,6.97,4.77,13.59,88.16,11.055454545454547
17.84375,-45.45,3.33,6.66,37.06,32.88,-32.27,56.1,9.3,0.84,13.57,114.73,17.886363636363637
17.859375,-14.27,-1.29,5.64,36.76,46.7,-22.31,52.56,11.51,-2.91,12.88,134.54,23.61909090909091
17.875,12.0,-6.09,7.1,36.06,57.0,-12.4,48.9,13.22,-6.31,11.27,147.23,27.99818181818182
17.890625,32.27,-10.87,10.77,35.27,64.44,-3.53,45.25,14.2,-9.49,8.79,154.45,31.049999999999997
17.90625,46.78,-15.31,15.66,34.48,69.58,3.74,41.6,14.47,-12.81,5.74,159.42,33.03181818181818
17.921875,56.5,-19.0,20.45,33.68,72.85,9.37,37.89,14.27,-16.72,2.57,165.94,34.345454545454544
17.9375,62.63,-21.64,24.03,32.8,74.57,13.62,34.2,13.88,-21.63,-0.3,177.18,35.39454545454546
17.953125,66.2,-23.15,25.82,31.81,75.09,16.93,30.72,13.51,-27.75,-2.64,194.88,36.49272727272727
17.96875,68.11,-23.89,25.89,30.75,74.78,19.63,27.58,13.17,-35.06,-4.47,218.74,37.74818181818182
17.984375,69.06,-24.58,24.74,29.72,73.98,21.87,24.69,12.73,-43.18,-5.95,246.69,39.07
18.0,69.58,-26.24,23.1,28.88,72.94,23.62,21.66,12.0,-51.27,-7.47,275.25,40.18636363636364
18.015625,69.92,-29.88,21.66,28.41,71.82,24.87,17.92,10.82,-58.16,-9.35,299.89,40.72
18.03125,70.13,-35.91,20.85,28.52,70.69,25.68,12.98,9.15,-62.48,-11.92,315.83,40.32
18.046875,70.02,-43.73,20.82,29.3,69.67,26.29,6.68,7.08,-63.1,-15.23,318.86,38.78727272727273
18.0625,69.39,-51.71,21.37,30.74,68.92,26.92,-0.67,4.77,-59.53,-19.09,306.51,36.14727272727273
18.078125,68.11,-57.41,22.04,32.58,68.67,27.69,-8.4,2.41,-52.15,-22.98,278.73,32.662727272727274
18.09375,66.32,-58.56,22.24,34.4,69.11,28.5,-15.81,0.17,-42.18,-26.18,237.98,28.726363636363637
18.109375,64.36,-53.9,21.49,35.65,70.17,29.1,-22.45,-1.87,-31.24,-27.88,188.08,24.682727272727277
18.125,62.7,-43.71,19.58,35.94,71.43,29.27,-28.3,-3.71,-20.87,-27.42,133.35,20.75090909090909
18.140625,61.85,-29.74,16.62,35.14,72.22,29.0,-33.79,-5.44,-12.04,-24.47,77.41,16.97818181818182
18.15625,62.1,-14.59,12.95,33.44,71.76,28.47,-39.57,-7.12,-4.94,-19.21,22.6,13.262727272727272
18.171875,63.46,-0.64,8.95,31.24,69.51,27.99,-46.34,-8.79,0.78,-12.29,-30.03,9.44
18.1875,65.53,10.62,4.92,28.96,65.33,27.78,-54.51,-10.36,5.75,-4.7,-80.2,5.374545454545454
18.203125,67.63,18.83,1.13,26.87,59.57,27.84,-63.98,-11.59,10.44,2.5,-128.13,1.0100000000000013
18.21875,68.95,24.53,-2.22,24.99,52.86,27.96,-73.98,-12.24,14.94,8.51,-174.76,-3.678181818181819
18.234375,68.88,28.52,-4.84,23.13,45.8,27.85,-83.06,-12.09,19.01,12.95,-221.57,-8.674545454545454
18.25,67.18,31.41,-6.53,21.07,38.76,27.33,-89.29,-11.08,22.28,15.83,-271.91,-14.086363636363641
18.265625,64.06,33.33,-7.16,18.7,31.85,26.43,-90.8,-9.34,24.48,17.47,-328.34,-19.938181818181814
18.28125,60.08,34.16,-6.96,16.03,24.98,25.3,-86.34,-7.2,25.64,18.2,-391.05,-26.10545454545455
18.296875,55.85,33.7,-6.32,13.22,18.11,24.15,-75.69,-5.04,26.07,18.33,-456.12,-32.158181818181816
18.3125,51.81,31.99,-5.8,10.44,11.36,23.11,-59.83,-3.23,26.22,17.99,-515.32,-37.38727272727273
18.328125,48.07,29.38,-5.84,7.89,4.96,22.23,-40.62,-2.02,26.49,17.27,-558.33,-40.95636363636364
18.34375,44.47,26.34,-6.68,5.65,-0.85,21.43,-20.17,-1.5,27.11,16.3,-576.82,-42.24727272727273
18.359375,40.69,23.27,-8.39,3.75,-6.01,20.62,-0.37,-1.48,28.1,15.26,-568.14,-41.154545454545456
18.375,36.49,20.28,-10.87,2.12,-10.76,19.66,17.54,-1.37,29.32,14.33,-535.71,-38.08818181818182
18.390625,31.8,17.21,-14.09,0.63,-15.52,18.43,32.89,-0.29,30.53,13.62,-489.9,-34.062727272727265
18.40625,26.77,13.88,-18.02,-0.85,-20.73,16.85,45.43,2.64,31.56,13.09,-440.72,-30.00909090909091
18.421875,21.73,10.24,-22.65,-2.43,-26.66,14.96,55.05,7.76,32.27,12.59,-394.5,-26.512727272727272
18.4375,17.02,6.65,-27.85,-4.14,-33.19,12.89,61.7,14.45,32.6,11.99,-352.06,-23.63090909090909
18.453125,12.94,3.62,-33.26,-5.89,-39.96,10.91,65.43,21.03,32.48,11.23,-310.03,-21.04545454545454
18.46875,9.56,1.55,-38.3,-7.46,-46.47,9.28,66.53,25.33,31.85,10.38,-264.07,-18.347272727272728
18.484375,6.7,0.46,-42.22,-8.63,-52.37,8.17,65.53,25.59,30.65,9.58,-211.85,-15.308181818181817
18.5,3.96,-0.06,-44.39,-9.27,-57.64,7.52,63.06,21.4,28.83,8.93,-154.16,-11.983636363636363
18.515625,0.87,-0.68,-44.52,-9.45,-62.64,7.09,59.7,13.96,26.36,8.41,-92.91,-8.52818181818182
18.53125,-2.91,-1.93,-42.77,-9.47,-67.99,6.53,55.86,5.65,23.26,7.75,-34.69,-5.519090909090909
18.546875,-7.42,-3.96,-39.8,-9.78,-74.39,5.54,51.74,-1.08,19.58,6.63,14.44,-3.4999999999999982
18.5625,-12.32,-6.55,-36.61,-10.85,-82.45,3.99,47.43,-4.69,15.38,4.7,48.38,-3.0536363636363646
18.578125,-17.07,-9.16,-34.36,-12.9,-92.39,1.98,43.02,-5.04,10.74,1.83,62.41,-4.630909090909091
18.59375,-21.22,-11.43,-34.0,-15.74,-103.92,-0.24,38.66,-3.17,5.74,-1.85,55.25,-8.356363636363636
18.609375,-24.68,-13.22,-36.04,-18.58,-116.12,-2.46,34.51,-0.41,0.45,-5.93,30.78,-13.790909090909093
18.625,-27.77,-14.82,-40.25,-20.16,-127.35,-4.53,30.7,2.27,-5.0,-9.88,-2.26,-19.91363636363636
18.640625,-31.17,-16.58,-45.56,-18.98,-135.51,-6.4,27.2,4.58,-10.49,-13.24,-32.64,-25.344545454545457
18.65625,-35.53,-18.91,-50.25,-13.8,-138.38,-8.11,23.8,6.63,-15.8,-15.75,-48.59,-28.608181818181823
18.671875,-41.2,-21.86,-52.41,-4.06,-134.25,-9.78,20.14,8.48,-20.8,-17.5,-46.95,-29.10818181818182
18.6875,-48.05,-25.16,-50.58,9.67,-122.45,-11.52,15.79,9.84,-25.36,-18.81,-28.13,-26.796363636363637
18.703125,-55.51,-28.27,-44.28,25.79,-103.71,-13.44,10.37,10.19,-29.52,-20.21,3.89,-22.24545454545455
18.71875,-62.87,-30.45,-34.21,41.98,-80.05,-15.65,3.7,9.12,-33.5,-22.18,44.53,-16.325454545454548
18.734375,-69.47,-30.99,-22.0,55.81,-54.29,-18.26,-4.1,6.69,-37.66,-25.02,91.14,-9.83181818181818
18.75,-75.02,-29.38,-9.61,65.37,-29.24,-21.3,-12.61,3.47,-42.36,-28.6,143.17,-3.282727272727274
18.765625,-79.63,-25.38,1.35,69.77,-7.07,-24.66,-21.19,0.35,-47.8,-32.36,200.57,3.0863636363636355
18.78125,-83.82,-19.17,10.07,69.13,11.09,-28.16,-29.19,-2.02,-53.77,-35.33,248.91,7.976363636363635
18.796875,-88.49,-11.24,16.66,64.37,25.13,-31.59,-36.21,-3.39,-59.52,-36.37,298.36,12.51909090909091
18.8125,-94.67,-2.31,21.76,56.76,35.61,-34.84,-42.27,-4.0,-63.89,-34.63,340.64,16.196363636363632
18.828125,-103.24,6.77,26.15,47.5,43.35,-38.05,-47.86,-4.37,-65.51,-29.76,369.98,18.632727272727276
18.84375,-114.41,15.15,30.3,37.53,49.01,-41.48,-53.79,-4.86,-63.33,-22.16,383.3,19.56909090909091
18.859375,-127.22,22.18,34.2,27.46,52.98,-45.43,-60.91,-5.56,-57.0,-12.81,381.45,19.03090909090909
18.875,-139.27,27.47,37.44,17.7,55.41,-49.93,-69.68,-6.25,-47.13,-3.05,368.79,17.409090909090907
18.890625,-147.21,30.91,39.45,8.55,56.35,-54.57,-79.89,-6.6,-35.15,5.92,351.3,15.36909090909091
18.90625,-147.54,32.63,39.83,0.29,55.93,-58.48,-90.45,-6.37,-22.91,13.31,333.9,13.649090909090908
18.921875,-137.96,32.87,38.58,-6.84,54.46,-60.55,-99.51,-5.55,-12.03,18.86,318.34,12.788181818181814
18.9375,-118.26,31.95,36.19,-12.62,52.42,-59.78,-104.85,-4.31,-3.48,22.72,304.73,13.155454545454548
18.953125,-90.58,30.1,33.46,-16.99,50.28,-55.62,-104.56,-2.95,2.7,25.28,287.18,14.390909090909092
18.96875,-58.7,27.5,31.21,-19.95,48.47,-48.21,-97.64,-1.81,7.1,26.88,262.69,16.14
18.984375,-26.84,24.28,30.06,-21.6,47.2,-38.32,-84.35,-1.17,10.6,27.69,231.79,18.121818181818185
19.0,1.58,20.62,30.16,-22.03,46.5,-27.18,-66.16,-1.25,13.9,27.74,198.96,20.258181818181818
19.015625,24.72,16.73,31.23,-21.42,46.29,-16.07,-45.2,-2.1,17.26,27.06,170.49,22.635454545454547
19.03125,42.11,12.84,32.72,-19.92,46.43,-6.09,-23.72,-3.55,20.6,25.73,150.8,25.268181818181823
19.046875,54.29,9.19,33.98,-17.85,46.77,2.07,-3.42,-5.29,23.6,24.0,139.83,27.924545454545452
19.0625,62.06,5.94,34.48,-15.6,47.1,8.15,14.75,-6.88,26.03,22.24,132.91,30.10727272727273
19.078125,66.2,3.22,33.97,-13.66,47.18,12.2,30.43,-7.97,27.83,20.8,124.8,31.363636363636363
19.09375,67.41,1.03,32.5,-12.44,46.66,14.54,43.64,-8.39,29.13,19.79,108.73,31.14545454545454
19.109375,66.48,-0.68,30.31,-12.16,45.26,15.62,54.39,-8.27,30.09,19.16,83.51,29.428181818181816
19.125,64.36,-2.12,27.75,-12.79,42.78,15.96,62.63,-7.98,30.83,18.7,52.2,26.574545454545454
19.140625,62.11,-3.52,25.13,-14.05,39.18,16.06,68.25,-7.94,31.39,18.16,20.27,23.185454545454544
19.15625,60.66,-5.2,22.58,-15.62,34.57,16.28,71.21,-8.44,31.76,17.43,-6.76,19.86090909090909
19.171875,60.59,-7.33,20.21,-17.26,29.11,16.87,71.75,-9.5,31.97,16.5,-24.92,17.09
19.1875,62.07,-9.99,18.17,-18.93,23.0,17.78,70.31,-10.85,32.11,15.45,-32.11,15.182727272727272
19.203125,64.91,-13.04,16.66,-20.76,16.49,18.84,67.48,-11.98,32.28,14.29,-28.17,14.272727272727273
19.21875,68.73,-16.27,15.83,-22.91,9.84,19.78,63.89,-12.45,32.49,12.87,-14.21,14.326363636363636
19.234375,73.15,-19.48,15.54,-25.4,3.36,20.39,60.03,-12.02,32.55,11.0,4.27,14.853636363636365
19.25,77.96,-22.6,15.29,-28.1,-2.75,20.58,56.24,-10.8,32.1,8.49,20.63,15.185454545454546
19.265625,83.2,-25.78,14.52,-30.71,-8.45,20.44,52.7,-9.17,30.76,5.4,28.29,14.654545454545454
19.28125,89.03,-29.27,13.08,-33.0,-13.97,20.18,49.48,-7.61,28.34,1.95,23.63,12.894545454545455
19.296875,95.57,-33.25,11.47,-34.86,-19.75,20.06,46.63,-6.48,25.0,-1.47,8.15,10.097272727272728
19.3125,102.64,-37.61,10.55,-36.37,-26.2,20.28,44.16,-5.96,21.16,-4.52,-12.01,6.920000000000001
19.328125,109.62,-41.9,10.72,-37.76,-33.51,20.95,41.99,-5.99,17.38,-7.03,-29.35,4.101818181818182
19.34375,115.5,-45.33,11.0,-39.24,-41.43,22.01,39.92,-6.4,14.04,-9.08,-39.22,1.9790909090909088
19.359375,119.18,-46.89,8.87,-40.98,-49.3,23.19,37.68,-6.92,11.19,-10.96,-41.86,0.29090909090909184
19.375,119.88,-45.71,1.1,-42.98,-56.25,24.11,34.95,-7.26,8.51,-13.05,-42.95,-1.7863636363636373
19.390625,117.54,-41.19,-14.68,-45.13,-61.55,24.4,31.55,-7.14,5.54,-15.71,-48.35,-4.974545454545455
19.40625,112.86,-33.26,-38.63,-47.29,-64.81,23.85,27.45,-6.36,1.95,-19.26,-60.47,-9.451818181818183
19.421875,107.19,-22.39,-68.22,-49.37,-66.21,22.5,22.81,-4.84,-2.31,-23.83,-76.52,-14.653636363636364
19.4375,102.15,-9.42,-99.32,-51.4,-66.33,20.66,17.92,-2.74,-6.99,-29.31,-90.24,-19.547272727272727
19.453125,99.25,4.56,-127.76,-53.55,-66.11,18.67,13.09,-0.38,-11.69,-35.24,-96.13,-23.208181818181817
19.46875,99.57,18.42,-150.88,-56.14,-66.57,16.83,8.53,1.81,-16.1,-40.76,-92.95,-25.29454545454545
19.484375,103.41,31.13,-167.85,-59.53,-68.74,15.24,4.32,3.51,-20.18,-44.7,-84.46,-26.168181818181814
19.5,109.95,41.92,-179.12,-63.99,-73.45,13.81,0.39,4.61,-24.12,-45.86,-76.56,-26.583636363636366
19.515625,117.07,50.25,-185.33,-69.59,-81.11,12.37,-3.43,5.2,-28.34,-43.49,-73.88,-27.29818181818182
19.53125,121.45,55.85,-186.66,-75.92,-91.41,10.73,-7.38,5.48,-33.26,-37.54,-76.56,-28.65636363636363
19.546875,119.46,58.71,-183.05,-82.07,-102.93,8.79,-11.65,5.6,-39.18,-28.84,-80.72,-30.53454545454546
