Timestamp,Participant_11,Participant_12,Participant_13,Participant_14,Participant_15,Participant_16,Participant_17,Participant_18,Participant_22,Participant_23,Participant_24,Average
0.0,2371063.0,1997757.0,2075894.0,2412483.0,1942189.0,2028552.0,2348882.0,1772574.0,2092042.0,1849394.0,1791359.0,2062017.1818181819
0.015625,2370323.0,2001664.0,2075424.0,2413807.0,1942771.0,2029022.0,2348759.0,1769861.0,2092455.0,1844934.0,1795461.0,2062225.5454545454
0.03125,2371832.0,2005464.0,2076569.0,2415220.0,1944383.0,2029220.0,2348583.0,1766495.0,2092731.0,1842329.0,1797658.0,2062771.2727272727
0.046875,2376115.0,2009500.0,2076092.0,2416411.0,1945842.0,2029121.0,2348264.0,1762611.0,2093036.0,1840299.0,1799707.0,2063363.4545454546
0.0625,2381754.0,2016781.0,2076317.0,2417797.0,1948838.0,2029132.0,2348814.0,1758858.0,2093410.0,1838364.0,1801428.0,2064681.1818181819
0.078125,2388677.0,2013312.0,2075873.0,2418714.0,1950731.0,2029506.0,2349188.0,1755754.0,2093813.0,1836722.0,1803344.0,2065057.6363636365
0.09375,2389307.0,2020568.0,2075907.0,2419743.0,1952458.0,2029560.0,2349359.0,1752693.0,2094015.0,1834052.0,1802581.0,2065476.6363636365
0.109375,2394231.0,2025351.0,2075511.0,2420474.0,1954043.0,2032011.0,2349388.0,1750371.0,2093310.0,1832101.0,1793000.0,2065435.5454545454
0.125,2398089.0,2032344.0,2075379.0,2418485.0,1947458.0,2030597.0,2350317.0,1747762.0,2092391.0,1829475.0,1801316.0,2065783.0
0.140625,2401502.0,2039703.0,2075459.0,2412939.0,1956381.0,2029855.0,2350781.0,1745492.0,2091737.0,1827078.0,1799378.0,2066391.3636363635
0.15625,2404142.0,2046576.0,2075530.0,2410695.0,1960383.0,2033043.0,2350940.0,1743393.0,2091020.0,1835454.0,1797596.0,2068070.1818181819
0.171875,2406564.0,2048239.0,2075984.0,2411066.0,1962776.0,2030806.0,2350790.0,1741444.0,2089896.0,1822877.0,1796457.0,2066990.8181818181
0.1875,2408122.0,2049747.0,2076303.0,2412694.0,1958058.0,2030002.0,2348114.0,1739499.0,2088956.0,1812026.0,1796428.0,2065449.9090909092
0.203125,2410391.0,2053126.0,2076445.0,2413563.0,1960877.0,2033489.0,2346125.0,1737055.0,2088440.0,1816939.0,1796100.0,2066595.4545454546
0.21875,2412631.0,2056571.0,2076730.0,2413839.0,1954974.0,2034149.0,2345765.0,1733545.0,2087879.0,1808261.0,1795709.0,2065459.3636363635
0.234375,2413329.0,2060112.0,2077181.0,2414609.0,1949175.0,2034567.0,2349340.0,1730393.0,2087333.0,1804779.0,1795681.0,2065136.2727272727
0.25,2414563.0,2070942.0,2077316.0,2414022.0,1945048.0,2035006.0,2346995.0,1728073.0,2086837.0,1801736.0,1795674.0,2065110.1818181819
0.265625,2414545.0,2064844.0,2077441.0,2413367.0,1942154.0,2035795.0,2345758.0,1724914.0,2085993.0,1800193.0,1795094.0,2063645.2727272727
0.28125,2413251.0,2076976.0,2078027.0,2411900.0,1940432.0,2036284.0,2345225.0,1721339.0,2085602.0,1798852.0,1795804.0,2063972.0
0.296875,2409181.0,2082421.0,2078567.0,2412212.0,1940080.0,2036886.0,2345273.0,1719173.0,2085297.0,1797794.0,1796280.0,2063924.0
0.3125,2404785.0,2088429.0,2078674.0,2412733.0,1939785.0,2037131.0,2345085.0,1717444.0,2085111.0,1795633.0,1797058.0,2063806.1818181819
0.328125,2402427.0,2093352.0,2078358.0,2412265.0,1939142.0,2037537.0,2344924.0,1716105.0,2085038.0,1796742.0,1798133.0,2064002.0909090908
0.34375,2397999.0,2097453.0,2077690.0,2414480.0,1938595.0,2038073.0,2345739.0,1715221.0,2085209.0,1795104.0,1799478.0,2064094.6363636365
0.359375,2399930.0,2101805.0,2077012.0,2415526.0,1938524.0,2038043.0,2346052.0,1715209.0,2085609.0,1795384.0,1800199.0,2064844.8181818181
0.375,2396295.0,2106136.0,2076745.0,2416150.0,1938891.0,2038647.0,2346323.0,1716072.0,2085618.0,1795082.0,1799293.0,2065022.9090909092
0.390625,2394582.0,2110773.0,2075968.0,2415931.0,1940119.0,2039814.0,2347202.0,1715684.0,2085556.0,1791577.0,1794118.0,2064665.8181818181
0.40625,2393235.0,2115411.0,2075823.0,2414829.0,1941212.0,2038878.0,2347626.0,1714290.0,2086025.0,1786828.0,1790771.0,2064084.3636363635
0.421875,2390957.0,2120122.0,2075959.0,2413487.0,1942910.0,2039384.0,2348858.0,1709382.0,2085711.0,1782139.0,1786692.0,2063236.4545454546
0.4375,2389769.0,2124619.0,2075394.0,2412940.0,1944323.0,2037894.0,2348891.0,1705200.0,2083093.0,1779322.0,1785033.0,2062407.0909090908
0.453125,2389508.0,2129860.0,2075700.0,2412744.0,1945983.0,2037839.0,2347885.0,1699545.0,2084316.0,1795194.0,1782049.0,2063693.0
0.46875,2391506.0,2139589.0,2075423.0,2412686.0,1948079.0,2040208.0,2348748.0,1693647.0,2081328.0,1795249.0,1781961.0,2064402.1818181819
0.484375,2393456.0,2142425.0,2075267.0,2412656.0,1949692.0,2040591.0,2347396.0,1690085.0,2080521.0,1799433.0,1784789.0,2065119.1818181819
0.5,2393411.0,2142841.0,2075458.0,2412875.0,1953503.0,2040684.0,2346658.0,1689759.0,2079992.0,1775056.0,1788845.0,2063552.9090909092
0.515625,2391708.0,2135312.0,2075601.0,2413316.0,1955248.0,2041106.0,2345478.0,1688571.0,2079813.0,1772684.0,1792836.0,2062879.3636363635
0.53125,2390906.0,2129776.0,2075970.0,2412607.0,1957740.0,2041526.0,2344740.0,1687297.0,2079094.0,1776751.0,1797041.0,2063040.7272727273
0.546875,2389731.0,2126260.0,2076176.0,2408688.0,1960030.0,2041864.0,2344697.0,1686898.0,2078515.0,1773747.0,1799534.0,2062376.3636363635
0.5625,2387977.0,2131374.0,2076444.0,2404043.0,1961748.0,2042516.0,2344301.0,1686400.0,2078093.0,1771122.0,1799629.0,2062149.7272727273
0.578125,2386944.0,2143147.0,2076859.0,2401559.0,1958309.0,2042899.0,2344297.0,1686019.0,2077981.0,1769911.0,1800463.0,2062580.7272727273
0.59375,2385686.0,2157350.0,2076997.0,2400400.0,1944773.0,2043330.0,2344213.0,1685010.0,2077743.0,1768990.0,1801852.0,2062394.9090909092
0.609375,2384506.0,2176051.0,2077288.0,2400284.0,1940392.0,2044523.0,2344553.0,1682924.0,2077915.0,1769242.0,1805961.0,2063967.1818181819
0.625,2383437.0,2195586.0,2076767.0,2400408.0,1951002.0,2045012.0,2344839.0,1680258.0,2078048.0,1769160.0,1808579.0,2066645.0909090908
0.640625,2382303.0,2211600.0,2075762.0,2401291.0,1951586.0,2045590.0,2344849.0,1678202.0,2078023.0,1769881.0,1807907.0,2067908.5454545454
0.65625,2381660.0,2221340.0,2075229.0,2401835.0,1936759.0,2043707.0,2345597.0,1675957.0,2078186.0,1769422.0,1810069.0,2067251.0
0.671875,2380953.0,2226257.0,2074465.0,2402047.0,1934373.0,2045995.0,2345583.0,1674348.0,2078090.0,1768864.0,1811634.0,2067509.9090909092
0.6875,2380715.0,2226385.0,2073712.0,2402677.0,1933108.0,2046267.0,2346024.0,1672508.0,2078369.0,1770610.0,1812211.0,2067507.8181818181
0.703125,2376911.0,2224248.0,2073500.0,2403113.0,1932048.0,2046436.0,2346583.0,1670588.0,2078790.0,1761011.0,1820088.0,2066665.0909090908
0.71875,2368044.0,2221142.0,2073334.0,2404248.0,1930739.0,2046430.0,2346853.0,1669121.0,2079938.0,1764742.0,1828948.0,2066685.3636363635
0.734375,2364234.0,2218809.0,2072901.0,2405607.0,1929922.0,2046623.0,2346943.0,1668398.0,2080376.0,1756493.0,1837097.0,2066127.5454545454
0.75,2360666.0,2218323.0,2072905.0,2406918.0,1929265.0,2046717.0,2347672.0,1668055.0,2081135.0,1755491.0,1842565.0,2066337.4545454546
0.765625,2372834.0,2219082.0,2072462.0,2407826.0,1929242.0,2047029.0,2347649.0,1667661.0,2080171.0,1758210.0,1843183.0,2067759.0
0.78125,2356855.0,2221894.0,2072594.0,2408981.0,1930023.0,2047439.0,2346712.0,1667909.0,2079091.0,1754347.0,1845251.0,2066463.2727272727
0.796875,2353561.0,2223836.0,2072679.0,2409782.0,1932759.0,2047397.0,2345647.0,1666953.0,2077792.0,1754750.0,1849241.0,2066763.3636363635
0.8125,2355355.0,2226077.0,2072870.0,2410337.0,1935529.0,2047745.0,2345081.0,1664552.0,2076392.0,1753447.0,1852053.0,2067221.6363636365
0.828125,2351707.0,2229547.0,2072822.0,2411100.0,1934080.0,2047937.0,2344437.0,1661531.0,2075203.0,1753703.0,1854885.0,2066995.6363636365
0.84375,2349894.0,2234944.0,2073223.0,2412010.0,1936798.0,2048348.0,2344047.0,1659176.0,2074388.0,1754015.0,1855478.0,2067483.7272727273
0.859375,2347209.0,2235659.0,2073126.0,2412320.0,1931399.0,2048713.0,2344147.0,1657907.0,2073987.0,1753578.0,1852225.0,2066388.1818181819
0.875,2346256.0,2236465.0,2073090.0,2413295.0,1938472.0,2049166.0,2343051.0,1657678.0,2073203.0,1755238.0,1847946.0,2066714.5454545454
0.890625,2348062.0,2238287.0,2072955.0,2413937.0,1940617.0,2049689.0,2343324.0,1657033.0,2072617.0,1757692.0,1845843.0,2067277.8181818181
0.90625,2346228.0,2238250.0,2073172.0,2414172.0,1942478.0,2050187.0,2342985.0,1656809.0,2072492.0,1754483.0,1842229.0,2066680.4545454546
0.921875,2346260.0,2237332.0,2072820.0,2414882.0,1944340.0,2050912.0,2343361.0,1656759.0,2072378.0,1756146.0,1846985.0,2067470.4545454546
0.9375,2346021.0,2240243.0,2071414.0,2415538.0,1946723.0,2051592.0,2343648.0,1656783.0,2072840.0,1757570.0,1852413.0,2068616.8181818181
0.953125,2345337.0,2242770.0,2069532.0,2415756.0,1948928.0,2052356.0,2344145.0,1657509.0,2073556.0,1755285.0,1854095.0,2069024.4545454546
0.96875,2344515.0,2246625.0,2067483.0,2413381.0,1942396.0,2053071.0,2344856.0,1658334.0,2074079.0,1752026.0,1859402.0,2068742.5454545454
0.984375,2343387.0,2251840.0,2065919.0,2408820.0,1924279.0,2053763.0,2345411.0,1658093.0,2074680.0,1748266.0,1864321.0,2067161.7272727273
1.0,2342563.0,2255268.0,2065185.0,2405182.0,1923520.0,2054437.0,2346864.0,1657155.0,2075178.0,1749812.0,1867541.0,2067518.6363636365
1.015625,2341582.0,2258724.0,2064516.0,2404186.0,1924963.0,2055130.0,2347822.0,1655440.0,2075523.0,1746834.0,1871507.0,2067838.8181818181
1.03125,2341232.0,2261801.0,2064363.0,2404493.0,1927726.0,2055743.0,2348911.0,1653718.0,2076010.0,1746604.0,1875938.0,2068776.2727272727
1.046875,2340664.0,2263610.0,2063741.0,2405047.0,1935830.0,2056379.0,2349898.0,1652625.0,2076791.0,1746755.0,1878536.0,2069988.7272727273
1.0625,2340581.0,2264543.0,2063792.0,2405611.0,1925442.0,2056437.0,2349513.0,1652393.0,2077746.0,1747480.0,1882447.0,2069635.0
1.078125,2341155.0,2265095.0,2063171.0,2406173.0,1931004.0,2056715.0,2348555.0,1654370.0,2077521.0,1748722.0,1883800.0,2070571.0
1.09375,2341032.0,2265268.0,2063013.0,2406830.0,1922335.0,2056850.0,2347756.0,1656982.0,2077607.0,1746647.0,1881732.0,2069641.0909090908
1.109375,2337031.0,2265958.0,2062657.0,2407446.0,1922115.0,2057262.0,2347195.0,1660148.0,2076351.0,1750001.0,1879243.0,2069582.4545454546
1.125,2331745.0,2265263.0,2062941.0,2409113.0,1922064.0,2057216.0,2346543.0,1663847.0,2074851.0,1750427.0,1876613.0,2069147.5454545454
1.140625,2327032.0,2260945.0,2063047.0,2410626.0,1922679.0,2057590.0,2346854.0,1668153.0,2073578.0,1751127.0,1874928.0,2068778.0909090908
1.15625,2323338.0,2260934.0,2063196.0,2413297.0,1924227.0,2057836.0,2346048.0,1672471.0,2071722.0,1753235.0,1874419.0,2069156.6363636365
1.171875,2341171.0,2261712.0,2063274.0,2415629.0,1948906.0,2058219.0,2341843.0,1675690.0,2073048.0,1754516.0,1874021.0,2073457.1818181819
1.1875,2340679.0,2262697.0,2063566.0,2417369.0,1925553.0,2058408.0,2337144.0,1678101.0,2070223.0,1755277.0,1873106.0,2071102.0909090908
1.203125,2320355.0,2264370.0,2063547.0,2420767.0,1928612.0,2058838.0,2337611.0,1678892.0,2069857.0,1754853.0,1871937.0,2069967.1818181819
1.21875,2318103.0,2266951.0,2063812.0,2419062.0,1927472.0,2059079.0,2339977.0,1680045.0,2070959.0,1754973.0,1871251.0,2070153.0909090908
1.234375,2316320.0,2270094.0,2063628.0,2422399.0,1930687.0,2059573.0,2338278.0,1681693.0,2069415.0,1755593.0,1871701.0,2070852.8181818181
1.25,2314033.0,2273157.0,2062373.0,2423217.0,1932533.0,2059688.0,2332200.0,1684695.0,2068916.0,1758119.0,1872017.0,2070995.2727272727
1.265625,2315436.0,2276377.0,2061106.0,2423533.0,1934372.0,2060069.0,2321622.0,1688736.0,2069014.0,1764934.0,1871640.0,2071530.8181818181
1.28125,2311943.0,2277902.0,2060142.0,2423848.0,1936469.0,2060434.0,2310891.0,1692135.0,2069041.0,1761644.0,1872703.0,2070650.1818181819
1.296875,2307178.0,2277585.0,2059111.0,2425551.0,1938520.0,2060949.0,2299788.0,1696975.0,2069553.0,1768315.0,1873324.0,2070622.6363636365
1.3125,2309171.0,2276232.0,2058746.0,2427699.0,1940937.0,2061103.0,2285112.0,1701920.0,2070442.0,1773304.0,1874748.0,2070855.8181818181
1.328125,2305035.0,2275606.0,2059041.0,2429930.0,1943194.0,2061713.0,2270806.0,1706416.0,2069625.0,1771148.0,1876209.0,2069883.9090909092
1.34375,2303016.0,2273937.0,2059812.0,2431480.0,1945465.0,2061998.0,2254927.0,1711057.0,2071925.0,1776221.0,1877287.0,2069738.6363636365
1.359375,2301142.0,2276585.0,2059932.0,2433301.0,1944213.0,2062500.0,2245753.0,1715050.0,2070831.0,1782217.0,1876342.0,2069806.0
1.375,2299937.0,2274518.0,2059110.0,2434579.0,1936355.0,2063669.0,2240805.0,1717241.0,2072681.0,1791609.0,1877326.0,2069802.7272727273
1.390625,2298305.0,2272318.0,2058622.0,2436173.0,1923809.0,2062810.0,2238374.0,1718061.0,2073433.0,1801811.0,1878582.0,2069299.8181818181
1.40625,2296662.0,2270756.0,2058515.0,2438659.0,1929465.0,2063521.0,2239842.0,1717554.0,2074177.0,1806409.0,1879997.0,2070505.1818181819
1.421875,2295269.0,2269318.0,2058546.0,2434594.0,1919563.0,2063909.0,2235552.0,1717964.0,2075064.0,1810913.0,1879577.0,2069115.3636363635
1.4375,2293963.0,2268204.0,2058644.0,2422296.0,1916052.0,2064166.0,2230532.0,1717425.0,2076044.0,1815610.0,1877701.0,2067330.6363636365
1.453125,2293304.0,2266742.0,2058942.0,2425971.0,1914462.0,2063987.0,2226188.0,1717509.0,2075541.0,1819407.0,1875592.0,2067058.6363636365
1.46875,2291814.0,2267868.0,2059053.0,2420419.0,1915589.0,2063902.0,2223874.0,1717733.0,2069823.0,1823018.0,1873248.0,2066031.0
1.484375,2291374.0,2271844.0,2059326.0,2419407.0,1922518.0,2063949.0,2225703.0,1717936.0,2074783.0,1796857.0,1872083.0,2065070.9090909092
1.5,2290406.0,2273852.0,2058993.0,2419820.0,1935635.0,2064628.0,2233827.0,1718605.0,2074017.0,1774732.0,1871990.0,2065136.8181818181
1.515625,2290351.0,2274953.0,2058553.0,2420834.0,1947432.0,2064653.0,2255727.0,1719013.0,2073592.0,1776654.0,1872096.0,2068532.5454545454
1.53125,2290090.0,2278022.0,2058378.0,2421706.0,1956813.0,2064495.0,2260274.0,1719824.0,2072915.0,1786295.0,1872523.0,2071030.4545454546
1.546875,2289535.0,2284315.0,2058306.0,2421975.0,1961873.0,2065083.0,2243286.0,1721029.0,2072496.0,1826455.0,1870321.0,2074061.2727272727
1.5625,2289672.0,2293676.0,2056193.0,2421554.0,1964621.0,2065210.0,2250707.0,1722088.0,2072752.0,1830275.0,1866003.0,2075704.6363636365
1.578125,2288596.0,2298382.0,2054368.0,2420966.0,1963490.0,2065365.0,2270658.0,1723265.0,2072370.0,1833827.0,1862648.0,2077630.4545454546
1.59375,2284470.0,2301970.0,2053172.0,2420421.0,1961325.0,2065557.0,2265402.0,1723816.0,2072045.0,1837777.0,1861213.0,2077015.2727272727
1.609375,2279202.0,2289647.0,2052139.0,2420793.0,1959088.0,2065361.0,2275303.0,1723301.0,2072082.0,1841546.0,1861907.0,2076397.1818181819
1.625,2274266.0,2305930.0,2050872.0,2420871.0,1956640.0,2065735.0,2279734.0,1723204.0,2071949.0,1844571.0,1862752.0,2077865.8181818181
1.640625,2270818.0,2309424.0,2049794.0,2421132.0,1954013.0,2065695.0,2283347.0,1723079.0,2072053.0,1846324.0,1864977.0,2078241.4545454546
1.65625,2267984.0,2312777.0,2049563.0,2421226.0,1951116.0,2067294.0,2286555.0,1722972.0,2072764.0,1847132.0,1865861.0,2078658.5454545454
1.671875,2261954.0,2319254.0,2048621.0,2421429.0,1947920.0,2068696.0,2288909.0,1723507.0,2072795.0,1855352.0,1866848.0,2079571.3636363635
1.6875,2257484.0,2316301.0,2048181.0,2421887.0,1943856.0,2069531.0,2289616.0,1724218.0,2073090.0,1870297.0,1870416.0,2080443.3636363635
1.703125,2255198.0,2322371.0,2047907.0,2421752.0,1940469.0,2069906.0,2289965.0,1725505.0,2073706.0,1864498.0,1870067.0,2080122.1818181819
1.71875,2252664.0,2328971.0,2047875.0,2421964.0,1936961.0,2070541.0,2290495.0,1726560.0,2073735.0,1874407.0,1867743.0,2081083.2727272727
1.734375,2259687.0,2326732.0,2048083.0,2422126.0,1933927.0,2070532.0,2292038.0,1727417.0,2074377.0,1877353.0,1861067.0,2081212.6363636365
1.75,2264364.0,2330962.0,2048557.0,2422466.0,1926594.0,2071118.0,2293514.0,1729374.0,2074607.0,1879444.0,1865155.0,2082377.7272727273
1.765625,2249041.0,2334032.0,2048915.0,2423127.0,1912078.0,2071655.0,2295079.0,1731119.0,2075210.0,1880289.0,1868934.0,2080861.7272727273
1.78125,2250728.0,2335718.0,2049484.0,2423887.0,1896055.0,2071391.0,2296892.0,1733240.0,2075665.0,1881226.0,1865964.0,2080022.7272727273
1.796875,2247676.0,2336685.0,2049539.0,2424939.0,1880749.0,2071656.0,2299350.0,1735680.0,2076199.0,1882051.0,1861139.0,2078696.6363636365
1.8125,2246110.0,2337214.0,2049779.0,2424178.0,1867136.0,2071688.0,2301224.0,1737482.0,2075200.0,1884253.0,1861142.0,2077764.1818181819
1.828125,2245163.0,2338551.0,2049833.0,2420781.0,1855480.0,2071829.0,2303120.0,1738667.0,2074084.0,1885495.0,1866371.0,2077215.8181818181
1.84375,2244067.0,2340581.0,2049664.0,2416674.0,1846804.0,2071528.0,2303627.0,1738841.0,2072907.0,1888528.0,1879632.0,2077532.0909090908
1.859375,2243461.0,2324528.0,2048386.0,2414319.0,1840073.0,2071713.0,2304059.0,1738941.0,2071278.0,1887000.0,1884082.0,2075258.1818181819
1.875,2242638.0,2343991.0,2046564.0,2413548.0,1833490.0,2071685.0,2304344.0,1738844.0,2070000.0,1890357.0,1892349.0,2077073.6363636365
1.890625,2241773.0,2345209.0,2044972.0,2413966.0,1826328.0,2071925.0,2304270.0,1739356.0,2069118.0,1892372.0,1885308.0,2075872.4545454546
1.90625,2241815.0,2346069.0,2043938.0,2414989.0,1820635.0,2072094.0,2304780.0,1740570.0,2068614.0,1894041.0,1876780.0,2074938.6363636365
1.921875,2240864.0,2342542.0,2042603.0,2417482.0,1817009.0,2071854.0,2306086.0,1741740.0,2068361.0,1895572.0,1875625.0,2074521.6363636365
1.9375,2240783.0,2346480.0,2041650.0,2418928.0,1813782.0,2072430.0,2307340.0,1743678.0,2068039.0,1897432.0,1880249.0,2075526.4545454546
1.953125,2240543.0,2346784.0,2041133.0,2418935.0,1811979.0,2072663.0,2308597.0,1745194.0,2068120.0,1901173.0,1889707.0,2076802.5454545454
1.96875,2240472.0,2346372.0,2040470.0,2418675.0,1810830.0,2072840.0,2310128.0,1747705.0,2068374.0,1899337.0,1900854.0,2077823.3636363635
1.984375,2239023.0,2346625.0,2040211.0,2418312.0,1810718.0,2073371.0,2311097.0,1750364.0,2068819.0,1901853.0,1902777.0,2078470.0
2.0,2234246.0,2347260.0,2039885.0,2418867.0,1810646.0,2073852.0,2311724.0,1752980.0,2070019.0,1903376.0,1901933.0,2078617.0909090908
2.015625,2229661.0,2349728.0,2039404.0,2419563.0,1810495.0,2072598.0,2312582.0,1756147.0,2071204.0,1906639.0,1901987.0,2079091.6363636365
2.03125,2225792.0,2348880.0,2039414.0,2420895.0,1810213.0,2073970.0,2313600.0,1758922.0,2072635.0,1910450.0,1900512.0,2079571.1818181819
2.046875,2222576.0,2349370.0,2039492.0,2422434.0,1809255.0,2074489.0,2314164.0,1761954.0,2074734.0,1911956.0,1901469.0,2080172.0909090908
2.0625,2219844.0,2350232.0,2040034.0,2426859.0,1809153.0,2075037.0,2315215.0,1764065.0,2076867.0,1908688.0,1902464.0,2080768.9090909092
2.078125,2217638.0,2347673.0,2039849.0,2424770.0,1809350.0,2075293.0,2316651.0,1765579.0,2078668.0,1904751.0,1902800.0,2080274.7272727273
2.09375,2215441.0,2347034.0,2040244.0,2428974.0,1809746.0,2076078.0,2317599.0,1765629.0,2080104.0,1901994.0,1903663.0,2080591.4545454546
2.109375,2214011.0,2348073.0,2040362.0,2430376.0,1807315.0,2075796.0,2317822.0,1765629.0,2081517.0,1913740.0,1904182.0,2081711.1818181819
2.125,2212536.0,2346737.0,2040303.0,2433545.0,1797747.0,2076721.0,2317752.0,1766070.0,2082299.0,1915664.0,1902441.0,2081074.0909090908
2.140625,2210836.0,2349087.0,2039171.0,2431948.0,1785070.0,2076939.0,2317106.0,1768533.0,2081954.0,1917170.0,1902832.0,2080058.7272727273
2.15625,2209219.0,2349896.0,2037635.0,2435211.0,1775335.0,2077613.0,2316344.0,1772866.0,2080845.0,1918923.0,1900986.0,2079533.9090909092
2.171875,2207915.0,2350493.0,2036540.0,2437475.0,1766402.0,2077208.0,2315927.0,1778405.0,2078778.0,1920273.0,1899834.0,2079022.7272727273
2.1875,2207569.0,2347606.0,2035873.0,2439456.0,1759282.0,2077862.0,2316267.0,1784309.0,2077140.0,1921900.0,1900227.0,2078862.8181818181
2.203125,2206881.0,2350803.0,2035491.0,2440599.0,1754246.0,2077708.0,2316113.0,1790314.0,2075619.0,1923718.0,1899749.0,2079203.7272727273
2.21875,2206482.0,2353278.0,2035400.0,2441222.0,1750163.0,2077694.0,2315574.0,1796765.0,2074765.0,1925390.0,1899504.0,2079657.9090909092
2.234375,2206813.0,2353939.0,2034969.0,2437413.0,1745524.0,2077823.0,2312101.0,1800005.0,2074085.0,1926770.0,1898835.0,2078934.2727272727
2.25,2207149.0,2354931.0,2034406.0,2432712.0,1740909.0,2077928.0,2304026.0,1803382.0,2073692.0,1927290.0,1898757.0,2077743.8181818181
2.265625,2207986.0,2356452.0,2033644.0,2431461.0,1736499.0,2078041.0,2289212.0,1810842.0,2073130.0,1929699.0,1899297.0,2076933.0
2.28125,2210193.0,2357313.0,2033225.0,2432191.0,1733334.0,2078004.0,2277356.0,1819846.0,2072684.0,1928219.0,1899908.0,2076570.2727272727
2.296875,2213451.0,2351553.0,2032614.0,2433025.0,1731938.0,2078284.0,2270941.0,1827158.0,2072167.0,1931679.0,1899955.0,2076615.0
2.3125,2215004.0,2357951.0,2032278.0,2433516.0,1731116.0,2078283.0,2270831.0,1834436.0,2072175.0,1934336.0,1900809.0,2078248.6363636365
2.328125,2216451.0,2357624.0,2032562.0,2433644.0,1731509.0,2078169.0,2272950.0,1840465.0,2072314.0,1936337.0,1900848.0,2079352.0909090908
2.34375,2217540.0,2357790.0,2032275.0,2432245.0,1732482.0,2078251.0,2268969.0,1847125.0,2072242.0,1940332.0,1900827.0,2080007.0909090908
2.359375,2215590.0,2358544.0,2032660.0,2430512.0,1733139.0,2078281.0,2256449.0,1853015.0,2072333.0,1938855.0,1900461.0,2079076.2727272727
2.375,2214384.0,2359359.0,2032506.0,2428158.0,1734631.0,2078684.0,2246319.0,1858708.0,2072442.0,1946438.0,1901134.0,2079342.0909090908
2.390625,2213329.0,2361000.0,2031271.0,2427079.0,1735356.0,2078784.0,2243421.0,1864712.0,2072346.0,1952764.0,1900872.0,2080084.9090909092
2.40625,2213108.0,2363985.0,2029808.0,2426278.0,1736005.0,2079076.0,2244076.0,1870368.0,2072181.0,1957218.0,1899175.0,2081025.2727272727
2.421875,2209415.0,2362448.0,2028633.0,2426515.0,1737076.0,2079441.0,2238043.0,1875543.0,2072453.0,1957779.0,1895949.0,2080299.5454545454
2.4375,2202817.0,2365280.0,2027860.0,2426082.0,1738475.0,2079662.0,2241222.0,1880179.0,2072854.0,1955595.0,1892516.0,2080231.0909090908
2.453125,2201175.0,2357745.0,2027106.0,2425652.0,1739891.0,2079849.0,2245147.0,1885663.0,2072165.0,1942784.0,1890479.0,2078877.8181818181
2.46875,2204002.0,2366048.0,2026860.0,2425603.0,1740407.0,2079902.0,2240204.0,1890738.0,2071298.0,1949854.0,1889161.0,2080370.6363636365
2.484375,2218549.0,2367102.0,2026087.0,2431309.0,1733774.0,2080081.0,2235007.0,1895844.0,2069708.0,1959460.0,1888798.0,2082338.0909090908
2.5,2230587.0,2368463.0,2025344.0,2440288.0,1724286.0,2081103.0,2229375.0,1901092.0,2068240.0,1961179.0,1888543.0,2083500.0
2.515625,2237274.0,2370761.0,2024797.0,2446637.0,1716044.0,2082575.0,2224156.0,1906064.0,2066776.0,1962112.0,1887895.0,2084099.1818181819
2.53125,2239494.0,2371761.0,2024624.0,2450520.0,1710132.0,2083713.0,2221597.0,1909415.0,2065115.0,1961887.0,1886704.0,2084087.4545454546
2.546875,2242554.0,2372952.0,2024626.0,2453014.0,1705387.0,2083909.0,2222088.0,1911655.0,2063729.0,1962347.0,1885828.0,2084371.7272727273
2.5625,2248154.0,2373319.0,2024978.0,2454317.0,1702861.0,2084293.0,2226574.0,1914100.0,2062296.0,1963252.0,1884699.0,2085349.3636363635
2.578125,2256271.0,2371147.0,2025276.0,2454116.0,1701627.0,2084813.0,2231634.0,1916327.0,2061433.0,1963391.0,1877930.0,2085815.0
2.59375,2264664.0,2369321.0,2025021.0,2453566.0,1700844.0,2084896.0,2236739.0,1918680.0,2060688.0,1965494.0,1870135.0,2086368.0
2.609375,2273681.0,2364488.0,2025326.0,2453529.0,1699088.0,2084641.0,2241483.0,1921024.0,2059799.0,1967411.0,1859743.0,2086383.0
2.625,2276842.0,2349412.0,2025526.0,2454139.0,1698627.0,2083955.0,2246673.0,1923979.0,2059383.0,1968924.0,1849036.0,2085136.0
2.640625,2270316.0,2333325.0,2026080.0,2454009.0,1698636.0,2084376.0,2251519.0,1926326.0,2059375.0,1969363.0,1840084.0,2083037.1818181819
2.65625,2272159.0,2332726.0,2025344.0,2448981.0,1699709.0,2083930.0,2259627.0,1928953.0,2059191.0,1969902.0,1834979.0,2083227.3636363635
2.671875,2264774.0,2331622.0,2024330.0,2443036.0,1701548.0,2083972.0,2268828.0,1931118.0,2059223.0,1971296.0,1834230.0,2083088.8181818181
2.6875,2262060.0,2328563.0,2024377.0,2440755.0,1703577.0,2084327.0,2275015.0,1933663.0,2059380.0,1973807.0,1835533.0,2083732.4545454546
2.703125,2258156.0,2326808.0,2024769.0,2439503.0,1705736.0,2084400.0,2280793.0,1935396.0,2059460.0,1976190.0,1836986.0,2084381.5454545454
2.71875,2255113.0,2328705.0,2025762.0,2439117.0,1707632.0,2084406.0,2285184.0,1937668.0,2060092.0,1978390.0,1834367.0,2085130.5454545454
2.734375,2246728.0,2332255.0,2030601.0,2438422.0,1709819.0,2084625.0,2288715.0,1939568.0,2060293.0,1979885.0,1832992.0,2085809.3636363635
2.75,2243480.0,2337912.0,2035409.0,2438217.0,1712355.0,2084657.0,2291357.0,1942159.0,2060252.0,1981027.0,1831590.0,2087128.6363636365
2.765625,2231344.0,2344957.0,2037876.0,2436852.0,1715114.0,2085478.0,2293592.0,1943539.0,2060582.0,1979683.0,1831632.0,2087331.7272727273
2.78125,2234561.0,2351090.0,2038373.0,2437850.0,1717702.0,2085893.0,2296210.0,1943742.0,2060223.0,1977151.0,1839031.0,2089256.9090909092
2.796875,2225390.0,2355398.0,2038434.0,2435419.0,1720222.0,2086279.0,2297764.0,1942682.0,2058804.0,1976497.0,1849259.0,2089649.8181818181
2.8125,2218184.0,2357896.0,2038590.0,2434720.0,1723071.0,2086386.0,2300125.0,1942625.0,2057090.0,1977023.0,1852876.0,2089871.4545454546
2.828125,2217022.0,2360364.0,2038526.0,2433844.0,1725787.0,2086760.0,2302362.0,1941942.0,2055362.0,1977023.0,1849211.0,2089836.6363636365
2.84375,2211315.0,2362871.0,2038199.0,2433839.0,1724621.0,2087381.0,2304447.0,1941914.0,2053985.0,1981059.0,1843471.0,2089372.9090909092
2.859375,2202997.0,2365825.0,2037468.0,2434620.0,1719123.0,2087728.0,2306493.0,1942025.0,2052701.0,1978980.0,1840173.0,2088012.0909090908
2.875,2192505.0,2368293.0,2036914.0,2434290.0,1714604.0,2088016.0,2308237.0,1942853.0,2051732.0,1981513.0,1842018.0,2087361.3636363635
2.890625,2197188.0,2371408.0,2036367.0,2436343.0,1713999.0,2085134.0,2309611.0,1943608.0,2051222.0,1982153.0,1847587.0,2088601.8181818181
2.90625,2191712.0,2375146.0,2036107.0,2435264.0,1716151.0,2084957.0,2311253.0,1944866.0,2050549.0,1982869.0,1852448.0,2089211.0909090908
2.921875,2185689.0,2378592.0,2035834.0,2439708.0,1718725.0,2088290.0,2312466.0,1946010.0,2050176.0,1984920.0,1856385.0,2090617.7272727273
2.9375,2181423.0,2382100.0,2035115.0,2437336.0,1718378.0,2088809.0,2313778.0,1946562.0,2050140.0,1987973.0,1860290.0,2091082.1818181819
2.953125,2175825.0,2385181.0,2033563.0,2444026.0,1720098.0,2089181.0,2314946.0,1947544.0,2050054.0,1986115.0,1860101.0,2091512.1818181819
2.96875,2169980.0,2388789.0,2031982.0,2441596.0,1723542.0,2089636.0,2316345.0,1947515.0,2050207.0,1988585.0,1857600.0,2091434.2727272727
2.984375,2166570.0,2392349.0,2030570.0,2446858.0,1726030.0,2089852.0,2317528.0,1946929.0,2050311.0,1989400.0,1855580.0,2091997.9090909092
3.0,2162732.0,2395994.0,2028885.0,2445627.0,1732183.0,2089924.0,2318618.0,1946735.0,2050734.0,1989572.0,1852256.0,2092114.5454545454
3.015625,2162085.0,2400338.0,2027603.0,2447565.0,1738904.0,2089661.0,2319321.0,1946350.0,2051041.0,1988810.0,1849868.0,2092867.8181818181
3.03125,2167473.0,2404583.0,2026741.0,2440075.0,1747296.0,2089328.0,2319617.0,1946013.0,2050785.0,1988724.0,1849076.0,2093610.0909090908
3.046875,2162182.0,2408354.0,2026146.0,2435457.0,1754875.0,2089322.0,2320442.0,1946346.0,2050590.0,1987017.0,1848802.0,2093593.9090909092
3.0625,2157904.0,2412020.0,2025470.0,2431874.0,1761952.0,2089628.0,2320929.0,1947073.0,2050718.0,1983744.0,1848416.0,2093611.6363636365
3.078125,2153177.0,2415649.0,2025044.0,2430624.0,1768878.0,2089219.0,2321032.0,1948392.0,2050662.0,1989215.0,1847824.0,2094519.6363636365
3.09375,2146930.0,2418953.0,2024601.0,2430230.0,1774947.0,2089086.0,2316616.0,1949566.0,2050841.0,1989691.0,1847259.0,2094429.0909090908
3.109375,2136114.0,2421675.0,2024509.0,2445894.0,1780486.0,2089548.0,2303749.0,1950930.0,2050632.0,1990776.0,1848550.0,2094805.7272727273
3.125,2128250.0,2424127.0,2024761.0,2432157.0,1784241.0,2089769.0,2290840.0,1952190.0,2049432.0,1991783.0,1849269.0,2092438.0909090908
3.140625,2123426.0,2426712.0,2024749.0,2436656.0,1784828.0,2089418.0,2285507.0,1953750.0,2047432.0,1992587.0,1849904.0,2092269.9090909092
3.15625,2117626.0,2432280.0,2024869.0,2439170.0,1788818.0,2089917.0,2284546.0,1955181.0,2046033.0,1993431.0,1851066.0,2092994.2727272727
3.171875,2114100.0,2429519.0,2025063.0,2439524.0,1792840.0,2089839.0,2284333.0,1956736.0,2044272.0,1995518.0,1852180.0,2093084.0
3.1875,2111562.0,2434823.0,2025218.0,2439127.0,1796496.0,2090407.0,2286865.0,1958352.0,2043093.0,1994356.0,1853067.0,2093942.3636363635
3.203125,2108273.0,2438380.0,2025452.0,2438794.0,1797394.0,2091390.0,2290696.0,1959680.0,2042386.0,2000232.0,1853568.0,2095113.1818181819
3.21875,2105521.0,2441696.0,2025979.0,2438356.0,1793633.0,2091468.0,2293109.0,1959626.0,2042152.0,2003439.0,1853978.0,2095359.7272727273
3.234375,2104217.0,2444363.0,2026336.0,2438390.0,1790138.0,2091819.0,2295044.0,1959740.0,2042061.0,1997259.0,1851974.0,2094667.3636363635
3.25,2102513.0,2446948.0,2025592.0,2437388.0,1786782.0,2092519.0,2296482.0,1959876.0,2041490.0,2002190.0,1848646.0,2094584.1818181819
3.265625,2100129.0,2449333.0,2022996.0,2438038.0,1784347.0,2092796.0,2300282.0,1959902.0,2041634.0,2002977.0,1845235.0,2094333.5454545454
3.28125,2098786.0,2451095.0,2024423.0,2436319.0,1781314.0,2093584.0,2304883.0,1960529.0,2042406.0,2003035.0,1842379.0,2094432.0909090908
3.296875,2095628.0,2453039.0,2020914.0,2435253.0,1780809.0,2090935.0,2309064.0,1962048.0,2042609.0,2004603.0,1840727.0,2094148.0909090908
3.3125,2090679.0,2454900.0,2021918.0,2434686.0,1780484.0,2090209.0,2312859.0,1971241.0,2042255.0,2004176.0,1839144.0,2094777.3636363635
3.328125,2082291.0,2459295.0,2019738.0,2435247.0,1781080.0,2094051.0,2316287.0,1966473.0,2042332.0,2005862.0,1838900.0,2094686.9090909092
3.34375,2073630.0,2462569.0,2019339.0,2436332.0,1782562.0,2093879.0,2319784.0,1969949.0,2043004.0,2006938.0,1838122.0,2095100.7272727273
3.359375,2065689.0,2456766.0,2018813.0,2439739.0,1785026.0,2094635.0,2322949.0,1970861.0,2043543.0,2007266.0,1836804.0,2094735.5454545454
3.375,2058905.0,2462536.0,2018551.0,2442161.0,1786614.0,2094557.0,2325213.0,1970774.0,2043788.0,2007788.0,1836008.0,2095172.2727272727
3.390625,2051906.0,2461547.0,2018256.0,2445592.0,1788658.0,2094694.0,2327399.0,1970531.0,2044893.0,2007441.0,1836350.0,2095206.0909090908
3.40625,2045647.0,2462947.0,2018075.0,2446959.0,1791182.0,2094759.0,2329295.0,1971049.0,2044962.0,2008344.0,1836592.0,2095437.3636363635
3.421875,2039458.0,2463935.0,2018050.0,2442996.0,1793859.0,2094763.0,2330929.0,1968052.0,2045570.0,2008788.0,1836819.0,2094838.0909090908
3.4375,2033420.0,2464697.0,2018200.0,2440083.0,1796935.0,2094892.0,2332651.0,1961231.0,2046030.0,2006934.0,1837166.0,2093839.9090909092
3.453125,2026720.0,2466424.0,2018173.0,2440107.0,1798755.0,2094999.0,2334316.0,1963389.0,2045895.0,2007405.0,1837483.0,2093969.6363636365
3.46875,2020433.0,2467785.0,2018448.0,2443283.0,1801657.0,2094821.0,2335951.0,1971794.0,2046531.0,2007286.0,1837992.0,2095089.1818181819
3.484375,2014789.0,2469200.0,2018687.0,2446348.0,1804963.0,2095234.0,2337412.0,1972151.0,2042732.0,2009507.0,1839075.0,2095463.4545454546
3.5,2009816.0,2470981.0,2018587.0,2448662.0,1807243.0,2095608.0,2339135.0,1964704.0,2044299.0,2009907.0,1839569.0,2095319.1818181819
3.515625,2005110.0,2472563.0,2019227.0,2451561.0,1809805.0,2095683.0,2341017.0,1971353.0,2040366.0,2010505.0,1838491.0,2095971.0
3.53125,2001057.0,2473713.0,2019444.0,2452503.0,1812618.0,2095919.0,2341911.0,1972840.0,2039255.0,2011164.0,1835022.0,2095949.6363636365
3.546875,1997236.0,2475320.0,2019591.0,2451527.0,1815290.0,2096308.0,2342680.0,1972840.0,2039498.0,2010300.0,1830642.0,2095566.5454545454
3.5625,1993407.0,2476990.0,2019795.0,2448929.0,1816697.0,2096572.0,2342791.0,1973239.0,2041526.0,2009961.0,1825329.0,2095021.4545454546
3.578125,1990359.0,2478768.0,2018555.0,2446023.0,1814045.0,2096665.0,2343451.0,1960213.0,2038591.0,2009663.0,1818912.0,2092295.0
3.59375,1987430.0,2480395.0,2017167.0,2444562.0,1810572.0,2097243.0,2343610.0,1974238.0,2037584.0,2010077.0,1813247.0,2092375.0
3.609375,1984659.0,2482156.0,2016257.0,2442662.0,1808799.0,2097932.0,2344983.0,1975482.0,2038099.0,2012055.0,1812563.0,2092331.5454545454
3.625,1982161.0,2484238.0,2014862.0,2441277.0,1808171.0,2097554.0,2344360.0,1976182.0,2037280.0,2015269.0,1812835.0,2092199.0
3.640625,1979859.0,2484748.0,2013982.0,2441356.0,1808272.0,2098456.0,2346323.0,1977623.0,2037191.0,2013688.0,1811390.0,2092080.7272727273
3.65625,1977540.0,2484992.0,2013300.0,2441738.0,1809237.0,2098659.0,2345910.0,1978030.0,2037271.0,2017448.0,1810702.0,2092257.0
3.671875,1975399.0,2484714.0,2012899.0,2442053.0,1809963.0,2099600.0,2347311.0,1978098.0,2037466.0,2010949.0,1810663.0,2091737.7272727273
3.6875,1973400.0,2485205.0,2012682.0,2441951.0,1810801.0,2099241.0,2348281.0,1977287.0,2037831.0,2019602.0,1812505.0,2092616.9090909092
3.703125,1971814.0,2486644.0,2012287.0,2441843.0,1813006.0,2099919.0,2346707.0,1978247.0,2037780.0,2024055.0,1813556.0,2093259.8181818181
3.71875,1970823.0,2488718.0,2012047.0,2441995.0,1813543.0,2100524.0,2348974.0,1977498.0,2037928.0,2021356.0,1813963.0,2093397.1818181819
3.734375,1969848.0,2490148.0,2012165.0,2442261.0,1813500.0,2100704.0,2349938.0,1978956.0,2037598.0,2026900.0,1814099.0,2094192.4545454546
3.75,1968610.0,2492116.0,2012198.0,2442397.0,1814645.0,2101289.0,2350711.0,1979848.0,2037440.0,2028493.0,1814679.0,2094766.0
3.765625,1964111.0,2493684.0,2012131.0,2442461.0,1815350.0,2101468.0,2351912.0,1977364.0,2037739.0,2030219.0,1815607.0,2094731.4545454546
3.78125,1956569.0,2495277.0,2012519.0,2442806.0,1816126.0,2101504.0,2352420.0,1981525.0,2037879.0,2031704.0,1815944.0,2094933.9090909092
3.796875,1949553.0,2496363.0,2012602.0,2443142.0,1817471.0,2101332.0,2353163.0,1980451.0,2033295.0,2031873.0,1816002.0,2094113.3636363635
3.8125,1944222.0,2498292.0,2012912.0,2441079.0,1819214.0,2101589.0,2353532.0,1983213.0,2034932.0,2032439.0,1815998.0,2094311.0909090908
3.828125,1940104.0,2500196.0,2013139.0,2434744.0,1821124.0,2101645.0,2353570.0,1985228.0,2036962.0,2032498.0,1812565.0,2093797.7272727273
3.84375,1936621.0,2502264.0,2014208.0,2427529.0,1822804.0,2101561.0,2353399.0,1986193.0,2031874.0,2033226.0,1807612.0,2092481.0
3.859375,1933437.0,2504064.0,2013538.0,2422514.0,1825026.0,2101390.0,2352847.0,1985961.0,2029067.0,2033510.0,1804085.0,2091403.5454545454
3.875,1930288.0,2506071.0,2014776.0,2419586.0,1826705.0,2101273.0,2353115.0,1983799.0,2027932.0,2032910.0,1800062.0,2090592.4545454546
3.890625,1926696.0,2507585.0,2014917.0,2417504.0,1828509.0,2101716.0,2354021.0,1982551.0,2030254.0,2032182.0,1798234.0,2090379.0
3.90625,1922496.0,2508234.0,2014809.0,2415830.0,1830504.0,2101778.0,2353463.0,1985362.0,2027044.0,2030467.0,1797719.0,2089791.4545454546
3.921875,1919094.0,2507240.0,2013722.0,2414825.0,1828846.0,2101998.0,2350161.0,1984384.0,2026347.0,2031479.0,1796563.0,2088605.3636363635
3.9375,1916037.0,2506911.0,2013129.0,2413710.0,1826972.0,2102020.0,2339913.0,1983902.0,2025458.0,2031835.0,1795997.0,2086898.5454545454
3.953125,1913425.0,2507249.0,2011999.0,2412169.0,1826162.0,2101998.0,2329637.0,1983671.0,2025046.0,2032219.0,1795074.0,2085331.7272727273
3.96875,1911449.0,2508174.0,2011409.0,2411882.0,1826336.0,2101435.0,2328334.0,1983723.0,2025680.0,2032311.0,1794686.0,2085038.0909090908
3.984375,1909483.0,2509465.0,2010876.0,2413524.0,1827363.0,2101912.0,2331264.0,1983722.0,2025331.0,2032456.0,1794396.0,2085435.6363636365
4.0,1907897.0,2510852.0,2010913.0,2412905.0,1829404.0,2103156.0,2335636.0,1984007.0,2025314.0,2032217.0,1794824.0,2086102.2727272727
4.015625,1906426.0,2512386.0,2011449.0,2415083.0,1830719.0,2103398.0,2341013.0,1984546.0,2026080.0,2032895.0,1794947.0,2087176.5454545454
4.03125,1905401.0,2513259.0,2011737.0,2416561.0,1832188.0,2103226.0,2345914.0,1984893.0,2026101.0,2032970.0,1795821.0,2088006.4545454546
4.046875,1904272.0,2513658.0,2011841.0,2418492.0,1832223.0,2103067.0,2349469.0,1984788.0,2025806.0,2032876.0,1796104.0,2088417.8181818181
4.0625,1903241.0,2514481.0,2012912.0,2419631.0,1832617.0,2102982.0,2351515.0,1984527.0,2026293.0,2033011.0,1796145.0,2088850.4545454546
4.078125,1902334.0,2514269.0,2013245.0,2420661.0,1834105.0,2102854.0,2352868.0,1985564.0,2026735.0,2031230.0,1796381.0,2089113.2727272727
4.09375,1901425.0,2515369.0,2012909.0,2422222.0,1835657.0,2103104.0,2354151.0,1986227.0,2027890.0,2029441.0,1795816.0,2089473.7272727273
4.109375,1900563.0,2515858.0,2012916.0,2423197.0,1838946.0,2103461.0,2354505.0,1984569.0,2026991.0,2028049.0,1793235.0,2089299.0909090908
4.125,1900434.0,2517366.0,2012548.0,2423751.0,1842838.0,2103759.0,2355549.0,1985589.0,2027380.0,2027249.0,1790802.0,2089751.3636363635
4.140625,1900423.0,2518490.0,2013033.0,2424697.0,1848197.0,2104032.0,2356107.0,1983767.0,2022544.0,2027039.0,1787996.0,2089665.9090909092
4.15625,1899385.0,2520265.0,2013440.0,2426963.0,1855004.0,2104122.0,2357295.0,1982598.0,2025093.0,2026480.0,1786497.0,2090649.2727272727
4.171875,1894027.0,2520418.0,2013658.0,2429724.0,1862601.0,2104452.0,2358200.0,1982330.0,2021108.0,2025782.0,1785558.0,2090714.3636363635
4.1875,1886883.0,2519731.0,2014057.0,2431999.0,1870493.0,2104596.0,2358781.0,1982594.0,2020769.0,2025652.0,1785431.0,2090998.7272727273
4.203125,1880199.0,2518310.0,2014917.0,2433750.0,1878136.0,2104843.0,2360009.0,1982697.0,2020384.0,2025177.0,1784568.0,2091180.9090909092
4.21875,1875187.0,2517958.0,2015353.0,2431828.0,1885802.0,2104610.0,2359961.0,1982794.0,2020216.0,2024627.0,1784182.0,2091138.0
4.234375,1870962.0,2517873.0,2015772.0,2426202.0,1891443.0,2104830.0,2361004.0,1983224.0,2020218.0,2024459.0,1783484.0,2090861.0
4.25,1866754.0,2517900.0,2015152.0,2422283.0,1891644.0,2104987.0,2361678.0,1983138.0,2020119.0,2024433.0,1783472.0,2090141.8181818181
4.265625,1863873.0,2518906.0,2013483.0,2420283.0,1891655.0,2105335.0,2362302.0,1983177.0,2020134.0,2024559.0,1783552.0,2089750.8181818181
4.28125,1861118.0,2518412.0,2012357.0,2419466.0,1892909.0,2105260.0,2363550.0,1983800.0,2020299.0,2024406.0,1784202.0,2089616.2727272727
4.296875,1858874.0,2518529.0,2011163.0,2419001.0,1894749.0,2105445.0,2365056.0,1984295.0,2020491.0,2024464.0,1784734.0,2089709.1818181819
4.3125,1856556.0,2519800.0,2009457.0,2419277.0,1896873.0,2105537.0,2366439.0,1984282.0,2020648.0,2024022.0,1786316.0,2089927.9090909092
4.328125,1854142.0,2516667.0,2008249.0,2419589.0,1899580.0,2105938.0,2367775.0,1983065.0,2020425.0,2019220.0,1787272.0,2089265.6363636365
4.34375,1852526.0,2498669.0,2007976.0,2418900.0,1903429.0,2105970.0,2368729.0,1981235.0,2020519.0,2019020.0,1788025.0,2087727.0909090908
4.359375,1851520.0,2479953.0,2007226.0,2418338.0,1906277.0,2106349.0,2369023.0,1979889.0,2020505.0,2019763.0,1789004.0,2086167.9090909092
4.375,1850896.0,2470723.0,2006504.0,2418160.0,1908548.0,2106629.0,2369047.0,1978553.0,2020590.0,2020812.0,1790484.0,2085540.5454545454
4.390625,1850417.0,2465811.0,2006145.0,2418697.0,1910946.0,2107163.0,2369286.0,1977831.0,2020920.0,2022359.0,1791784.0,2085578.0909090908
4.40625,1850684.0,2462842.0,2005903.0,2421695.0,1913940.0,2107507.0,2369254.0,1977539.0,2021396.0,2022741.0,1791509.0,2085910.0
4.421875,1850241.0,2461539.0,2005538.0,2424837.0,1917098.0,2107564.0,2369611.0,1976930.0,2021552.0,2023122.0,1789290.0,2086120.1818181819
4.4375,1845610.0,2459038.0,2005826.0,2428680.0,1920834.0,2108149.0,2369661.0,1976840.0,2021882.0,2023584.0,1786623.0,2086066.0909090908
4.453125,1837922.0,2460064.0,2005554.0,2433198.0,1923799.0,2108361.0,2369924.0,1976871.0,2022177.0,2024436.0,1784321.0,2086057.0
4.46875,1835648.0,2456126.0,2005698.0,2436247.0,1927439.0,2108867.0,2370691.0,1976936.0,2022241.0,2025319.0,1781327.0,2086049.0
4.484375,1835260.0,2455826.0,2005628.0,2439035.0,1931412.0,2108895.0,2371358.0,1977408.0,2020995.0,2026432.0,1779984.0,2086566.6363636365
4.5,1835641.0,2454315.0,2005863.0,2440878.0,1935015.0,2109557.0,2371713.0,1977899.0,2019516.0,2027458.0,1780407.0,2087114.7272727273
4.515625,1838458.0,2458414.0,2006244.0,2441735.0,1938704.0,2109768.0,2371999.0,1978471.0,2018361.0,2028575.0,1780487.0,2088292.3636363635
4.53125,1841503.0,2463220.0,2006599.0,2441817.0,1942708.0,2110000.0,2372203.0,1978081.0,2016749.0,2029989.0,1776873.0,2089067.4545454546
4.546875,1844068.0,2467687.0,2005923.0,2440673.0,1946238.0,2109866.0,2372772.0,1976247.0,2015286.0,2030775.0,1774720.0,2089477.7272727273
4.5625,1846127.0,2471944.0,2004269.0,2437894.0,1949640.0,2109890.0,2372738.0,1974161.0,2014110.0,2022192.0,1769350.0,2088392.2727272727
4.578125,1848074.0,2475271.0,2003019.0,2434988.0,1948605.0,2110066.0,2373794.0,1972185.0,2013361.0,2031021.0,1762380.0,2088433.0909090908
4.59375,1847896.0,2477784.0,2001612.0,2430845.0,1945480.0,2110084.0,2374202.0,1971161.0,2012424.0,2030263.0,1754847.0,2086963.4545454546
4.609375,1843748.0,2478283.0,2000690.0,2424643.0,1942772.0,2110124.0,2374542.0,1970226.0,2011075.0,2030585.0,1747350.0,2084912.5454545454
4.625,1838954.0,2478798.0,2000275.0,2420658.0,1941776.0,2110213.0,2374439.0,1969989.0,2010384.0,2033025.0,1741785.0,2083663.2727272727
4.640625,1835814.0,2479797.0,1999712.0,2418469.0,1941645.0,2110224.0,2373273.0,1969528.0,2009864.0,2034123.0,1739196.0,2082876.8181818181
4.65625,1833577.0,2481142.0,1998973.0,2418060.0,1941796.0,2110394.0,2372738.0,1969323.0,2009444.0,2035144.0,1740278.0,2082806.2727272727
4.671875,1831750.0,2482146.0,1998508.0,2417594.0,1942602.0,2110292.0,2371765.0,1969641.0,2008932.0,2035332.0,1745410.0,2083088.3636363635
4.6875,1830424.0,2481256.0,1998006.0,2418430.0,1943305.0,2110426.0,2370873.0,1969773.0,2008827.0,2035495.0,1751885.0,2083518.1818181819
4.703125,1829346.0,2479662.0,1997880.0,2419808.0,1943499.0,2110928.0,2369798.0,1970043.0,2008894.0,2031866.0,1757312.0,2083548.7272727273
4.71875,1829606.0,2477528.0,1997932.0,2420599.0,1944670.0,2110986.0,2368618.0,1970930.0,2008946.0,2034985.0,1762340.0,2084285.4545454546
4.734375,1829008.0,2476690.0,1997747.0,2421315.0,1946318.0,2110622.0,2365821.0,1971702.0,2009368.0,2020096.0,1765379.0,2083096.9090909092
4.75,1828961.0,2475860.0,1997923.0,2421183.0,1948348.0,2110544.0,2361530.0,1971364.0,2008723.0,2034570.0,1767284.0,2084208.1818181819
4.765625,1828743.0,2476665.0,1998412.0,2421629.0,1950963.0,2110130.0,2359003.0,1969942.0,2008967.0,2034251.0,1766262.0,2084087.9090909092
4.78125,1829009.0,2477579.0,1998541.0,2422654.0,1953386.0,2110284.0,2357275.0,1967904.0,2009584.0,2034570.0,1766296.0,2084280.1818181819
4.796875,1829860.0,2478740.0,1998179.0,2423541.0,1958683.0,2110453.0,2354991.0,1966107.0,2008892.0,2033999.0,1765658.0,2084463.9090909092
4.8125,1830925.0,2479721.0,1998579.0,2424499.0,1964248.0,2110885.0,2340178.0,1964763.0,2006518.0,2033383.0,1765089.0,2083526.1818181819
4.828125,1832186.0,2480692.0,1998904.0,2425744.0,1967126.0,2110860.0,2322538.0,1963674.0,2004637.0,2033014.0,1764896.0,2082206.4545454546
4.84375,1833194.0,2481111.0,1997574.0,2426764.0,1969305.0,2111297.0,2317797.0,1963101.0,2001531.0,2033090.0,1766765.0,2081957.1818181819
4.859375,1834654.0,2482499.0,1995696.0,2428391.0,1971236.0,2111294.0,2320443.0,1962915.0,1999542.0,2032491.0,1767398.0,2082414.4545454546
4.875,1836322.0,2483312.0,1993972.0,2429432.0,1960941.0,2111870.0,2321519.0,1963027.0,2000194.0,2030379.0,1765710.0,2081516.1818181819
4.890625,1837095.0,2485158.0,1992359.0,2431424.0,1973069.0,2112014.0,2321132.0,1963113.0,2002826.0,2027986.0,1766574.0,2082977.2727272727
4.90625,1826949.0,2485294.0,1990764.0,2433153.0,1956275.0,2112034.0,2324279.0,1963824.0,1997642.0,2026588.0,1766939.0,2080340.0909090908
4.921875,1823074.0,2484164.0,1989455.0,2434258.0,1970969.0,2112272.0,2328729.0,1964842.0,1998351.0,2026007.0,1767922.0,2081822.0909090908
4.9375,1826638.0,2481666.0,1988374.0,2434792.0,1967102.0,2112742.0,2332480.0,1965990.0,1996829.0,2025655.0,1769722.0,2081999.0909090908
4.953125,1831787.0,2479423.0,1987561.0,2435070.0,1964686.0,2112824.0,2334778.0,1967146.0,1995877.0,2026239.0,1770869.0,2082387.2727272727
4.96875,1838320.0,2477417.0,1986871.0,2435392.0,1963369.0,2112498.0,2336152.0,1966898.0,1996123.0,2027376.0,1775121.0,2083230.6363636365
4.984375,1845260.0,2475169.0,1985929.0,2435083.0,1962477.0,2112230.0,2336658.0,1966898.0,1995974.0,2027492.0,1773402.0,2083324.7272727273
5.0,1852152.0,2474194.0,1985285.0,2430200.0,1962417.0,2112581.0,2337859.0,1965413.0,1996115.0,2027113.0,1776954.0,2083662.0909090908
5.015625,1857085.0,2473118.0,1984825.0,2423399.0,1963437.0,2112286.0,2339963.0,1963976.0,1996586.0,2027605.0,1778240.0,2083683.6363636365
5.03125,1861262.0,2472519.0,1984658.0,2416824.0,1965179.0,2112338.0,2341581.0,1962270.0,1997244.0,2028122.0,1779587.0,2083780.3636363635
5.046875,1864159.0,2471568.0,1984645.0,2412881.0,1965955.0,2112278.0,2343948.0,1961360.0,1997890.0,2029887.0,1780268.0,2084076.2727272727
5.0625,1864653.0,2470643.0,1984611.0,2410298.0,1966787.0,2112473.0,2344930.0,1961236.0,1998680.0,2030495.0,1778913.0,2083974.4545454546
5.078125,1863220.0,2470679.0,1984193.0,2407962.0,1967626.0,2112189.0,2345878.0,1961689.0,1999043.0,2030479.0,1777017.0,2083634.0909090908
5.09375,1873086.0,2471099.0,1984130.0,2406587.0,1968816.0,2112623.0,2346577.0,1961259.0,1999115.0,2030887.0,1775311.0,2084499.0909090908
5.109375,1884626.0,2471105.0,1984214.0,2406198.0,1969913.0,2112648.0,2347728.0,1960902.0,1999144.0,2030839.0,1773488.0,2085527.7272727273
5.125,1891982.0,2471436.0,1984213.0,2406813.0,1970732.0,2112703.0,2349363.0,1961102.0,1996857.0,2029159.0,1772890.0,2086113.6363636365
5.140625,1900333.0,2470393.0,1982789.0,2407856.0,1972193.0,2112773.0,2350245.0,1961855.0,1993933.0,2028565.0,1772662.0,2086690.6363636365
5.15625,1907485.0,2466918.0,1980564.0,2409805.0,1973383.0,2113215.0,2351250.0,1963380.0,1991440.0,2030308.0,1767660.0,2086855.2727272727
5.171875,1913321.0,2460836.0,1977923.0,2414346.0,1975607.0,2113634.0,2351910.0,1964379.0,1988574.0,2029145.0,1760650.0,2086393.1818181819
5.1875,1917665.0,2463599.0,1975497.0,2418319.0,1977742.0,2113658.0,2351812.0,1964653.0,1986963.0,2028132.0,1759516.0,2087050.5454545454
5.203125,1922516.0,2459234.0,1973190.0,2420940.0,1979637.0,2113940.0,2351951.0,1962620.0,1986323.0,2028193.0,1760268.0,2087164.7272727273
5.21875,1927622.0,2458277.0,1970947.0,2422974.0,1982106.0,2114592.0,2351115.0,1959388.0,1985624.0,2028488.0,1762201.0,2087575.8181818181
5.234375,1933214.0,2458107.0,1969617.0,2424460.0,1979042.0,2114651.0,2350661.0,1957038.0,1987421.0,2029004.0,1764351.0,2087960.5454545454
5.25,1938843.0,2458387.0,1968354.0,2425450.0,1982658.0,2115015.0,2351028.0,1954808.0,1987305.0,2030695.0,1767707.0,2089113.6363636365
5.265625,1943608.0,2458715.0,1966795.0,2426915.0,1975974.0,2115088.0,2350874.0,1953829.0,1987976.0,2029661.0,1771369.0,2089164.0
5.28125,1948946.0,2458806.0,1965563.0,2429577.0,1975024.0,2115272.0,2350806.0,1953052.0,1989108.0,2031094.0,1775127.0,2090215.9090909092
5.296875,1953540.0,2459265.0,1964608.0,2430475.0,1972966.0,2115587.0,2350180.0,1952130.0,1990100.0,2031961.0,1778440.0,2090841.0909090908
5.3125,1958456.0,2459558.0,1963644.0,2430233.0,1971531.0,2116050.0,2350171.0,1952032.0,1990426.0,2032949.0,1781638.0,2091517.0909090908
5.328125,1962874.0,2459918.0,1962854.0,2428726.0,1973544.0,2115698.0,2350517.0,1951570.0,1990775.0,2029955.0,1784827.0,2091932.5454545454
5.34375,1967282.0,2460869.0,1962423.0,2426162.0,1976256.0,2115924.0,2350755.0,1951480.0,1990313.0,2033639.0,1788435.0,2093048.9090909092
5.359375,1971138.0,2461601.0,1962192.0,2424620.0,1971707.0,2115929.0,2351266.0,1952170.0,1989599.0,2034615.0,1790983.0,2093256.3636363635
5.375,1974579.0,2461915.0,1961808.0,2424856.0,1971710.0,2115874.0,2352453.0,1953020.0,1989899.0,2035488.0,1793420.0,2094092.9090909092
5.390625,1978932.0,2460250.0,1961608.0,2426355.0,1980679.0,2115616.0,2352073.0,1953311.0,1991641.0,2035080.0,1793672.0,2095383.3636363635
5.40625,1982442.0,2456497.0,1961619.0,2427417.0,1977750.0,2115311.0,2349578.0,1953832.0,1993212.0,2035702.0,1794106.0,2095224.1818181819
5.421875,1986575.0,2453277.0,1961341.0,2423535.0,1985159.0,2114898.0,2331184.0,1952472.0,1993428.0,2033715.0,1796015.0,2093781.7272727273
5.4375,1991097.0,2450833.0,1960932.0,2418747.0,1989218.0,2115537.0,2301864.0,1949843.0,1993476.0,2034058.0,1797420.0,2091184.0909090908
5.453125,1997431.0,2448898.0,1958104.0,2415466.0,1989249.0,2116703.0,2290527.0,1947350.0,1992535.0,2033565.0,1798043.0,2089806.4545454546
5.46875,2003528.0,2448004.0,1955300.0,2414516.0,1991611.0,2117849.0,2287407.0,1945167.0,1990326.0,2033598.0,1798570.0,2089625.0909090908
5.484375,2010565.0,2448005.0,1952799.0,2414576.0,1975289.0,2118670.0,2285111.0,1943371.0,1989001.0,2034722.0,1800260.0,2088397.1818181819
5.5,2014245.0,2447620.0,1950375.0,2415625.0,1994588.0,2118984.0,2282667.0,1942965.0,1988292.0,2034020.0,1801615.0,2090090.5454545454
5.515625,2021089.0,2447278.0,1947842.0,2416685.0,1997448.0,2119136.0,2279332.0,1942220.0,1987971.0,2035719.0,1801938.0,2090605.2727272727
5.53125,2019463.0,2447712.0,1945622.0,2417553.0,2001339.0,2119569.0,2275828.0,1941612.0,1987895.0,2035350.0,1804208.0,2090559.1818181819
5.546875,2024067.0,2447481.0,1944349.0,2417441.0,2005518.0,2119428.0,2273189.0,1941616.0,1988010.0,2036400.0,1805916.0,2091219.5454545454
5.5625,2027282.0,2447238.0,1943323.0,2418152.0,1999374.0,2119522.0,2269575.0,1941172.0,1988108.0,2036897.0,1805985.0,2090602.5454545454
5.578125,2027891.0,2447250.0,1942079.0,2418424.0,2002723.0,2119515.0,2266535.0,1941676.0,1987006.0,2037934.0,1806362.0,2090672.2727272727
5.59375,2028219.0,2447485.0,1941337.0,2418257.0,2001090.0,2119482.0,2264752.0,1941934.0,1985647.0,2038404.0,1807837.0,2090404.0
5.609375,2030292.0,2447512.0,1940417.0,2418011.0,1998046.0,2119514.0,2263245.0,1942220.0,1984707.0,2039625.0,1806858.0,2090040.6363636365
5.625,2033356.0,2447496.0,1940158.0,2417958.0,1998339.0,2119765.0,2262361.0,1942632.0,1983790.0,2040533.0,1805206.0,2090144.9090909092
5.640625,2036350.0,2445230.0,1939705.0,2418044.0,2008193.0,2119783.0,2262503.0,1940877.0,1983650.0,2042056.0,1803564.0,2090905.0
5.65625,2039840.0,2441403.0,1939425.0,2417819.0,2008287.0,2120142.0,2262301.0,1938534.0,1983340.0,2043601.0,1799979.0,2090424.6363636365
5.671875,2042647.0,2438474.0,1939669.0,2418133.0,1999570.0,2120239.0,2262292.0,1936195.0,1983425.0,2044882.0,1797251.0,2089343.3636363635
5.6875,2042016.0,2436206.0,1939628.0,2418276.0,2004238.0,2120145.0,2262809.0,1934198.0,1983256.0,2044556.0,1795232.0,2089141.8181818181
5.703125,2042800.0,2434733.0,1939671.0,2418364.0,2006349.0,2120437.0,2262938.0,1932781.0,1983384.0,2045660.0,1788958.0,2088734.0909090908
5.71875,2042196.0,2434770.0,1939645.0,2417710.0,2007785.0,2120620.0,2263935.0,1931862.0,1983909.0,2046915.0,1788173.0,2088865.4545454546
5.734375,2043486.0,2434731.0,1939971.0,2417394.0,2004945.0,2120766.0,2264007.0,1931603.0,1984057.0,2047379.0,1787980.0,2088756.2727272727
5.75,2043757.0,2435445.0,1940063.0,2416853.0,2003023.0,2120514.0,2263700.0,1931379.0,1984873.0,2047903.0,1784633.0,2088376.6363636365
5.765625,2044805.0,2435764.0,1939708.0,2416867.0,2009557.0,2120553.0,2263014.0,1931414.0,1985305.0,2049540.0,1783223.0,2089068.1818181819
5.78125,2044670.0,2436461.0,1937492.0,2417187.0,2012901.0,2120867.0,2261102.0,1931768.0,1985363.0,2051106.0,1783389.0,2089300.5454545454
5.796875,2045780.0,2436784.0,1934593.0,2417503.0,2011795.0,2120737.0,2259164.0,1932203.0,1983759.0,2052787.0,1795539.0,2090058.5454545454
5.8125,2045270.0,2439754.0,1932243.0,2415189.0,2015991.0,2120988.0,2257713.0,1932807.0,1981758.0,2053667.0,1818395.0,2092161.3636363635
5.828125,2045701.0,2438250.0,1929849.0,2410095.0,2014320.0,2120805.0,2256914.0,1933638.0,1980114.0,2054212.0,1823072.0,2091542.7272727273
5.84375,2045058.0,2444210.0,1927685.0,2405449.0,2018182.0,2121274.0,2255878.0,1934282.0,1978748.0,2053845.0,1807906.0,2090228.8181818181
5.859375,2050195.0,2441876.0,1926418.0,2403221.0,2020043.0,2121890.0,2255385.0,1933872.0,1977187.0,2052644.0,1798006.0,2089157.9090909092
5.875,2054055.0,2443079.0,1924819.0,2402734.0,2022491.0,2121882.0,2254634.0,1932057.0,1976417.0,2053291.0,1794958.0,2089128.8181818181
5.890625,2054965.0,2438056.0,1922900.0,2402676.0,2024963.0,2122551.0,2254439.0,1930125.0,1975751.0,2052577.0,1798752.0,2088886.8181818181
5.90625,2056022.0,2433386.0,1923809.0,2403136.0,2026504.0,2122636.0,2254469.0,1928759.0,1975402.0,2053652.0,1807798.0,2089597.5454545454
5.921875,2052242.0,2429598.0,1922019.0,2403183.0,2023421.0,2123147.0,2254749.0,1927942.0,1974518.0,2059893.0,1815090.0,2089618.3636363635
5.9375,2057829.0,2426962.0,1921522.0,2403149.0,2017544.0,2123144.0,2253732.0,1927246.0,1973862.0,2057020.0,1819719.0,2089248.0909090908
5.953125,2056782.0,2424987.0,1921158.0,2402998.0,2014047.0,2123621.0,2252368.0,1927438.0,1973690.0,2060491.0,1820485.0,2088915.0
5.96875,2052663.0,2425057.0,1921042.0,2403630.0,2012496.0,2123898.0,2251940.0,1927955.0,1973720.0,2059837.0,1821419.0,2088514.2727272727
5.984375,2049982.0,2425659.0,1920656.0,2405506.0,2011532.0,2124305.0,2256279.0,1928363.0,1974240.0,2060592.0,1820326.0,2088858.1818181819
6.0,2056916.0,2426173.0,1920456.0,2409623.0,2011348.0,2124545.0,2259478.0,1929231.0,1974421.0,2060037.0,1817586.0,2089983.0909090908
6.015625,2047908.0,2426552.0,1920469.0,2407508.0,2012218.0,2124542.0,2258404.0,1929912.0,1975388.0,2058916.0,1814511.0,2088757.0909090908
6.03125,2058180.0,2426100.0,1920452.0,2412695.0,2013012.0,2124757.0,2259153.0,1930817.0,1976222.0,2058162.0,1811011.0,2090051.0
6.046875,2071898.0,2425517.0,1920741.0,2411352.0,2013330.0,2125163.0,2255534.0,1932029.0,1977426.0,2056020.0,1809189.0,2090745.3636363635
6.0625,2075824.0,2424947.0,1920942.0,2413257.0,2013736.0,2125472.0,2249500.0,1933707.0,1978187.0,2053776.0,1806932.0,2090570.9090909092
6.078125,2072780.0,2425639.0,1920929.0,2413221.0,2014751.0,2125698.0,2244870.0,1933690.0,1979143.0,2051923.0,1805837.0,2089861.9090909092
6.09375,2079439.0,2425930.0,1921477.0,2412903.0,2015502.0,2125830.0,2242518.0,1933079.0,1979694.0,2050304.0,1804232.0,2090082.5454545454
6.109375,2080882.0,2425664.0,1920328.0,2412503.0,2017071.0,2125964.0,2238093.0,1931593.0,1978540.0,2048714.0,1802613.0,2089269.5454545454
6.125,2076685.0,2423326.0,1917823.0,2412036.0,2018578.0,2125893.0,2234391.0,1930585.0,1976790.0,2048231.0,1802133.0,2087861.0
6.140625,2070852.0,2420486.0,1915195.0,2411951.0,2020120.0,2125962.0,2230065.0,1929038.0,1975195.0,2047161.0,1802098.0,2086193.0
6.15625,2067671.0,2418110.0,1913126.0,2411899.0,2021828.0,2125492.0,2223806.0,1928748.0,1974289.0,2046078.0,1801796.0,2084803.9090909092
6.171875,2062826.0,2416352.0,1910889.0,2411842.0,2024151.0,2125515.0,2216083.0,1929165.0,1973707.0,2046090.0,1802421.0,2083549.1818181819
6.1875,2057821.0,2416379.0,1909224.0,2411277.0,2025813.0,2125734.0,2213448.0,1930282.0,1974653.0,2045796.0,1803456.0,2083080.2727272727
6.203125,2054946.0,2417314.0,1908034.0,2407167.0,2027620.0,2125334.0,2211458.0,1931015.0,1975710.0,2045480.0,1804610.0,2082608.0
6.21875,2052798.0,2417914.0,1906938.0,2399808.0,2029399.0,2125582.0,2206449.0,1931850.0,1976001.0,2044396.0,1805897.0,2081548.3636363635
6.234375,2051692.0,2421302.0,1905636.0,2392652.0,2031230.0,2125482.0,2201946.0,1932420.0,1976922.0,2043258.0,1807620.0,2080923.6363636365
6.25,2051813.0,2419776.0,1904473.0,2388060.0,2032175.0,2125330.0,2199649.0,1933035.0,1978325.0,2042518.0,1809023.0,2080379.7272727273
6.265625,2054302.0,2420565.0,1904061.0,2385513.0,2027274.0,2125449.0,2198284.0,1934159.0,1979824.0,2042137.0,1808326.0,2079990.3636363635
6.28125,2059265.0,2422388.0,1903568.0,2383448.0,2021241.0,2125374.0,2208577.0,1934940.0,1980720.0,2042292.0,1807070.0,2080807.5454545454
6.296875,2068083.0,2423398.0,1903426.0,2382120.0,2018278.0,2125291.0,2224020.0,1934685.0,1982121.0,2042066.0,1805111.0,2082599.9090909092
6.3125,2077361.0,2427097.0,1903158.0,2381845.0,2016397.0,2125836.0,2235657.0,1932594.0,1984493.0,2042659.0,1803535.0,2084602.9090909092
6.328125,2081759.0,2425066.0,1903111.0,2381397.0,2015296.0,2125525.0,2243758.0,1930643.0,1987697.0,2042832.0,1801218.0,2085300.1818181819
6.34375,2085951.0,2428319.0,1903178.0,2380903.0,2015671.0,2125661.0,2249094.0,1928863.0,1990215.0,2043568.0,1800500.0,2086538.4545454546
6.359375,2089036.0,2428331.0,1903327.0,2380278.0,2016147.0,2126092.0,2249035.0,1927432.0,1991812.0,2043356.0,1799924.0,2086797.2727272727
6.375,2093428.0,2426277.0,1903447.0,2380261.0,2016587.0,2125882.0,2249411.0,1926705.0,1993115.0,2044233.0,1799557.0,2087173.0
6.390625,2093584.0,2423175.0,1903931.0,2381378.0,2016978.0,2126143.0,2252748.0,1926089.0,1993905.0,2045029.0,1798700.0,2087423.6363636365
6.40625,2093105.0,2424526.0,1903752.0,2382377.0,2017215.0,2126224.0,2256443.0,1926217.0,1994540.0,2046479.0,1798598.0,2088134.1818181819
6.421875,2093152.0,2422564.0,1902226.0,2383941.0,2017590.0,2126592.0,2255750.0,1926910.0,1994060.0,2045538.0,1798698.0,2087911.0
6.4375,2094699.0,2422763.0,1900378.0,2385385.0,2018538.0,2126605.0,2248673.0,1927152.0,1993367.0,2047996.0,1798960.0,2087683.2727272727
6.453125,2078143.0,2423484.0,1899835.0,2386389.0,2020227.0,2126884.0,2238081.0,1927836.0,1992616.0,2047218.0,1799211.0,2085447.6363636365
6.46875,2086447.0,2424454.0,1899199.0,2387141.0,2021557.0,2126603.0,2227976.0,1928198.0,1991878.0,2048727.0,1800155.0,2085666.8181818181
6.484375,2060698.0,2425062.0,1898658.0,2389885.0,2023690.0,2127074.0,2224115.0,1929273.0,1991929.0,2047178.0,1800806.0,2083488.0
6.5,2069280.0,2426579.0,1898367.0,2390402.0,2025364.0,2127347.0,2223368.0,1930188.0,1993358.0,2048120.0,1801982.0,2084941.3636363635
6.515625,2052633.0,2425960.0,1898502.0,2391200.0,2027210.0,2127468.0,2224972.0,1930266.0,1996368.0,2046527.0,1803168.0,2084024.9090909092
6.53125,2046525.0,2428014.0,1898024.0,2388989.0,2028776.0,2127278.0,2229309.0,1929412.0,1997817.0,2046279.0,1804177.0,2084054.5454545454
6.546875,2041430.0,2426988.0,1897882.0,2388085.0,2031028.0,2127078.0,2234542.0,1927682.0,1999357.0,2046435.0,1804147.0,2084059.4545454546
6.5625,2036937.0,2430258.0,1897651.0,2392354.0,2032653.0,2126962.0,2237837.0,1926158.0,2000985.0,2046818.0,1803209.0,2084711.0909090908
6.578125,2032510.0,2428819.0,1897562.0,2393026.0,2034344.0,2127035.0,2239178.0,1925460.0,2002911.0,2047823.0,1801967.0,2084603.1818181819
6.59375,2028398.0,2430369.0,1897926.0,2394068.0,2025329.0,2126774.0,2238936.0,1925346.0,2004540.0,2047503.0,1799150.0,2083485.3636363635
6.609375,2024851.0,2426340.0,1898484.0,2391572.0,2021088.0,2126949.0,2239844.0,1925768.0,2005345.0,2048709.0,1796656.0,2082327.8181818181
6.625,2021145.0,2428731.0,1898871.0,2386070.0,2019278.0,2127161.0,2237630.0,1926384.0,2005939.0,2048133.0,1795139.0,2081316.4545454546
6.640625,2018918.0,2424502.0,1899257.0,2380739.0,2018796.0,2127083.0,2237715.0,1927067.0,2006011.0,2049846.0,1794964.0,2080445.2727272727
6.65625,2016651.0,2423570.0,1899411.0,2378158.0,2019010.0,2127280.0,2237089.0,1928444.0,2006116.0,2050362.0,1794185.0,2080025.0909090908
6.671875,2014557.0,2423292.0,1899856.0,2376933.0,2020253.0,2127514.0,2237043.0,1929383.0,2006053.0,2052179.0,1795316.0,2080216.2727272727
6.6875,2012823.0,2423607.0,1900476.0,2376631.0,2020704.0,2127753.0,2237497.0,1930860.0,2005437.0,2051261.0,1797178.0,2080384.2727272727
6.703125,2011288.0,2424170.0,1899877.0,2376068.0,2020543.0,2127881.0,2238267.0,1932113.0,2005251.0,2053914.0,1797944.0,2080665.0909090908
6.71875,2009602.0,2425141.0,1897916.0,2376224.0,2019865.0,2127443.0,2238879.0,1933801.0,2005303.0,2052604.0,1798908.0,2080516.9090909092
6.734375,2008327.0,2425390.0,1896229.0,2376365.0,2020202.0,2128064.0,2239472.0,1934203.0,2004699.0,2055069.0,1799564.0,2080689.4545454546
6.75,2007027.0,2425779.0,1894461.0,2375079.0,2021125.0,2128537.0,2240144.0,1933474.0,2002218.0,2055200.0,1799804.0,2080258.9090909092
6.765625,2005953.0,2426522.0,1892693.0,2374558.0,2022514.0,2128268.0,2240923.0,1932186.0,2000440.0,2055006.0,1801234.0,2080027.0
6.78125,2004597.0,2427246.0,1891658.0,2374521.0,2024112.0,2128818.0,2241900.0,1931133.0,1998661.0,2055782.0,1800611.0,2079912.6363636365
6.796875,2005070.0,2427867.0,1890953.0,2376346.0,2025166.0,2128675.0,2243031.0,1930322.0,1996923.0,2057503.0,1801906.0,2080342.0
6.8125,2003575.0,2428673.0,1890380.0,2374919.0,2026853.0,2129113.0,2243772.0,1930490.0,1995204.0,2056650.0,1802671.0,2080209.0909090908
6.828125,2004360.0,2428680.0,1889715.0,2377462.0,2028697.0,2129319.0,2244018.0,1931209.0,1994153.0,2060382.0,1802801.0,2080981.4545454546
6.84375,2003404.0,2426451.0,1888959.0,2378655.0,2029839.0,2129625.0,2244379.0,1932126.0,1993174.0,2061621.0,1801429.0,2080878.3636363635
6.859375,2003097.0,2424218.0,1888580.0,2379747.0,2031540.0,2129901.0,2244126.0,1933119.0,1992107.0,2061717.0,1798426.0,2080598.0
6.875,2002232.0,2422299.0,1888100.0,2375411.0,2033445.0,2130100.0,2243967.0,1934147.0,1991176.0,2058437.0,1794836.0,2079468.1818181819
6.890625,1997305.0,2421587.0,1888175.0,2381272.0,2031586.0,2130339.0,2243349.0,1935367.0,1990792.0,2060632.0,1791027.0,2079221.0
6.90625,1990740.0,2421278.0,1888032.0,2383268.0,2024534.0,2129957.0,2242064.0,1936771.0,1990413.0,2058435.0,1788096.0,2077598.9090909092
6.921875,1985241.0,2421734.0,1887937.0,2386167.0,2018610.0,2129849.0,2242147.0,1938107.0,1990246.0,2056303.0,1786214.0,2076595.9090909092
6.9375,1981166.0,2422856.0,1888078.0,2389038.0,2015204.0,2129821.0,2243669.0,1940037.0,1990286.0,2061726.0,1784655.0,2076957.8181818181
6.953125,1977826.0,2424134.0,1887985.0,2391434.0,2013012.0,2129784.0,2248301.0,1941002.0,1990466.0,2064930.0,1783310.0,2077471.2727272727
6.96875,1974875.0,2425320.0,1887412.0,2393874.0,2012879.0,2129780.0,2253676.0,1940410.0,1990653.0,2059212.0,1781498.0,2077235.3636363635
6.984375,1972100.0,2426322.0,1886937.0,2395918.0,2013052.0,2129729.0,2260204.0,1939209.0,1990993.0,2067752.0,1779499.0,2078337.7272727273
7.0,1968922.0,2427408.0,1886387.0,2393808.0,2013369.0,2129901.0,2262910.0,1938343.0,1991266.0,2069826.0,1778144.0,2078207.6363636365
7.015625,1965250.0,2428945.0,1885610.0,2391587.0,2012998.0,2130110.0,2251219.0,1937518.0,1991250.0,2071396.0,1777390.0,2076661.1818181819
7.03125,1962025.0,2431002.0,1882836.0,2388908.0,2012082.0,2130128.0,2242498.0,1937731.0,1991684.0,2071752.0,1776531.0,2075197.9090909092
7.046875,1959508.0,2432181.0,1879778.0,2392891.0,2011741.0,2129623.0,2239432.0,1938603.0,1991667.0,2071906.0,1776538.0,2074897.0909090908
7.0625,1957565.0,2433839.0,1877381.0,2393711.0,2011767.0,2130179.0,2243102.0,1939987.0,1989861.0,2072212.0,1776875.0,2075134.4545454546
7.078125,1956461.0,2432590.0,1874807.0,2393537.0,2012652.0,2131050.0,2246158.0,1941192.0,1986588.0,2072527.0,1776450.0,2074910.1818181819
7.09375,1955738.0,2431404.0,1872213.0,2393494.0,2013682.0,2131563.0,2248352.0,1942782.0,1983757.0,2072869.0,1776375.0,2074748.0909090908
7.109375,1955485.0,2430240.0,1869913.0,2387580.0,2014542.0,2131645.0,2249893.0,1944003.0,1981732.0,2073412.0,1775646.0,2074008.2727272727
7.125,1955298.0,2429687.0,1868102.0,2389963.0,2015561.0,2131853.0,2251518.0,1944969.0,1979848.0,2073726.0,1773097.0,2073965.6363636365
7.140625,1969093.0,2429900.0,1866832.0,2387497.0,2016479.0,2131639.0,2251407.0,1946443.0,1978762.0,2071564.0,1769754.0,2074488.1818181819
7.15625,1977189.0,2430700.0,1864902.0,2393689.0,2017358.0,2131946.0,2248716.0,1947983.0,1977925.0,2071440.0,1766812.0,2075332.7272727273
7.171875,1985835.0,2432162.0,1864169.0,2390160.0,2018156.0,2131964.0,2247114.0,1948410.0,1977294.0,2073059.0,1764745.0,2075733.4545454546
7.1875,2006812.0,2432998.0,1863631.0,2394867.0,2019655.0,2132552.0,2245614.0,1947392.0,1976542.0,2074005.0,1762067.0,2077830.4545454546
7.203125,2018743.0,2434139.0,1863113.0,2396082.0,2020640.0,2132606.0,2242281.0,1945950.0,1976234.0,2075063.0,1761243.0,2078735.8181818181
7.21875,2038616.0,2435720.0,1862819.0,2397548.0,2019621.0,2133138.0,2240833.0,1945082.0,1975496.0,2074526.0,1760450.0,2080349.9090909092
7.234375,2062771.0,2436769.0,1862989.0,2398083.0,2010978.0,2133162.0,2241673.0,1943743.0,1975501.0,2075901.0,1759435.0,2081909.5454545454
7.25,2086705.0,2438629.0,1863033.0,2404429.0,2003313.0,2132983.0,2243623.0,1943521.0,1975564.0,2076433.0,1758735.0,2084269.8181818181
7.265625,2098589.0,2439946.0,1862986.0,2412231.0,1997291.0,2133148.0,2244452.0,1943384.0,1975677.0,2076944.0,1758011.0,2085696.2727272727
7.28125,2091617.0,2441482.0,1863591.0,2417314.0,1993897.0,2133185.0,2244710.0,1943864.0,1976069.0,2076974.0,1757700.0,2085491.1818181819
7.296875,2087675.0,2442854.0,1864146.0,2420768.0,1991234.0,2133263.0,2245444.0,1944615.0,1976416.0,2076292.0,1758162.0,2085533.5454545454
7.3125,2078027.0,2443583.0,1864846.0,2422343.0,1990015.0,2133457.0,2245895.0,1945312.0,1976989.0,2074979.0,1758783.0,2084929.9090909092
7.328125,2068954.0,2442366.0,1862869.0,2422264.0,1989402.0,2133461.0,2247099.0,1946435.0,1977496.0,2074039.0,1759600.0,2083998.6363636365
7.34375,2060929.0,2440054.0,1860207.0,2422099.0,1988313.0,2133201.0,2248186.0,1947630.0,1978224.0,2074016.0,1760484.0,2083031.1818181819
7.359375,2050102.0,2438083.0,1858564.0,2418592.0,1987033.0,2132813.0,2248896.0,1948642.0,1978571.0,2074359.0,1761323.0,2081543.4545454546
7.375,2042248.0,2437198.0,1856998.0,2410314.0,1986123.0,2132264.0,2250063.0,1949861.0,1978630.0,2074607.0,1762315.0,2080056.4545454546
7.390625,2037189.0,2437172.0,1855221.0,2404999.0,1985692.0,2131991.0,2249983.0,1949927.0,1976682.0,2073931.0,1763754.0,2078776.4545454546
7.40625,2029242.0,2437637.0,1854074.0,2402805.0,1985607.0,2132095.0,2248985.0,1948542.0,1974561.0,2075276.0,1763547.0,2077488.2727272727
7.421875,2017565.0,2438440.0,1853609.0,2402066.0,1986390.0,2131871.0,2247666.0,1947427.0,1973059.0,2074775.0,1761502.0,2075851.8181818181
7.4375,2005226.0,2439323.0,1852936.0,2401739.0,1987095.0,2131596.0,2247126.0,1945659.0,1971808.0,2076051.0,1758648.0,2074291.5454545454
7.453125,1997756.0,2440401.0,1852278.0,2401412.0,1988135.0,2131779.0,2246674.0,1945131.0,1971105.0,2075847.0,1756430.0,2073358.9090909092
7.46875,1990143.0,2441844.0,1852181.0,2401525.0,1989094.0,2131535.0,2245881.0,1944626.0,1971296.0,2076759.0,1755053.0,2072721.5454545454
7.484375,1981021.0,2442680.0,1852476.0,2400409.0,1990598.0,2131755.0,2245715.0,1944571.0,1971680.0,2078426.0,1753665.0,2072090.5454545454
7.5,1972857.0,2443710.0,1852471.0,2398676.0,1991580.0,2131449.0,2245157.0,1945010.0,1971962.0,2077270.0,1752789.0,2071175.5454545454
7.515625,1967353.0,2445304.0,1853440.0,2397035.0,1992968.0,2131907.0,2245558.0,1945142.0,1972345.0,2079037.0,1752984.0,2071188.4545454546
7.53125,1964436.0,2446405.0,1854671.0,2396295.0,1994302.0,2131962.0,2246147.0,1945620.0,1973085.0,2079629.0,1752548.0,2071372.7272727273
7.546875,1963961.0,2447072.0,1855264.0,2395923.0,1993656.0,2131837.0,2246879.0,1946702.0,1974082.0,2079896.0,1751991.0,2071569.3636363635
7.5625,1963171.0,2447312.0,1856409.0,2396522.0,1985706.0,2132366.0,2247123.0,1947224.0,1974550.0,2079450.0,1744568.0,2070400.0909090908
7.578125,1959840.0,2445529.0,1857386.0,2398215.0,1978045.0,2132367.0,2247217.0,1948116.0,1974680.0,2077227.0,1741326.0,2069086.1818181819
7.59375,1946866.0,2443139.0,1858427.0,2399040.0,1971936.0,2132509.0,2247909.0,1948537.0,1974324.0,2078493.0,1734731.0,2066901.0
7.609375,1938697.0,2441045.0,1859731.0,2399687.0,1968528.0,2132774.0,2247476.0,1948424.0,1974550.0,2076908.0,1726617.0,2064948.8181818181
7.625,1936706.0,2439770.0,1861073.0,2400061.0,1965778.0,2133128.0,2247245.0,1946917.0,1975244.0,2076925.0,1717255.0,2063645.6363636365
7.640625,1934437.0,2439691.0,1861158.0,2397312.0,1964403.0,2133426.0,2250138.0,1945645.0,1976182.0,2077230.0,1710019.0,2062694.6363636365
7.65625,1932135.0,2441040.0,1859645.0,2400468.0,1964257.0,2133470.0,2248787.0,1944276.0,1977069.0,2078485.0,1703201.0,2062075.7272727273
7.671875,1936845.0,2440091.0,1857799.0,2401002.0,1962681.0,2133875.0,2251927.0,1943271.0,1978109.0,2082162.0,1697378.0,2062285.4545454546
7.6875,1946888.0,2441464.0,1856240.0,2401556.0,1961666.0,2134012.0,2252987.0,1943182.0,1977800.0,2080317.0,1695843.0,2062905.0
7.703125,1953320.0,2442416.0,1854882.0,2401702.0,1960959.0,2134429.0,2252100.0,1943776.0,1975769.0,2084739.0,1695960.0,2063641.0909090908
7.71875,1959066.0,2442959.0,1853738.0,2401612.0,1960208.0,2134524.0,2253326.0,1944214.0,1974024.0,2083761.0,1694516.0,2063813.4545454546
7.734375,1962552.0,2445338.0,1853118.0,2400151.0,1960355.0,2134454.0,2253154.0,1945708.0,1972856.0,2085547.0,1695743.0,2064452.3636363635
7.75,1961605.0,2439613.0,1852750.0,2393308.0,1960959.0,2134386.0,2254914.0,1944893.0,1971700.0,2086252.0,1698940.0,2063574.5454545454
7.765625,1966847.0,2450998.0,1852586.0,2376372.0,1961438.0,2135105.0,2255623.0,1946538.0,1970688.0,2087666.0,1703092.0,2064268.4545454546
7.78125,1962928.0,2413605.0,1852116.0,2372010.0,1962387.0,2135288.0,2255825.0,1947805.0,1970301.0,2090879.0,1708403.0,2061049.7272727273
7.796875,1965851.0,2390985.0,1852059.0,2383796.0,1963321.0,2135697.0,2255563.0,1949035.0,1969992.0,2089164.0,1710703.0,2060560.5454545454
7.8125,1972832.0,2358366.0,1852301.0,2369710.0,1964854.0,2135722.0,2253155.0,1950278.0,1968953.0,2092785.0,1709057.0,2057092.0909090908
7.828125,1992869.0,2304145.0,1852569.0,2367837.0,1965671.0,2135875.0,2247510.0,1950208.0,1968205.0,2092444.0,1708333.0,2053242.3636363635
7.84375,2003095.0,2286167.0,1853137.0,2366761.0,1967041.0,2135505.0,2247884.0,1948996.0,1967970.0,2090462.0,1705450.0,2052042.5454545454
7.859375,2002098.0,2273636.0,1853699.0,2365457.0,1968584.0,2135465.0,2254425.0,1947673.0,1967908.0,2092039.0,1703398.0,2051307.4545454546
7.875,1999556.0,2262758.0,1854493.0,2366891.0,1968542.0,2135712.0,2259074.0,1946347.0,1968445.0,2088773.0,1702720.0,2050301.0
7.890625,1990171.0,2264294.0,1855217.0,2369567.0,1961313.0,2135823.0,2261159.0,1945331.0,1968555.0,2084171.0,1701924.0,2048865.9090909092
7.90625,1976213.0,2273616.0,1855943.0,2372376.0,1953122.0,2136151.0,2263096.0,1945485.0,1968981.0,2086670.0,1704447.0,2048736.3636363635
7.921875,1962174.0,2274053.0,1856575.0,2374540.0,1947005.0,2136294.0,2264144.0,1949994.0,1969516.0,2085969.0,1706660.0,2047902.1818181819
7.9375,1954166.0,2273348.0,1857461.0,2365952.0,1943559.0,2136269.0,2262963.0,1950417.0,1969812.0,2087173.0,1711354.0,2046588.5454545454
7.953125,1947502.0,2271663.0,1858384.0,2377185.0,1940892.0,2136575.0,2258093.0,1951344.0,1970487.0,2087206.0,1714706.0,2046730.6363636365
7.96875,1941837.0,2265056.0,1857872.0,2379718.0,1939933.0,2136628.0,2251271.0,1948720.0,1971439.0,2086777.0,1718718.0,2045269.9090909092
7.984375,1937264.0,2258141.0,1856072.0,2383351.0,1938782.0,2136816.0,2246119.0,1952285.0,1971859.0,2086307.0,1719214.0,2044200.9090909092
8.0,1933927.0,2254144.0,1853978.0,2385444.0,1937632.0,2137396.0,2241679.0,1953418.0,1971458.0,2085647.0,1719675.0,2043127.0909090908
8.015625,1933236.0,2248162.0,1852526.0,2386969.0,1935848.0,2137323.0,2238882.0,1953995.0,1969146.0,2085821.0,1719790.0,2041972.5454545454
8.03125,1934778.0,2239346.0,1851495.0,2387290.0,1934473.0,2137426.0,2236388.0,1947789.0,1966807.0,2085515.0,1719779.0,2040098.7272727273
8.046875,1940095.0,2241041.0,1850090.0,2387129.0,1934118.0,2137929.0,2233913.0,1946650.0,1965142.0,2085491.0,1726726.0,2040756.7272727273
8.0625,1952500.0,2245624.0,1849831.0,2386460.0,1934260.0,2137986.0,2231907.0,1952684.0,1963372.0,2086069.0,1736645.0,2043394.3636363635
8.078125,1962651.0,2258901.0,1849501.0,2385488.0,1934537.0,2138157.0,2229897.0,1950924.0,1961620.0,2086635.0,1746311.0,2045874.7272727273
8.09375,1963551.0,2263413.0,1848964.0,2384864.0,1935530.0,2138255.0,2229254.0,1949008.0,1960624.0,2086118.0,1747190.0,2046070.0909090908
8.109375,1956389.0,2270780.0,1848776.0,2384779.0,1936583.0,2138473.0,2228545.0,1947439.0,1959825.0,2086778.0,1744113.0,2045680.0
8.125,1945072.0,2275338.0,1848696.0,2384402.0,1937523.0,2138301.0,2227502.0,1947251.0,1959245.0,2083777.0,1744708.0,2044710.4545454546
8.140625,1928323.0,2253220.0,1848808.0,2378600.0,1938580.0,2138389.0,2226868.0,1947065.0,1958957.0,2084778.0,1746560.0,2040922.5454545454
8.15625,1927103.0,2273902.0,1849354.0,2369976.0,1939557.0,2137869.0,2226100.0,1947333.0,1958525.0,2083363.0,1750627.0,2042155.3636363635
8.171875,1932034.0,2267365.0,1849890.0,2362945.0,1941018.0,2137941.0,2225574.0,1947298.0,1958713.0,2083464.0,1755588.0,2041984.5454545454
8.1875,1935442.0,2261381.0,1850125.0,2358808.0,1941805.0,2137664.0,2224856.0,1947587.0,1958902.0,2083720.0,1760118.0,2041855.2727272727
8.203125,1939600.0,2258262.0,1850958.0,2353868.0,1937233.0,2137768.0,2223732.0,1946983.0,1959322.0,2083461.0,1763558.0,2041340.4545454546
8.21875,1941078.0,2257205.0,1851521.0,2356001.0,1929025.0,2137571.0,2222035.0,1948100.0,1959669.0,2084086.0,1765861.0,2041104.7272727273
8.234375,1940842.0,2262513.0,1852257.0,2352858.0,1921889.0,2137714.0,2217950.0,1948607.0,1960355.0,2083790.0,1767857.0,2040602.9090909092
8.25,1938184.0,2271271.0,1853010.0,2351638.0,1916832.0,2137579.0,2214415.0,1949279.0,1960923.0,2084248.0,1768980.0,2040578.0909090908
8.265625,1937573.0,2276954.0,1853818.0,2350044.0,1913769.0,2137606.0,2211318.0,1948287.0,1961989.0,2084718.0,1769925.0,2040545.5454545454
8.28125,1938548.0,2281780.0,1853378.0,2348263.0,1912149.0,2137768.0,2209205.0,1946747.0,1964427.0,2085160.0,1771663.0,2040826.1818181819
8.296875,1938562.0,2273606.0,1851295.0,2346607.0,1911308.0,2137606.0,2207562.0,1944071.0,1965738.0,2085978.0,1773956.0,2039662.6363636365
8.3125,1937467.0,2231148.0,1849656.0,2346106.0,1910282.0,2137821.0,2207623.0,1941842.0,1967063.0,2085985.0,1774467.0,2035405.4545454546
8.328125,1944627.0,2206247.0,1848150.0,2345779.0,1908775.0,2138008.0,2207288.0,1940408.0,1966897.0,2086652.0,1772374.0,2033200.4545454546
8.34375,1948589.0,2194329.0,1847231.0,2346251.0,1907532.0,2137937.0,2207085.0,1939015.0,1964839.0,2086247.0,1771240.0,2031845.0
8.359375,1957045.0,2184548.0,1846753.0,2346925.0,1907160.0,2138252.0,2208145.0,1938745.0,1963105.0,2087221.0,1769519.0,2031583.4545454546
8.375,1963572.0,2177221.0,1846351.0,2347764.0,1907673.0,2138688.0,2209077.0,1938132.0,1962112.0,2086200.0,1768074.0,2031351.2727272727
8.390625,1973884.0,2173046.0,1846215.0,2348966.0,1908578.0,2138673.0,2210901.0,1938037.0,1961255.0,2084875.0,1765654.0,2031825.8181818181
8.40625,1985007.0,2178763.0,1845734.0,2350063.0,1909756.0,2139030.0,2212652.0,1938168.0,1959894.0,2083671.0,1765872.0,2033510.0
8.421875,1989058.0,2198285.0,1845657.0,2351648.0,1911479.0,2139442.0,2215828.0,1938201.0,1959105.0,2083436.0,1765551.0,2036153.6363636365
8.4375,1998904.0,2210821.0,1845799.0,2353571.0,1912921.0,2139255.0,2218731.0,1938696.0,1959525.0,2083372.0,1764684.0,2038752.6363636365
8.453125,1998972.0,2174096.0,1846219.0,2355473.0,1914275.0,2139637.0,2221415.0,1939112.0,1959778.0,2083604.0,1763885.0,2036042.3636363635
8.46875,1992246.0,2217231.0,1846625.0,2357706.0,1915760.0,2139846.0,2221771.0,1939917.0,1960252.0,2084180.0,1763499.0,2039912.0909090908
8.484375,1982594.0,2222689.0,1847209.0,2360019.0,1918110.0,2139789.0,2221454.0,1939584.0,1960869.0,2084262.0,1763884.0,2040042.0909090908
8.5,1976974.0,2222156.0,1847888.0,2361047.0,1919743.0,2140071.0,2220798.0,1935702.0,1961515.0,2084433.0,1764352.0,2039516.2727272727
8.515625,1975208.0,2220694.0,1848616.0,2357114.0,1922053.0,2139887.0,2219531.0,1937962.0,1962420.0,2084831.0,1765755.0,2039461.0
8.53125,1974681.0,2218062.0,1849481.0,2350146.0,1917822.0,2140541.0,2219227.0,1933506.0,1963433.0,2085411.0,1766709.0,2038092.6363636365
8.546875,1972558.0,2214196.0,1850289.0,2344099.0,1909164.0,2140051.0,2219227.0,1931898.0,1964587.0,2084878.0,1767992.0,2036267.1818181819
8.5625,1971913.0,2207889.0,1850774.0,2341319.0,1901726.0,2141106.0,2218882.0,1930697.0,1965781.0,2085773.0,1769744.0,2035054.9090909092
8.578125,1971874.0,2203136.0,1849442.0,2340197.0,1896072.0,2141706.0,2217903.0,1930382.0,1967009.0,2086792.0,1771802.0,2034210.4545454546
8.59375,1971588.0,2199958.0,1847762.0,2339732.0,1891689.0,2142070.0,2215648.0,1930457.0,1968054.0,2087836.0,1773647.0,2033494.6363636365
8.609375,1971719.0,2202669.0,1846564.0,2339863.0,1888733.0,2140415.0,2212208.0,1930176.0,1969050.0,2088537.0,1775481.0,2033219.5454545454
8.625,1972603.0,2209557.0,1845320.0,2340223.0,1887425.0,2139678.0,2208128.0,1930410.0,1970475.0,2089528.0,1776784.0,2033648.2727272727
8.640625,1972796.0,2215289.0,1844670.0,2339983.0,1886622.0,2142066.0,2205039.0,1930551.0,1972249.0,2089575.0,1775831.0,2034061.0
8.65625,1970222.0,2210468.0,1844280.0,2338999.0,1885598.0,2141249.0,2203044.0,1931361.0,1973229.0,2089159.0,1774562.0,2032924.6363636365
8.671875,1965616.0,2217064.0,1844312.0,2338920.0,1884308.0,2144116.0,2201587.0,1931939.0,1973209.0,2089179.0,1773530.0,2033070.9090909092
8.6875,1961026.0,2201252.0,1844202.0,2339426.0,1884025.0,2146491.0,2200254.0,1932739.0,1971747.0,2089497.0,1772961.0,2031238.1818181819
8.703125,1956438.0,2192046.0,1844308.0,2340850.0,1885302.0,2147549.0,2199517.0,1932485.0,1970154.0,2089329.0,1773236.0,2030110.3636363635
8.71875,1952896.0,2194296.0,1844623.0,2342011.0,1884669.0,2147623.0,2198764.0,1933821.0,1969091.0,2089919.0,1773810.0,2030138.4545454546
8.734375,1949073.0,2200550.0,1844976.0,2343599.0,1886977.0,2147791.0,2197210.0,1928879.0,1968018.0,2089906.0,1774235.0,2030110.3636363635
8.75,1945987.0,2210843.0,1845557.0,2345592.0,1888790.0,2147802.0,2193178.0,1930849.0,1967151.0,2089598.0,1774763.0,2030919.0909090908
8.765625,1943986.0,2223216.0,1846220.0,2347508.0,1890587.0,2148114.0,2187691.0,1926611.0,1966925.0,2089887.0,1774953.0,2031427.0909090908
8.78125,1942517.0,2231846.0,1847258.0,2349425.0,1892665.0,2148205.0,2182595.0,1927238.0,1966399.0,2090956.0,1775435.0,2032230.8181818181
8.796875,1941660.0,2238035.0,1847874.0,2352008.0,1894820.0,2148721.0,2178415.0,1926695.0,1965750.0,2092173.0,1777488.0,2033058.0909090908
8.8125,1939910.0,2235176.0,1848671.0,2354892.0,1897060.0,2148989.0,2174958.0,1926407.0,1965632.0,2094528.0,1784719.0,2033722.0
8.828125,1938668.0,2238271.0,1849552.0,2359417.0,1899604.0,2149939.0,2172139.0,1926869.0,1965410.0,2096549.0,1798128.0,2035867.8181818181
8.84375,1937653.0,2217165.0,1850465.0,2363993.0,1902102.0,2149147.0,2169998.0,1927178.0,1965775.0,2098922.0,1804056.0,2035132.1818181819
8.859375,1936790.0,2199475.0,1851147.0,2368083.0,1903681.0,2150738.0,2168223.0,1927641.0,1966155.0,2100700.0,1803648.0,2034207.3636363635
8.875,1935793.0,2195323.0,1850284.0,2370790.0,1897875.0,2151455.0,2167144.0,1928801.0,1966830.0,2102722.0,1802785.0,2033618.3636363635
8.890625,1936165.0,2188901.0,1848262.0,2372511.0,1889841.0,2151729.0,2167340.0,1930396.0,1969093.0,2104084.0,1807414.0,2033248.7272727273
8.90625,1935688.0,2186757.0,1846837.0,2368282.0,1883175.0,2152122.0,2167698.0,1931858.0,1972683.0,2103418.0,1811972.0,2032771.8181818181
8.921875,1935521.0,2188504.0,1845347.0,2362652.0,1878804.0,2152351.0,2169334.0,1933090.0,1976125.0,2100964.0,1814993.0,2032516.8181818181
8.9375,1935675.0,2196570.0,1844129.0,2360692.0,1875255.0,2152546.0,2170591.0,1933006.0,1979147.0,2097765.0,1816075.0,2032859.1818181819
8.953125,1935764.0,2207739.0,1843510.0,2360783.0,1873340.0,2152660.0,2171933.0,1931344.0,1981780.0,2094047.0,1815225.0,2033465.9090909092
8.96875,1935982.0,2213783.0,1843149.0,2360777.0,1873067.0,2152321.0,2172711.0,1930299.0,1983598.0,2090599.0,1812599.0,2033535.0
8.984375,1936115.0,2214691.0,1842976.0,2360268.0,1872178.0,2152340.0,2172691.0,1929371.0,1985170.0,2091241.0,1810028.0,2033369.9090909092
9.0,1936508.0,2213623.0,1842846.0,2359481.0,1871912.0,2152224.0,2171901.0,1928777.0,1986110.0,2091453.0,1808140.0,2032997.7272727273
9.015625,1936952.0,2213081.0,1842870.0,2358272.0,1871682.0,2152165.0,2169472.0,1928679.0,1984980.0,2092117.0,1807338.0,2032509.8181818181
9.03125,1938002.0,2210670.0,1842907.0,2355978.0,1871961.0,2152254.0,2165879.0,1929268.0,1982927.0,2091795.0,1807102.0,2031703.9090909092
9.046875,1938943.0,2204158.0,1843441.0,2358584.0,1873574.0,2152367.0,2162637.0,1929471.0,1980564.0,2091547.0,1807535.0,2031165.5454545454
9.0625,1939690.0,2198878.0,1844408.0,2368760.0,1875327.0,2152419.0,2160457.0,1929858.0,1978960.0,2092134.0,1807856.0,2031704.2727272727
9.078125,1940509.0,2193767.0,1844843.0,2376597.0,1877282.0,2152387.0,2158843.0,1930907.0,1977428.0,2092572.0,1807905.0,2032094.5454545454
9.09375,1940929.0,2191247.0,1843895.0,2381664.0,1879816.0,2152380.0,2158137.0,1931388.0,1976387.0,2092480.0,1807544.0,2032351.5454545454
9.109375,1937471.0,2190083.0,1846056.0,2383956.0,1882458.0,2152860.0,2157559.0,1932293.0,1975974.0,2093253.0,1808123.0,2032735.0909090908
9.125,1933202.0,2194085.0,1845473.0,2383068.0,1884540.0,2152527.0,2157209.0,1933535.0,1976027.0,2094096.0,1808727.0,2032953.5454545454
9.140625,1929380.0,2201504.0,1847901.0,2381415.0,1890258.0,2152836.0,2156384.0,1934367.0,1975732.0,2094311.0,1808850.0,2033903.4545454546
9.15625,1926644.0,2206558.0,1848351.0,2379844.0,1892869.0,2153077.0,2155646.0,1934331.0,1975637.0,2094758.0,1809009.0,2034247.6363636365
9.171875,1923683.0,2209748.0,1846861.0,2380135.0,1895785.0,2152823.0,2155327.0,1932374.0,1976041.0,2094871.0,1808813.0,2034223.7272727273
9.1875,1921363.0,2206853.0,1847450.0,2380192.0,1887210.0,2152876.0,2156362.0,1930537.0,1976248.0,2093813.0,1809866.0,2032979.0909090908
9.203125,1919571.0,2178504.0,1843598.0,2380072.0,1894195.0,2153076.0,2156959.0,1929396.0,1976872.0,2092309.0,1810345.0,2030445.1818181819
9.21875,1918159.0,2141821.0,1840890.0,2380410.0,1887432.0,2153063.0,2157857.0,1928172.0,1977225.0,2091098.0,1811093.0,2026110.9090909092
9.234375,1916886.0,2117903.0,1840048.0,2380763.0,1880933.0,2153986.0,2158570.0,1927749.0,1977439.0,2090207.0,1811943.0,2023311.5454545454
9.25,1915304.0,2103303.0,1839836.0,2381442.0,1876769.0,2153444.0,2158653.0,1927737.0,1977995.0,2089565.0,1812836.0,2021534.9090909092
9.265625,1914120.0,2095544.0,1845163.0,2382254.0,1874067.0,2153777.0,2155720.0,1928263.0,1978201.0,2089714.0,1813835.0,2020968.9090909092
9.28125,1913375.0,2108945.0,1842350.0,2382950.0,1872896.0,2154227.0,2151678.0,1928703.0,1978918.0,2089671.0,1811878.0,2021417.3636363635
9.296875,1912984.0,2095704.0,1839508.0,2383196.0,1872942.0,2154425.0,2148231.0,1929201.0,1979667.0,2089374.0,1810238.0,2019588.1818181819
9.3125,1912407.0,2135348.0,1839874.0,2379801.0,1873147.0,2154451.0,2144624.0,1929892.0,1980749.0,2089082.0,1807583.0,2022450.7272727273
9.328125,1912814.0,2159740.0,1839501.0,2371448.0,1872826.0,2154876.0,2141464.0,1930964.0,1981904.0,2088728.0,1805441.0,2023609.6363636365
9.34375,1912952.0,2171910.0,1840617.0,2362951.0,1872664.0,2154800.0,2139130.0,1931868.0,1981998.0,2089054.0,1803973.0,2023810.6363636365
9.359375,1913611.0,2195872.0,1841349.0,2358105.0,1873297.0,2154992.0,2137218.0,1933380.0,1980389.0,2088913.0,1802855.0,2025452.8181818181
9.375,1914287.0,2183434.0,1842052.0,2355957.0,1874914.0,2155097.0,2134708.0,1933886.0,1978892.0,2089342.0,1802088.0,2024059.7272727273
9.390625,1914993.0,2204071.0,1844429.0,2354603.0,1876903.0,2153511.0,2132901.0,1932984.0,1977985.0,2089861.0,1801373.0,2025783.0909090908
9.40625,1915375.0,2207045.0,1842819.0,2353420.0,1879304.0,2152667.0,2131929.0,1931064.0,1977550.0,2090327.0,1800678.0,2025652.5454545454
9.421875,1916547.0,2203354.0,1843583.0,2353113.0,1881460.0,2152676.0,2131397.0,1929662.0,1976867.0,2090867.0,1800207.0,2025430.2727272727
9.4375,1917181.0,2196473.0,1845156.0,2352177.0,1884010.0,2152785.0,2131264.0,1928251.0,1976018.0,2090990.0,1799887.0,2024926.5454545454
9.453125,1918292.0,2183430.0,1845985.0,2350796.0,1886400.0,2153097.0,2130505.0,1927473.0,1976125.0,2090262.0,1800316.0,2023880.0909090908
9.46875,1919433.0,2167286.0,1846838.0,2349567.0,1888755.0,2152702.0,2129849.0,1927553.0,1976240.0,2088603.0,1801098.0,2022538.5454545454
9.484375,1920663.0,2149934.0,1847457.0,2348567.0,1891361.0,2152576.0,2128804.0,1928082.0,1976204.0,2086966.0,1802365.0,2021179.9090909092
9.5,1922020.0,2140646.0,1845501.0,2348962.0,1894300.0,2152453.0,2126016.0,1928280.0,1976794.0,2086245.0,1802885.0,2020372.9090909092
9.515625,1923487.0,2209022.0,1842882.0,2349900.0,1897428.0,2152485.0,2119822.0,1928980.0,1978832.0,2085712.0,1803797.0,2026577.0
9.53125,1924825.0,2144793.0,1844072.0,2351120.0,1900086.0,2152643.0,2112348.0,1930105.0,1980825.0,2085581.0,1804841.0,2021021.7272727273
9.546875,1926462.0,2158166.0,1846835.0,2352068.0,1897713.0,2152438.0,2105371.0,1931248.0,1982776.0,2085987.0,1805294.0,2022214.3636363635
9.5625,1926128.0,2183850.0,1841849.0,2353260.0,1890593.0,2152727.0,2099949.0,1932061.0,1984414.0,2086054.0,1806613.0,2023408.9090909092
9.578125,1922739.0,2172451.0,1841189.0,2354235.0,1884370.0,2152924.0,2095505.0,1933782.0,1986631.0,2085980.0,1807246.0,2021550.1818181819
9.59375,1919200.0,2180838.0,1841343.0,2355338.0,1880163.0,2153278.0,2091676.0,1935026.0,1988871.0,2085930.0,1807203.0,2021715.0909090908
9.609375,1916531.0,2169336.0,1841171.0,2356489.0,1877366.0,2153756.0,2088761.0,1935309.0,1990584.0,2086680.0,1805269.0,2020113.8181818181
9.625,1914588.0,2154425.0,1841068.0,2357746.0,1875615.0,2153765.0,2086807.0,1934164.0,1992064.0,2087732.0,1802498.0,2018224.7272727273
9.640625,1913191.0,2180826.0,1841103.0,2359086.0,1875006.0,2153976.0,2085005.0,1932440.0,1993330.0,2086044.0,1799603.0,2019964.5454545454
9.65625,1911605.0,2149479.0,1841370.0,2361111.0,1875595.0,2154595.0,2083741.0,1930613.0,1994634.0,2088579.0,1797067.0,2017126.2727272727
9.671875,1911050.0,2143743.0,1843761.0,2363462.0,1875691.0,2154451.0,2083222.0,1928885.0,1994554.0,2089627.0,1796430.0,2016806.9090909092
9.6875,1910646.0,2135095.0,1845084.0,2364867.0,1875573.0,2154653.0,2083655.0,1928468.0,1993309.0,2090665.0,1795320.0,2016121.3636363635
9.703125,1910482.0,2122900.0,1846684.0,2362058.0,1875931.0,2154879.0,2084168.0,1928301.0,1991508.0,2091060.0,1794850.0,2014801.9090909092
9.71875,1909850.0,2110874.0,1842266.0,2359216.0,1877376.0,2155020.0,2085677.0,1928646.0,1990413.0,2090763.0,1794024.0,2013102.2727272727
9.734375,1909701.0,2102260.0,1848694.0,2358787.0,1879097.0,2155074.0,2086068.0,1929111.0,1989665.0,2090925.0,1793425.0,2012982.4545454546
9.75,1909826.0,2098722.0,1851340.0,2359909.0,1881214.0,2155411.0,2086854.0,1929796.0,1988667.0,2091563.0,1792799.0,2013281.9090909092
9.765625,1910207.0,2100537.0,1857530.0,2361504.0,1883906.0,2155336.0,2085860.0,1930603.0,1988506.0,2091499.0,1792600.0,2014371.6363636365
9.78125,1911007.0,2102495.0,1864582.0,2363228.0,1886309.0,2155303.0,2081831.0,1931347.0,1987839.0,2087127.0,1792941.0,2014909.9090909092
9.796875,1911596.0,2105642.0,1869047.0,2365594.0,1888772.0,2155760.0,2075793.0,1932863.0,1986936.0,2091692.0,1793265.0,2016087.2727272727
9.8125,1912585.0,2105450.0,1870751.0,2367219.0,1891496.0,2155259.0,2069498.0,1934170.0,1986316.0,2091585.0,1793990.0,2016210.8181818181
9.828125,1913525.0,2103992.0,1870388.0,2366888.0,1894391.0,2155221.0,2063847.0,1935618.0,1986191.0,2091280.0,1794734.0,2016006.8181818181
9.84375,1914793.0,2108936.0,1869568.0,2367575.0,1897357.0,2155514.0,2060280.0,1935611.0,1985913.0,2089987.0,1795455.0,2016453.5454545454
9.859375,1916055.0,2107058.0,1868390.0,2367876.0,1900590.0,2155665.0,2057421.0,1934710.0,1986179.0,2088791.0,1795418.0,2016195.7272727273
9.875,1917429.0,2111479.0,1867311.0,2375948.0,1903940.0,2155778.0,2055499.0,1933256.0,1986622.0,2090985.0,1796131.0,2017670.7272727273
9.890625,1918710.0,2113606.0,1866716.0,2385117.0,1905235.0,2155581.0,2054074.0,1932259.0,1986926.0,2088554.0,1797201.0,2018543.5454545454
9.90625,1920281.0,2113960.0,1866639.0,2391133.0,1901515.0,2155625.0,2053260.0,1931815.0,1987487.0,2093040.0,1796878.0,2019239.3636363635
9.921875,1921775.0,2114849.0,1865211.0,2394898.0,1895814.0,2155850.0,2052163.0,1932219.0,1988071.0,2091961.0,1795267.0,2018916.1818181819
9.9375,1923494.0,2114515.0,1865848.0,2397267.0,1891862.0,2156176.0,2052397.0,1932119.0,1988729.0,2092784.0,1793068.0,2018932.6363636365
9.953125,1924812.0,2111912.0,1865357.0,2398123.0,1889608.0,2156472.0,2052725.0,1932801.0,1989209.0,2093394.0,1790257.0,2018606.3636363635
9.96875,1926753.0,2110022.0,1865752.0,2397554.0,1889133.0,2156734.0,2053899.0,1933352.0,1989739.0,2091641.0,1788592.0,2018470.0909090908
9.984375,1928182.0,2108344.0,1865953.0,2396854.0,1890275.0,2156699.0,2055440.0,1933890.0,1990178.0,2091995.0,1787313.0,2018647.5454545454
10.0,1930013.0,2107326.0,1866755.0,2396555.0,1891724.0,2157094.0,2056649.0,1934622.0,1989481.0,2086632.0,1786707.0,2018505.2727272727
10.015625,1931662.0,2106887.0,1866926.0,2396558.0,1892783.0,2157372.0,2058719.0,1935464.0,1987043.0,2089550.0,1785886.0,2018986.3636363635
10.03125,1930920.0,2107846.0,1865240.0,2396292.0,1893104.0,2157619.0,2060620.0,1936992.0,1984544.0,2084600.0,1784979.0,2018432.3636363635
10.046875,1928324.0,2108908.0,1867505.0,2396505.0,1893369.0,2157667.0,2060765.0,1938629.0,1982409.0,2082881.0,1784091.0,2018277.5454545454
10.0625,1925521.0,2112090.0,1868111.0,2396910.0,1894418.0,2157940.0,2058117.0,1940166.0,1980684.0,2082881.0,1783491.0,2018211.7272727273
10.078125,1924093.0,2113349.0,1868587.0,2397312.0,1896220.0,2158308.0,2049283.0,1939931.0,1978940.0,2081702.0,1783170.0,2017354.0909090908
10.09375,1923391.0,2114739.0,1868606.0,2394817.0,1897942.0,2158257.0,2054449.0,1939206.0,1977377.0,2081319.0,1783271.0,2017579.4545454546
10.109375,1922487.0,2117413.0,1865144.0,2386124.0,1899937.0,2158743.0,2046290.0,1938889.0,1976325.0,2080443.0,1783771.0,2015960.5454545454
10.125,1922299.0,2119055.0,1863948.0,2379239.0,1902360.0,2159178.0,2043844.0,1938119.0,1975215.0,2079822.0,1784201.0,2015207.2727272727
10.140625,1922348.0,2119268.0,1862844.0,2375361.0,1904860.0,2159118.0,2042656.0,1938421.0,1974329.0,2079080.0,1785161.0,2014858.7272727273
10.15625,1922542.0,2110409.0,1862219.0,2374717.0,1907170.0,2158582.0,2042336.0,1938719.0,1973808.0,2078659.0,1785891.0,2014095.6363636365
10.171875,1922309.0,2119194.0,1861999.0,2375247.0,1909479.0,2158167.0,2041903.0,1939440.0,1973683.0,2078502.0,1786253.0,2015106.9090909092
10.1875,1922118.0,2119194.0,1861678.0,2375620.0,1911953.0,2158615.0,2041485.0,1940411.0,1973636.0,2078779.0,1786137.0,2015420.5454545454
10.203125,1922582.0,2119748.0,1861443.0,2376603.0,1914465.0,2160112.0,2040581.0,1941197.0,1973691.0,2078893.0,1784551.0,2015806.0
10.21875,1923185.0,2120470.0,1861022.0,2377076.0,1917731.0,2160670.0,2040358.0,1942189.0,1974255.0,2079119.0,1781915.0,2016180.9090909092
10.234375,1923933.0,2121814.0,1861200.0,2377117.0,1920125.0,2161162.0,2041510.0,1943618.0,1974742.0,2079508.0,1779295.0,2016729.4545454546
10.25,1925119.0,2123468.0,1866630.0,2377089.0,1917493.0,2161251.0,2039623.0,1945333.0,1975406.0,2079054.0,1777346.0,2017073.8181818181
10.265625,1925924.0,2125466.0,1861723.0,2377101.0,1911252.0,2160896.0,2033352.0,1947171.0,1975888.0,2079975.0,1774849.0,2015781.5454545454
10.28125,1927179.0,2126905.0,1862923.0,2378146.0,1905922.0,2161121.0,2023748.0,1948443.0,1976795.0,2079731.0,1774008.0,2014992.8181818181
10.296875,1928482.0,2128706.0,1863427.0,2379701.0,1903140.0,2160794.0,2014284.0,1948387.0,1977961.0,2078349.0,1773026.0,2014205.1818181819
10.3125,1929641.0,2130876.0,1864089.0,2381681.0,1900919.0,2160947.0,2006145.0,1947811.0,1978701.0,2075980.0,1771777.0,2013506.0909090908
10.328125,1930725.0,2132984.0,1864426.0,2383525.0,1900228.0,2160939.0,2003535.0,1946477.0,1978684.0,2074311.0,1770145.0,2013270.8181818181
10.34375,1932098.0,2135275.0,1864843.0,2385442.0,1900402.0,2160611.0,1999422.0,1945827.0,1976626.0,2073274.0,1769629.0,2013040.8181818181
10.359375,1933617.0,2137317.0,1865179.0,2387362.0,1900762.0,2160917.0,1995794.0,1945562.0,1975030.0,2072405.0,1769003.0,2012995.2727272727
10.375,1935009.0,2138430.0,1863482.0,2388795.0,1900789.0,2160983.0,1992642.0,1945780.0,1974009.0,2072089.0,1768921.0,2012811.7272727273
10.390625,1936423.0,2138193.0,1861441.0,2390700.0,1900773.0,2161061.0,1988928.0,1946413.0,1973510.0,2071865.0,1769203.0,2012591.8181818181
10.40625,1938254.0,2136836.0,1862349.0,2391978.0,1901774.0,2160967.0,1986621.0,1947403.0,1972705.0,2071789.0,1769749.0,2012765.9090909092
10.421875,1939616.0,2135864.0,1859731.0,2394014.0,1902959.0,2161495.0,1987435.0,1948266.0,1972634.0,2071302.0,1770297.0,2013055.7272727273
10.4375,1941366.0,2134651.0,1858063.0,2395887.0,1905097.0,2161954.0,1986540.0,1949166.0,1972453.0,2071141.0,1771245.0,2013414.8181818181
10.453125,1943208.0,2134647.0,1856628.0,2397652.0,1907341.0,2162399.0,1985665.0,1950510.0,1972609.0,2071261.0,1772337.0,2014023.3636363635
10.46875,1944666.0,2135427.0,1855672.0,2399958.0,1909491.0,2162460.0,1984319.0,1951634.0,1973329.0,2071624.0,1772602.0,2014652.9090909092
10.484375,1945120.0,2136533.0,1855326.0,2401764.0,1911518.0,2162445.0,1983901.0,1953181.0,1974206.0,2071957.0,1771663.0,2015237.6363636365
10.5,1943270.0,2137174.0,1854807.0,2403841.0,1913823.0,2162665.0,1983375.0,1954626.0,1975082.0,2072811.0,1769231.0,2015518.6363636365
10.515625,1940162.0,2138209.0,1854813.0,2401940.0,1916265.0,2162801.0,1984171.0,1954716.0,1976378.0,2072596.0,1766197.0,2015295.2727272727
10.53125,1937986.0,2138972.0,1854800.0,2395375.0,1918458.0,2163047.0,1991796.0,1953509.0,1977935.0,2073294.0,1763034.0,2015291.4545454546
10.546875,1936763.0,2139802.0,1854617.0,2393217.0,1921113.0,2162920.0,2002692.0,1952109.0,1979403.0,2073715.0,1760937.0,2016117.0909090908
10.5625,1935647.0,2141076.0,1855003.0,2392506.0,1924308.0,2163307.0,2011151.0,1950617.0,1980415.0,2074105.0,1759223.0,2017032.5454545454
10.578125,1934797.0,2142941.0,1855605.0,2394976.0,1927173.0,2163812.0,2012497.0,1949873.0,1981169.0,2072793.0,1757480.0,2017556.0
10.59375,1934189.0,2145828.0,1856107.0,2396795.0,1925309.0,2163739.0,2008788.0,1949303.0,1982118.0,2072292.0,1755929.0,2017308.8181818181
10.609375,1933950.0,2149102.0,1856807.0,2397558.0,1919136.0,2163791.0,2011680.0,1949335.0,1983568.0,2073162.0,1754767.0,2017532.3636363635
10.625,1934249.0,2152658.0,1857341.0,2399527.0,1913543.0,2164209.0,2020451.0,1949575.0,1984643.0,2074540.0,1754246.0,2018634.7272727273
10.640625,1933371.0,2159240.0,1858238.0,2400825.0,1910322.0,2163934.0,2027747.0,1949872.0,1983824.0,2077643.0,1755337.0,2020032.0909090908
10.65625,1933304.0,2173114.0,1858844.0,2401391.0,1907976.0,2163584.0,2030155.0,1950432.0,1981792.0,2078343.0,1756263.0,2021381.6363636365
10.671875,1933318.0,2189271.0,1859017.0,2401949.0,1906167.0,2163707.0,2033982.0,1951154.0,1979820.0,2078142.0,1756214.0,2022976.4545454546
10.6875,1933642.0,2201678.0,1853284.0,2402127.0,1905991.0,2163780.0,2038110.0,1952639.0,1978535.0,2077666.0,1756660.0,2024010.1818181819
10.703125,1934200.0,2211383.0,1851642.0,2403994.0,1905972.0,2163960.0,2037174.0,1953853.0,1977252.0,2077051.0,1757330.0,2024891.9090909092
10.71875,1934969.0,2217383.0,1857413.0,2405827.0,1905406.0,2163586.0,2031745.0,1955307.0,1976059.0,2076376.0,1757679.0,2025613.6363636365
10.734375,1935812.0,2217849.0,1855061.0,2407271.0,1905005.0,2163861.0,2033985.0,1955650.0,1975201.0,2080510.0,1758392.0,2026236.0909090908
10.75,1936628.0,2210836.0,1850316.0,2409278.0,1905261.0,2164019.0,2045298.0,1954230.0,1974413.0,2076276.0,1759457.0,2026001.0909090908
10.765625,1937743.0,2207965.0,1849205.0,2411967.0,1905948.0,2164073.0,2054450.0,1952523.0,1973155.0,2082859.0,1759936.0,2027256.7272727273
10.78125,1938537.0,2210285.0,1848364.0,2415373.0,1907647.0,2164150.0,2061028.0,1950680.0,1972181.0,2081317.0,1758871.0,2028039.3636363635
10.796875,1939726.0,2212781.0,1849022.0,2418507.0,1909479.0,2164358.0,2066670.0,1949043.0,1971194.0,2082393.0,1756632.0,2029073.1818181819
10.8125,1940827.0,2215186.0,1848155.0,2421303.0,1910940.0,2164582.0,2071536.0,1948276.0,1970881.0,2082845.0,1754842.0,2029943.0
10.828125,1941766.0,2217346.0,1847935.0,2422967.0,1913043.0,2164310.0,2075554.0,1947812.0,1970397.0,2082127.0,1752636.0,2030535.7272727273
10.84375,1943243.0,2221074.0,1848167.0,2422628.0,1915172.0,2164324.0,2077252.0,1947523.0,1970001.0,2077873.0,1751226.0,2030771.1818181819
10.859375,1944350.0,2223105.0,1848243.0,2423345.0,1916919.0,2164713.0,2077250.0,1947081.0,1969668.0,2080437.0,1750624.0,2031430.4545454546
10.875,1946039.0,2221778.0,1848715.0,2422896.0,1919035.0,2165060.0,2075383.0,1946582.0,1969093.0,2074428.0,1750259.0,2030842.5454545454
10.890625,1947203.0,2221560.0,1849529.0,2421687.0,1921152.0,2164963.0,2073885.0,1946758.0,1969324.0,2075683.0,1749734.0,2031043.4545454546
10.90625,1948266.0,2222484.0,1849828.0,2415582.0,1924079.0,2165461.0,2071889.0,1947288.0,1969775.0,2072798.0,1749510.0,2030632.7272727273
10.921875,1949582.0,2218963.0,1850302.0,2406615.0,1926454.0,2165782.0,2069260.0,1947708.0,1969880.0,2073478.0,1749432.0,2029768.7272727273
10.9375,1950425.0,2217985.0,1851119.0,2402538.0,1926561.0,2166187.0,2064466.0,1948372.0,1970287.0,2071738.0,1749891.0,2029051.7272727273
10.953125,1950931.0,2217985.0,1851585.0,2402335.0,1920656.0,2166859.0,2059746.0,1948756.0,1968867.0,2072289.0,1750210.0,2028201.7272727273
10.96875,1951094.0,2218590.0,1852148.0,2402929.0,1913765.0,2167026.0,2057488.0,1948132.0,1966150.0,2071548.0,1751154.0,2027274.9090909092
10.984375,1948278.0,2221007.0,1852959.0,2403019.0,1908830.0,2167096.0,2056331.0,1946155.0,1963641.0,2070674.0,1752922.0,2026446.5454545454
11.0,1944117.0,2223512.0,1852058.0,2403295.0,1906353.0,2167390.0,2055654.0,1944535.0,1961533.0,2070601.0,1754539.0,2025780.6363636365
11.015625,1940801.0,2228024.0,1850176.0,2403043.0,1904205.0,2167774.0,2053385.0,1942879.0,1959087.0,2070791.0,1755775.0,2025085.4545454546
11.03125,1938573.0,2233061.0,1848219.0,2402779.0,1903634.0,2168194.0,2050144.0,1942094.0,1956887.0,2070951.0,1757008.0,2024685.8181818181
11.046875,1930327.0,2237425.0,1846519.0,2401912.0,1903603.0,2168106.0,2046780.0,1942087.0,1955645.0,2071747.0,1758355.0,2023864.1818181819
11.0625,1921469.0,2241075.0,1844982.0,2401146.0,1903658.0,2168238.0,2043971.0,1941947.0,1954366.0,2071853.0,1759462.0,2022924.2727272727
11.078125,1914095.0,2243459.0,1843848.0,2401760.0,1903237.0,2168263.0,2042904.0,1942350.0,1953367.0,2071798.0,1759289.0,2022215.4545454546
11.09375,1910524.0,2244634.0,1843366.0,2402700.0,1902718.0,2168232.0,2042656.0,1943090.0,1952008.0,2072059.0,1756725.0,2021701.0909090908
11.109375,1911009.0,2244591.0,1842545.0,2403661.0,1903452.0,2168421.0,2041630.0,1943956.0,1951136.0,2072147.0,1754903.0,2021586.4545454546
11.125,1917071.0,2242455.0,1841794.0,2404564.0,1904671.0,2168649.0,2040049.0,1944676.0,1950778.0,2068120.0,1753061.0,2021444.3636363635
11.140625,1926717.0,2240766.0,1841485.0,2405380.0,1906111.0,2168606.0,2038389.0,1946036.0,1950354.0,2070316.0,1751767.0,2022357.0
11.15625,1936479.0,2239443.0,1841072.0,2408379.0,1908219.0,2168588.0,2037822.0,1947362.0,1950529.0,2064891.0,1751610.0,2023126.7272727273
11.171875,1945880.0,2238795.0,1841367.0,2409988.0,1910239.0,2168450.0,2039033.0,1948956.0,1950725.0,2066400.0,1751591.0,2024674.9090909092
11.1875,1956195.0,2239213.0,1841399.0,2406828.0,1912562.0,2168897.0,2040231.0,1949005.0,1950792.0,2063612.0,1751042.0,2025434.1818181819
11.203125,1965554.0,2239738.0,1841964.0,2411810.0,1914687.0,2168953.0,2043286.0,1948212.0,1951183.0,2063575.0,1750698.0,2027241.8181818181
11.21875,1977659.0,2241260.0,1842379.0,2413091.0,1916766.0,2169088.0,2046579.0,1946568.0,1952321.0,2063152.0,1750869.0,2029066.5454545454
11.234375,1988659.0,2242206.0,1842914.0,2411061.0,1919493.0,2169359.0,2050410.0,1945575.0,1953417.0,2063038.0,1751020.0,2030650.1818181819
11.25,1998397.0,2242213.0,1843326.0,2404498.0,1921723.0,2169136.0,2055763.0,1944633.0,1953774.0,2062990.0,1751701.0,2031650.3636363635
11.265625,2007100.0,2242276.0,1844084.0,2398534.0,1924743.0,2169541.0,2061884.0,1944787.0,1952944.0,2064043.0,1752178.0,2032919.4545454546
11.28125,2013954.0,2242750.0,1844748.0,2396002.0,1924514.0,2169764.0,2067592.0,1944894.0,1951801.0,2063064.0,1753330.0,2033855.7272727273
11.296875,2019197.0,2243403.0,1845130.0,2395299.0,1918254.0,2170211.0,2072321.0,1945874.0,1951667.0,2063481.0,1754323.0,2034469.0909090908
11.3125,2023369.0,2243834.0,1843742.0,2395306.0,1911454.0,2170317.0,2076988.0,1946363.0,1951453.0,2063738.0,1755284.0,2034713.4545454546
11.328125,2028236.0,2244354.0,1841595.0,2396335.0,1906586.0,2170577.0,2081421.0,1947366.0,1950564.0,2064622.0,1756197.0,2035259.3636363635
11.34375,2033865.0,2242267.0,1840349.0,2397415.0,1903620.0,2170557.0,2087353.0,1948372.0,1949889.0,2064858.0,1756353.0,2035899.8181818181
11.359375,2039488.0,2237523.0,1839008.0,2398303.0,1901654.0,2171034.0,2090935.0,1949315.0,1949307.0,2065268.0,1756661.0,2036226.9090909092
11.375,2046311.0,2233048.0,1838286.0,2397927.0,1902500.0,2171215.0,2090974.0,1950551.0,1949121.0,2065839.0,1756809.0,2036598.2727272727
11.390625,2052531.0,2229759.0,1838060.0,2397854.0,1903120.0,2171366.0,2089877.0,1952058.0,1948108.0,2065612.0,1756043.0,2036762.5454545454
11.40625,2059744.0,2227520.0,1837701.0,2398691.0,1902446.0,2171425.0,2091198.0,1952239.0,1947502.0,2064853.0,1754063.0,2037034.7272727273
11.421875,2066843.0,2225155.0,1837352.0,2399780.0,1902038.0,2171661.0,2092587.0,1950791.0,1947145.0,2067777.0,1752188.0,2037574.2727272727
11.4375,2072706.0,2223462.0,1837014.0,2404614.0,1902851.0,2171685.0,2095206.0,1949341.0,1947214.0,2069602.0,1750627.0,2038574.7272727273
11.453125,2077499.0,2221986.0,1837062.0,2408507.0,1905549.0,2171498.0,2097881.0,1947512.0,1947426.0,2066314.0,1748369.0,2039054.8181818181
11.46875,2079733.0,2221356.0,1837435.0,2401984.0,1909235.0,2171361.0,2098181.0,1946735.0,1947949.0,2064583.0,1747882.0,2038766.7272727273
11.484375,2083334.0,2220195.0,1837885.0,2412030.0,1912214.0,2171448.0,2095206.0,1946831.0,1948463.0,2066088.0,1747990.0,2040153.0909090908
11.5,2088557.0,2219561.0,1838534.0,2414575.0,1914322.0,2171374.0,2094000.0,1947495.0,1948769.0,2071756.0,1747777.0,2041520.0
11.515625,2093724.0,2219487.0,1839199.0,2417763.0,1916418.0,2171371.0,2095340.0,1948482.0,1949247.0,2072727.0,1747742.0,2042863.6363636365
11.53125,2099138.0,2219467.0,1839740.0,2411595.0,1918564.0,2171615.0,2095923.0,1949048.0,1949612.0,2072989.0,1747508.0,2043199.9090909092
11.546875,2104647.0,2219669.0,1840440.0,2403926.0,1920746.0,2171402.0,2096148.0,1949715.0,1949833.0,2072582.0,1747740.0,2043349.8181818181
11.5625,2110611.0,2219814.0,1841063.0,2399885.0,1922932.0,2171561.0,2093960.0,1950316.0,1950011.0,2071912.0,1749446.0,2043773.7272727273
11.578125,2116249.0,2219805.0,1841521.0,2399111.0,1925367.0,2171630.0,2093187.0,1951212.0,1950198.0,2074228.0,1750854.0,2044851.0909090908
11.59375,2121323.0,2217819.0,1840267.0,2416420.0,1927894.0,2171840.0,2094443.0,1951895.0,1948743.0,2076987.0,1750854.0,2047135.0
11.609375,2126604.0,2214311.0,1838424.0,2400186.0,1930330.0,2172103.0,2094119.0,1952443.0,1946255.0,2079487.0,1752429.0,2046062.8181818181
11.625,2131400.0,2211069.0,1836800.0,2400784.0,1929276.0,2172018.0,2093106.0,1952892.0,1943695.0,2082717.0,1753693.0,2046131.8181818181
11.640625,2136001.0,2207932.0,1835628.0,2402471.0,1922621.0,2172306.0,2092745.0,1951643.0,1941709.0,2081547.0,1755663.0,2045478.7272727273
11.65625,2140868.0,2206206.0,1834266.0,2403171.0,1916466.0,2172361.0,2093701.0,1949710.0,1940290.0,2083177.0,1757194.0,2045219.0909090908
11.671875,2145937.0,2205151.0,1833650.0,2403071.0,1912632.0,2172580.0,2096821.0,1948186.0,1938892.0,2084028.0,1758815.0,2045433.0
11.6875,2150162.0,2203945.0,1832851.0,2402094.0,1910715.0,2172813.0,2099064.0,1946736.0,1938240.0,2083456.0,1759981.0,2045459.7272727273
11.703125,2154410.0,2203715.0,1832334.0,2401505.0,1909583.0,2172805.0,2101738.0,1946612.0,1937761.0,2078850.0,1760900.0,2045473.9090909092
11.71875,2157403.0,2203717.0,1832222.0,2401877.0,1909764.0,2173116.0,2102472.0,1946770.0,1937061.0,2081310.0,1760668.0,2046034.5454545454
11.734375,2161055.0,2203445.0,1831896.0,2402831.0,1910031.0,2173177.0,2102830.0,1946857.0,1936245.0,2076548.0,1759403.0,2045847.0909090908
11.75,2164669.0,2203928.0,1832048.0,2403768.0,1909338.0,2173375.0,2103370.0,1946891.0,1936418.0,2074473.0,1757199.0,2045952.4545454546
11.765625,2167166.0,2204038.0,1832417.0,2404795.0,1909263.0,2173879.0,2104833.0,1946751.0,1936508.0,2072347.0,1755083.0,2046098.1818181819
11.78125,2169960.0,2204565.0,1832669.0,2405649.0,1909693.0,2173696.0,2105293.0,1947100.0,1936872.0,2071286.0,1753851.0,2046421.2727272727
11.796875,2172563.0,2203570.0,1833043.0,2406467.0,1910537.0,2174113.0,2105997.0,1947412.0,1938035.0,2070015.0,1752824.0,2046779.6363636365
11.8125,2176289.0,2205050.0,1833819.0,2407392.0,1911920.0,2174064.0,2107596.0,1948308.0,1938904.0,2068658.0,1753183.0,2047743.9090909092
11.828125,2178981.0,2205561.0,1834147.0,2408010.0,1914179.0,2174617.0,2109783.0,1949380.0,1937709.0,2065615.0,1752703.0,2048244.0909090908
11.84375,2181537.0,2204561.0,1834708.0,2408699.0,1916079.0,2174304.0,2111799.0,1949706.0,1940266.0,2066936.0,1752659.0,2049204.9090909092
11.859375,2183689.0,2201698.0,1835149.0,2408574.0,1918196.0,2174319.0,2113404.0,1948347.0,1939707.0,2064359.0,1752205.0,2049058.8181818181
11.875,2185503.0,2198760.0,1834809.0,2402597.0,1920224.0,2173985.0,2114971.0,1946354.0,1942375.0,2063971.0,1752503.0,2048732.0
11.890625,2187807.0,2194113.0,1832368.0,2394505.0,1922370.0,2173955.0,2115900.0,1944001.0,1941346.0,2063508.0,1754376.0,2047659.0
11.90625,2190073.0,2193879.0,1830182.0,2388322.0,1924691.0,2173790.0,2116612.0,1942156.0,1943637.0,2063086.0,1755690.0,2047465.2727272727
11.921875,2192271.0,2193895.0,1827802.0,2385529.0,1926824.0,2173514.0,2117675.0,1940511.0,1942708.0,2063437.0,1757288.0,2047404.9090909092
11.9375,2193722.0,2195282.0,1825992.0,2384586.0,1929724.0,2173896.0,2119819.0,1939877.0,1940361.0,2063225.0,1759337.0,2047801.9090909092
11.953125,2192400.0,2194074.0,1824319.0,2384727.0,1929510.0,2173586.0,2122248.0,1939518.0,1938385.0,2063687.0,1759969.0,2047493.0
11.96875,2191932.0,2193284.0,1823156.0,2385920.0,1922916.0,2173449.0,2124731.0,1939065.0,1937244.0,2062249.0,1762504.0,2046950.0
11.984375,2192657.0,2196479.0,1822474.0,2387371.0,1915855.0,2173266.0,2125986.0,1938953.0,1936216.0,2056589.0,1767379.0,2046656.8181818181
12.0,2192931.0,2193338.0,1821519.0,2387872.0,1911115.0,2173407.0,2127416.0,1938990.0,1935179.0,2059549.0,1770303.0,2046510.8181818181
12.015625,2193332.0,2192758.0,1820869.0,2387337.0,1907958.0,2173073.0,2128722.0,1939710.0,1935222.0,2054708.0,1771510.0,2045927.1818181819
12.03125,2194073.0,2192541.0,1820181.0,2386617.0,1905617.0,2173108.0,2129783.0,1940202.0,1935390.0,2053018.0,1774055.0,2045871.3636363635
12.046875,2195334.0,2192392.0,1819950.0,2386200.0,1904665.0,2173408.0,2131856.0,1941248.0,1935526.0,2051905.0,1775436.0,2046174.5454545454
12.0625,2197574.0,2192767.0,1819951.0,2385611.0,1904596.0,2173562.0,2133635.0,1942341.0,1936005.0,2051244.0,1776556.0,2046712.9090909092
12.078125,2199951.0,2190757.0,1820296.0,2385709.0,1903995.0,2173591.0,2135417.0,1942709.0,1936247.0,2050730.0,1777455.0,2046987.0
12.09375,2201751.0,2187441.0,1820369.0,2387211.0,1903790.0,2173482.0,2135224.0,1941659.0,1936692.0,2050153.0,1779267.0,2047003.5454545454
12.109375,2203454.0,2183913.0,1820767.0,2386145.0,1903595.0,2174029.0,2134862.0,1939498.0,1936615.0,2050019.0,1781068.0,2046724.0909090908
12.125,2204735.0,2181115.0,1821321.0,2388718.0,1904270.0,2174115.0,2135391.0,1936928.0,1936820.0,2050305.0,1786074.0,2047253.8181818181
12.140625,2205960.0,2178840.0,1821848.0,2389352.0,1905322.0,2174053.0,2136309.0,1935347.0,1937466.0,2050189.0,1791545.0,2047839.1818181819
12.15625,2207586.0,2177581.0,1822331.0,2390954.0,1906772.0,2174620.0,2137603.0,1934071.0,1938089.0,2050965.0,1799066.0,2049058.0
12.171875,2208941.0,2176840.0,1822264.0,2392182.0,1908566.0,2174644.0,2138981.0,1933885.0,1938937.0,2051446.0,1802535.0,2049929.1818181819
12.1875,2210950.0,2176543.0,1820265.0,2393592.0,1910604.0,2175107.0,2140668.0,1933961.0,1939770.0,2052740.0,1803950.0,2050740.9090909092
12.203125,2212888.0,2176231.0,1817954.0,2396304.0,1912710.0,2175333.0,2142168.0,1939664.0,1940562.0,2051989.0,1805924.0,2051975.1818181819
12.21875,2215173.0,2175953.0,1815815.0,2398971.0,1914466.0,2175755.0,2139085.0,1940546.0,1941464.0,2053746.0,1808294.0,2052660.7272727273
12.234375,2216700.0,2176063.0,1813925.0,2390299.0,1916336.0,2175821.0,2136224.0,1935836.0,1942448.0,2055387.0,1805301.0,2051303.6363636365
12.25,2218447.0,2176129.0,1812107.0,2388100.0,1919275.0,2176155.0,2136086.0,1936835.0,1943332.0,2056631.0,1808623.0,2051974.5454545454
12.265625,2219905.0,2176379.0,1810930.0,2385993.0,1921805.0,2176210.0,2138788.0,1934125.0,1942301.0,2056235.0,1813234.0,2052355.0
12.28125,2221894.0,2176712.0,1810320.0,2394432.0,1923543.0,2176388.0,2138049.0,1934720.0,1940153.0,2055660.0,1815677.0,2053413.4545454546
12.296875,2224057.0,2177627.0,1809902.0,2382069.0,1919989.0,2175945.0,2128582.0,1935287.0,1938899.0,2055575.0,1820018.0,2051631.8181818181
12.3125,2226488.0,2176673.0,1809278.0,2387326.0,1913093.0,2176249.0,2113642.0,1939639.0,1937947.0,2055543.0,1832219.0,2051645.1818181819
12.328125,2226780.0,2173506.0,1809235.0,2379304.0,1907191.0,2175638.0,2102606.0,1938007.0,1936947.0,2054751.0,1838858.0,2049347.5454545454
12.34375,2228797.0,2169879.0,1809215.0,2380267.0,1903974.0,2175851.0,2095939.0,1938699.0,1936702.0,2054698.0,1845360.0,2049034.6363636365
12.359375,2231539.0,2164972.0,1809150.0,2379941.0,1901348.0,2174888.0,2093589.0,1937195.0,1936468.0,2054670.0,1847686.0,2048313.2727272727
12.375,2234061.0,2166965.0,1809742.0,2379588.0,1900135.0,2174788.0,2091844.0,1935880.0,1936121.0,2054292.0,1846258.0,2048152.1818181819
12.390625,2236135.0,2163365.0,1810089.0,2381765.0,1900209.0,2176067.0,2093304.0,1935884.0,1935680.0,2054337.0,1846534.0,2048488.0909090908
12.40625,2236280.0,2163321.0,1810522.0,2382291.0,1900223.0,2178968.0,2093640.0,1936017.0,1935488.0,2057489.0,1844227.0,2048951.4545454546
12.421875,2232146.0,2162991.0,1811101.0,2382091.0,1899616.0,2180647.0,2093777.0,1939223.0,1935716.0,2060715.0,1844924.0,2049358.8181818181
12.4375,2228817.0,2163202.0,1811806.0,2382273.0,1899261.0,2181158.0,2098565.0,1938140.0,1935740.0,2063939.0,1851393.0,2050390.3636363635
12.453125,2227346.0,2163310.0,1812721.0,2383595.0,1899754.0,2180733.0,2099654.0,1940517.0,1936270.0,2066430.0,1854345.0,2051334.0909090908
12.46875,2227057.0,2163316.0,1813232.0,2385621.0,1900596.0,2180387.0,2100834.0,1941719.0,1936596.0,2068194.0,1857704.0,2052296.0
12.484375,2227107.0,2163745.0,1813811.0,2387624.0,1901993.0,2180251.0,2103402.0,1942951.0,1937304.0,2069337.0,1858011.0,2053230.5454545454
12.5,2227043.0,2164439.0,1812292.0,2389960.0,1903737.0,2179915.0,2104763.0,1943910.0,1937916.0,2069797.0,1857790.0,2053778.3636363635
12.515625,2227476.0,2164737.0,1810168.0,2392014.0,1905414.0,2179490.0,2107310.0,1944107.0,1938802.0,2071222.0,1855151.0,2054171.9090909092
12.53125,2227851.0,2165733.0,1808367.0,2393138.0,1907057.0,2179423.0,2110453.0,1942751.0,1939477.0,2071342.0,1855582.0,2054652.1818181819
12.546875,2227738.0,2166339.0,1806943.0,2394105.0,1909216.0,2179421.0,2110792.0,1937219.0,1940220.0,2069925.0,1856097.0,2054365.0
12.5625,2228205.0,2165561.0,1804827.0,2395001.0,1910919.0,2179451.0,2109819.0,1941274.0,1941307.0,2068581.0,1856675.0,2054692.7272727273
12.578125,2228472.0,2162458.0,1805686.0,2395986.0,1913289.0,2179635.0,2110978.0,1939401.0,1942195.0,2067920.0,1857719.0,2054885.3636363635
12.59375,2229204.0,2158802.0,1804324.0,2396966.0,1915663.0,2179511.0,2112741.0,1938667.0,1941493.0,2067188.0,1857512.0,2054733.7272727273
12.609375,2229944.0,2156199.0,1804042.0,2397909.0,1915993.0,2179880.0,2114676.0,1936968.0,1938990.0,2067181.0,1857274.0,2054459.6363636365
12.625,2231000.0,2154415.0,1803995.0,2399139.0,1910483.0,2179987.0,2118423.0,1938173.0,1937248.0,2067391.0,1856995.0,2054295.3636363635
12.640625,2231904.0,2153115.0,1803745.0,2399781.0,1903455.0,2179973.0,2123335.0,1938707.0,1935539.0,2067707.0,1856548.0,2053982.6363636365
12.65625,2232834.0,2153245.0,1803981.0,2400364.0,1898743.0,2180045.0,2127566.0,1939424.0,1934256.0,2067809.0,1854399.0,2053878.7272727273
12.671875,,2152890.0,1804549.0,2396146.0,1895847.0,2180102.0,2131041.0,1940108.0,1932714.0,2067946.0,1851899.0,2035324.2
12.6875,,2152753.0,1804920.0,2386766.0,1893994.0,2180380.0,2132795.0,1941287.0,1932107.0,2069269.0,1850140.0,2034441.1
12.703125,,2153094.0,1805501.0,2376413.0,1893978.0,2180590.0,2134473.0,1942495.0,1931577.0,2068562.0,1843467.0,2033015.0
12.71875,,2153493.0,1806003.0,2370630.0,1894072.0,2180684.0,2137732.0,1943657.0,1931063.0,2070655.0,1829859.0,2031784.8
12.734375,,2153518.0,1806807.0,2367306.0,1893753.0,2180307.0,2141306.0,1945205.0,1930795.0,2069872.0,1823020.0,2031188.9
12.75,,2154086.0,1807666.0,2366387.0,1892983.0,2180239.0,2144100.0,1942220.0,1931637.0,2071566.0,1818826.0,2030971.0
12.765625,,2154845.0,1808470.0,2365538.0,1893047.0,2180230.0,2147211.0,1940499.0,1932585.0,2072501.0,1815584.0,2031051.0
12.78125,,2155790.0,1809541.0,2365290.0,1893699.0,2180056.0,2149176.0,1939505.0,1933241.0,2074024.0,1814570.0,2031489.2
12.796875,,2156730.0,1810415.0,2363759.0,1894764.0,2179995.0,2148259.0,1946352.0,1933841.0,2073130.0,1813076.0,2032032.1
12.8125,,2154419.0,1810616.0,2361748.0,1896526.0,2180091.0,2146640.0,1947163.0,1934160.0,2073485.0,1812342.0,2031719.0
12.828125,,2156681.0,1809003.0,2360811.0,1898527.0,2179869.0,2146584.0,1939037.0,1934602.0,2071501.0,1813014.0,2030962.9
12.84375,,2151506.0,1807447.0,2360180.0,1900654.0,2179673.0,2148551.0,1939231.0,1936080.0,2070283.0,1813966.0,2030757.1
12.859375,,2149240.0,1806181.0,2361809.0,1902645.0,2179633.0,2149351.0,1939052.0,1938004.0,2069222.0,1815758.0,2031089.5
12.875,,2147626.0,1805192.0,2360584.0,1904875.0,2179790.0,2151537.0,1944126.0,1938917.0,2068612.0,1818310.0,2031956.9
12.890625,,2146887.0,1804422.0,2363012.0,1907261.0,2179699.0,2153004.0,1946285.0,1939571.0,2068456.0,1821824.0,2033042.1
12.90625,,2146486.0,1804143.0,2364672.0,1909393.0,2179679.0,2154938.0,1939728.0,1940423.0,2068838.0,1826094.0,2033439.4
12.921875,,2146370.0,1804113.0,2366084.0,1911921.0,2180113.0,2157485.0,1940144.0,1941070.0,2069051.0,1829423.0,2034577.4
12.9375,,2146547.0,1803993.0,2369630.0,1911051.0,2180137.0,2158506.0,1941497.0,1940456.0,2069196.0,1832690.0,2035370.3
12.953125,,2146824.0,1804033.0,2367956.0,1904399.0,2180255.0,2159917.0,1942620.0,1940357.0,2069451.0,1835848.0,2035166.0
12.96875,,2147188.0,1803922.0,2373407.0,1896867.0,2180277.0,2160759.0,1943878.0,1939711.0,2069879.0,1836338.0,2035222.6
12.984375,,2148122.0,1804804.0,2371545.0,1891528.0,2180493.0,2162868.0,1945070.0,1939245.0,2070483.0,1834564.0,2034872.2
13.0,,2148597.0,1805407.0,2375227.0,1887650.0,2180725.0,2163826.0,1944099.0,1938569.0,2071507.0,1832956.0,2034856.3
13.015625,,2149542.0,1806252.0,2377567.0,1884151.0,2180763.0,2164107.0,1942012.0,1938275.0,2072259.0,1830492.0,2034542.0
13.03125,,2150937.0,1807796.0,2379864.0,1882842.0,2181207.0,2163642.0,1939878.0,1938103.0,2073409.0,1828890.0,2034656.8
13.046875,,2151154.0,1809782.0,2382283.0,1882109.0,2181036.0,2160941.0,1938588.0,1938258.0,2074735.0,1828028.0,2034691.4
13.0625,,2150458.0,1811828.0,2384714.0,1881270.0,2181181.0,2152739.0,1937601.0,1938104.0,2076573.0,1827103.0,2034157.1
13.078125,,2147709.0,1813520.0,2387289.0,1880735.0,2181225.0,2143848.0,1937349.0,1938194.0,2079583.0,1826827.0,2033627.9
13.09375,,2144286.0,1815411.0,2387298.0,1880460.0,2181557.0,2141340.0,1937726.0,1938606.0,2078637.0,1826417.0,2033173.8
13.109375,,2141840.0,1817094.0,2380500.0,1880798.0,2181729.0,2137562.0,1937125.0,1939114.0,2079414.0,1826864.0,2032204.0
13.125,,2140252.0,1817027.0,2374617.0,1881811.0,2181910.0,2134510.0,1938077.0,1940023.0,2078514.0,1827194.0,2031393.5
13.140625,,2139268.0,1816965.0,2371416.0,1883231.0,2181825.0,2134895.0,1939103.0,1940529.0,2077644.0,1829235.0,2031411.1
13.15625,,2139093.0,1817168.0,2370960.0,1884882.0,2181917.0,2135885.0,1939739.0,1941704.0,2076829.0,1830509.0,2031868.6
13.171875,,2139403.0,1817670.0,2371627.0,1886915.0,2181710.0,2134914.0,1941949.0,1942352.0,2075544.0,1831611.0,2032369.5
13.1875,,2139812.0,1818384.0,2371929.0,1889088.0,2181495.0,2133023.0,1940889.0,1943336.0,2080121.0,1831774.0,2032985.1
13.203125,,2140234.0,1819037.0,2372645.0,1891350.0,2182005.0,2133292.0,1943269.0,1944374.0,2078054.0,1831386.0,2033564.6
13.21875,,2140942.0,1820169.0,2373599.0,1893713.0,2182441.0,2134225.0,1943565.0,1945577.0,2082365.0,1828155.0,2034475.1
13.234375,,2141712.0,1820969.0,2374040.0,1896060.0,2182074.0,2135941.0,1939366.0,1946656.0,2081285.0,1823067.0,2034117.0
13.25,,2142643.0,1821646.0,2374303.0,1899030.0,2181911.0,2133401.0,1937607.0,1947923.0,2083346.0,1818201.0,2034001.1
13.265625,,2143571.0,1822337.0,2374953.0,1901377.0,2182199.0,2137676.0,1936346.0,1949133.0,2083370.0,1806991.0,2033795.3
13.28125,,2144833.0,1823173.0,2376045.0,1899733.0,2182256.0,2136946.0,1935816.0,1949366.0,2084068.0,1794946.0,2032718.2
13.296875,,2146149.0,1824178.0,2377396.0,1892814.0,2182135.0,2139313.0,1941800.0,1947720.0,2084563.0,1785676.0,2032174.4
13.3125,,2146263.0,1825081.0,2379075.0,1886204.0,2181754.0,2140809.0,1936029.0,1946282.0,2085131.0,1781379.0,2030800.7
13.328125,,2143645.0,1826060.0,2380766.0,1881486.0,2181328.0,2142726.0,1936590.0,1945330.0,2086144.0,1783760.0,2030783.5
13.34375,,2140817.0,1827216.0,2382540.0,1878174.0,2181158.0,2144272.0,1936734.0,1944695.0,2086297.0,1789087.0,2031099.0
13.359375,,2138827.0,1827967.0,2384192.0,1876076.0,2181176.0,2144707.0,1937637.0,1944023.0,2085921.0,1797147.0,2031767.3
13.375,,2137466.0,1828874.0,2385849.0,1875715.0,2181485.0,2145009.0,1939312.0,1944206.0,2087039.0,1804176.0,2032913.1
13.390625,,2136585.0,1829693.0,2387233.0,1875642.0,2181583.0,2145454.0,1938046.0,1943973.0,2083834.0,1809080.0,2033112.3
13.40625,,2136321.0,1830717.0,2388806.0,1875285.0,2181493.0,2146855.0,1940567.0,1943912.0,2082424.0,1813100.0,2033948.0
13.421875,,2136890.0,1830887.0,2390575.0,1875219.0,2182074.0,2147216.0,1941658.0,1943684.0,2081677.0,1813733.0,2034361.3
13.4375,,2137652.0,1829797.0,2391774.0,1875788.0,2182082.0,2148159.0,1942904.0,1943859.0,2081501.0,1815806.0,2034932.2
13.453125,,2137926.0,1828601.0,2393093.0,1876572.0,2182315.0,2149263.0,1941743.0,1944070.0,2081531.0,1816761.0,2035187.5
13.46875,,2138591.0,1827668.0,2394307.0,1878390.0,2182479.0,2150010.0,1940055.0,1944709.0,2081636.0,1831077.0,2036892.2
13.484375,,2140218.0,1827006.0,2395245.0,1880501.0,2182901.0,2151055.0,1938078.0,1945368.0,2081618.0,1846893.0,2038888.3
13.5,,2141368.0,1826418.0,2396112.0,1882441.0,2183134.0,2152346.0,1936546.0,1946081.0,2082001.0,1851657.0,2039810.4
13.515625,,2143175.0,1826665.0,2397001.0,1884854.0,2183142.0,2153245.0,1936256.0,1947706.0,2082587.0,1849574.0,2040420.5
13.53125,,2139497.0,1827248.0,2397777.0,1887405.0,2183502.0,2153772.0,1936442.0,1949860.0,2082907.0,1849181.0,2040759.1
13.546875,,2144520.0,1827451.0,2394494.0,1889782.0,2183637.0,2154355.0,1937100.0,1946838.0,2083720.0,1848276.0,2041017.3
13.5625,,2145705.0,1827620.0,2386831.0,1892396.0,2183990.0,2155406.0,1937576.0,1948825.0,2084298.0,1852474.0,2041512.1
13.578125,,2144730.0,1828050.0,2378724.0,1895243.0,2184207.0,2157269.0,1937843.0,1951535.0,2082101.0,1852618.0,2041232.0
13.59375,,2142849.0,1828820.0,2374229.0,1898064.0,2184250.0,2158691.0,1939091.0,1952787.0,2085482.0,1850350.0,2041461.3
13.609375,,2140726.0,1829827.0,2372901.0,1900404.0,2184196.0,2159852.0,1940116.0,1953696.0,2086101.0,1849281.0,2041710.0
13.625,,2139205.0,1830791.0,2372455.0,1896451.0,2183992.0,2159437.0,1941401.0,1952945.0,2086990.0,1846237.0,2040990.4
13.640625,,2138417.0,1831830.0,2372303.0,1890275.0,2183795.0,2158914.0,1942599.0,1951761.0,2087923.0,1841976.0,2039979.3
13.65625,,2138705.0,1832706.0,2372361.0,1885744.0,2183960.0,2158134.0,1943856.0,1950715.0,2086525.0,1838004.0,2039071.0
13.671875,,2139129.0,1833489.0,2371985.0,1882914.0,2183839.0,2157884.0,1943903.0,1950747.0,2084921.0,1834730.0,2038354.1
13.6875,,2140510.0,1834422.0,2370855.0,1880483.0,2183809.0,2158866.0,1941611.0,1951399.0,2083782.0,1831807.0,2037754.4
13.703125,,2141071.0,1835209.0,2369587.0,1879831.0,2184032.0,2159974.0,1939562.0,1952118.0,2083087.0,1829765.0,2037423.6
13.71875,,2139931.0,1835871.0,2368671.0,1880328.0,2183800.0,2161270.0,1937550.0,1952976.0,2082821.0,1827110.0,2037032.8
13.734375,,2142110.0,1836422.0,2368837.0,1880554.0,2183777.0,2162683.0,1936262.0,1953663.0,2082886.0,1825315.0,2037250.9
13.75,,2143359.0,1835417.0,2369279.0,1880693.0,2183984.0,2163352.0,1935344.0,1954543.0,2083100.0,1823113.0,2037218.4
13.765625,,2144797.0,1834494.0,2370224.0,1880662.0,2184145.0,2164008.0,1935574.0,1955435.0,2083624.0,1820667.0,2037363.0
13.78125,,2146321.0,1833562.0,2371483.0,1881243.0,2184173.0,2165201.0,1935376.0,1956324.0,2084169.0,1819144.0,2037699.6
13.796875,,2148045.0,1833135.0,2372949.0,1882608.0,2184491.0,2166035.0,1935395.0,1956958.0,2083866.0,1818081.0,2038156.3
13.8125,,2149028.0,1832866.0,2374258.0,1884589.0,2184515.0,2164383.0,1935614.0,1957882.0,2084565.0,1817431.0,2038513.1
13.828125,,2148052.0,1832989.0,2375302.0,1886736.0,2184746.0,2163622.0,1936180.0,1958980.0,2086490.0,1816342.0,2038943.9
13.84375,,2146131.0,1833282.0,2376523.0,1889186.0,2185010.0,2164938.0,1937085.0,1961551.0,2087187.0,1814919.0,2039581.2
