timestamp,bvp,eda,temp,PPG GREEN
1551188781.421875,1.52,0.176749,33.61,2092042.0
1551188781.4375,-0.46,0.189557,33.61,2092455.0
1551188781.453125,-3.06,0.188276,33.61,2092731.0
1551188781.46875,-6.04,0.165222,33.65,2093036.0
1551188781.484375,-9.06,0.16266,33.65,2093410.0
1551188781.5,-11.8,0.16266,33.65,2093813.0
1551188781.515625,-14.18,0.16138,33.65,2094015.0
1551188781.53125,-16.34,0.158818,33.63,2093310.0
1551188781.546875,-18.62,0.158818,33.63,2092391.0
1551188781.5625,-21.34,0.169064,33.63,2091737.0
1551188781.578125,-24.62,0.163941,33.63,2091020.0
1551188781.59375,-28.17,0.16266,33.63,2089896.0
1551188781.609375,-31.36,0.16266,33.63,2088956.0
1551188781.625,-33.38,0.16266,33.63,2088440.0
1551188781.640625,-33.52,0.158818,33.63,2087879.0
1551188781.65625,-31.48,0.158818,33.63,2087333.0
1551188781.671875,-27.5,0.160099,33.63,2086837.0
1551188781.6875,-22.3,0.165222,33.63,2085993.0
1551188781.703125,-16.78,0.165222,33.63,2085602.0
1551188781.71875,-11.82,0.163941,33.59,2085297.0
1551188781.734375,-7.88,0.160099,33.59,2085111.0
1551188781.75,-5.11,0.163941,33.59,2085038.0
1551188781.765625,-3.44,0.16266,33.59,2085209.0
1551188781.78125,-2.71,0.165222,33.59,2085609.0
1551188781.796875,-2.85,0.166503,33.59,2085618.0
1551188781.8125,-3.81,0.167784,33.59,2085556.0
1551188781.828125,-5.48,0.167784,33.59,2086025.0
1551188781.84375,-7.69,0.166503,33.61,2085711.0
1551188781.859375,-10.17,0.170345,33.61,2083093.0
1551188781.875,-12.58,0.17803,33.61,2084316.0
1551188781.890625,-14.62,0.181872,33.61,2081328.0
1551188781.90625,-16.07,0.181872,33.61,2080521.0
1551188781.921875,-16.85,0.183153,33.61,2079992.0
1551188781.9375,-17.06,0.183153,33.61,2079813.0
1551188781.953125,-17.02,0.180592,33.61,2079094.0
1551188781.96875,-17.12,0.180592,33.61,2078515.0
1551188781.984375,-17.73,0.184434,33.61,2078093.0
1551188782.0,-18.92,0.184434,33.61,2077981.0
1551188782.015625,-20.48,0.184434,33.61,2077743.0
1551188782.03125,-21.88,0.185715,33.59,2077915.0
1551188782.046875,-22.6,0.184434,33.59,2078048.0
1551188782.0625,-22.28,0.186995,33.59,2078023.0
1551188782.078125,-20.98,0.189557,33.59,2078186.0
1551188782.09375,-19.07,0.190838,33.59,2078090.0
1551188782.109375,-17.1,0.189557,33.59,2078369.0
1551188782.125,-15.61,0.192119,33.59,2078790.0
1551188782.140625,-14.89,0.193399,33.59,2079938.0
1551188782.15625,-14.95,0.190838,33.57,2080376.0
1551188782.171875,-15.66,0.190838,33.57,2081135.0
1551188782.1875,-16.87,0.189557,33.57,2080171.0
1551188782.203125,-18.53,0.195961,33.57,2079091.0
1551188782.21875,-20.79,0.19468,33.57,2077792.0
1551188782.234375,-23.77,0.195961,33.57,2076392.0
1551188782.25,-27.37,0.19468,33.57,2075203.0
1551188782.265625,-31.08,0.193399,33.57,2074388.0
1551188782.28125,-33.99,0.19468,33.57,2073987.0
1551188782.296875,-35.14,0.195961,33.57,2073203.0
1551188782.3125,-33.87,0.198523,33.57,2072617.0
1551188782.328125,-30.17,0.198523,33.57,2072492.0
1551188782.34375,-24.57,0.197242,33.55,2072378.0
1551188782.359375,-17.88,0.193399,33.55,2072840.0
1551188782.375,-10.74,0.193399,33.55,2073556.0
1551188782.390625,-3.38,0.193399,33.55,2074079.0
1551188782.40625,4.13,0.199803,33.55,2074680.0
1551188782.421875,11.59,0.199803,33.55,2075178.0
1551188782.4375,18.43,0.197242,33.55,2075523.0
1551188782.453125,23.83,0.197242,33.55,2076010.0
1551188782.46875,27.11,0.195961,33.55,2076791.0
1551188782.484375,28.23,0.19468,33.55,2077746.0
1551188782.5,27.97,0.198523,33.55,2077521.0
1551188782.515625,27.8,0.198523,33.55,2077607.0
1551188782.53125,29.31,0.199803,33.57,2076351.0
1551188782.546875,33.63,0.199803,33.57,2074851.0
1551188782.5625,41.14,0.197242,33.57,2073578.0
1551188782.578125,51.42,0.198523,33.57,2071722.0
1551188782.59375,63.48,0.198523,33.55,2073048.0
1551188782.609375,76.15,0.199803,33.55,2070223.0
1551188782.625,88.5,0.201084,33.55,2069857.0
1551188782.640625,100.05,0.201084,33.55,2070959.0
1551188782.65625,110.94,0.201084,33.55,2069415.0
1551188782.671875,121.69,0.197242,33.55,2068916.0
1551188782.6875,132.93,0.199803,33.55,2069014.0
1551188782.703125,144.91,0.197242,33.55,2069041.0
1551188782.71875,157.33,0.202365,33.57,2069553.0
1551188782.734375,169.3,0.202365,33.57,2070442.0
1551188782.75,179.53,0.199803,33.57,2069625.0
1551188782.765625,186.43,0.198523,33.57,2071925.0
1551188782.78125,188.17,0.198523,33.55,2070831.0
1551188782.796875,182.83,0.197242,33.55,2072681.0
1551188782.8125,168.62,0.202365,33.55,2073433.0
1551188782.828125,144.79,0.203646,33.55,2074177.0
1551188782.84375,112.3,0.203646,33.53,2075064.0
1551188782.859375,74.3,0.201084,33.53,2076044.0
1551188782.875,35.46,0.201084,33.53,2075541.0
1551188782.890625,0.65,0.198523,33.53,2069823.0
1551188782.90625,-26.74,0.201084,33.53,2074783.0
1551188782.921875,-45.78,0.202365,33.53,2074017.0
1551188782.9375,-57.87,0.203646,33.53,2073592.0
1551188782.953125,-65.58,0.203646,33.53,2072915.0
1551188782.96875,-71.23,0.202365,33.53,2072496.0
1551188782.984375,-76.05,0.201084,33.53,2072752.0
1551188783.0,-80.25,0.202365,33.53,2072370.0
1551188783.015625,-83.65,0.203646,33.53,2072045.0
1551188783.03125,-86.31,0.204927,33.53,2072082.0
1551188783.046875,-88.58,0.204927,33.53,2071949.0
1551188783.0625,-90.74,0.204927,33.53,2072053.0
1551188783.078125,-92.54,0.202365,33.53,2072764.0
1551188783.09375,-93.06,0.203646,33.53,2072795.0
1551188783.109375,-91.21,0.21005,33.53,2073090.0
1551188783.125,-86.28,0.21005,33.53,2073706.0
1551188783.140625,-78.44,0.208769,33.53,2073735.0
1551188783.15625,-68.7,0.208769,33.5,2074377.0
1551188783.171875,-58.48,0.203646,33.5,2074607.0
1551188783.1875,-49.04,0.203646,33.5,2075210.0
1551188783.203125,-41.1,0.204927,33.5,2075665.0
1551188783.21875,-34.73,0.206207,33.53,2076199.0
1551188783.234375,-29.55,0.207488,33.53,2075200.0
1551188783.25,-25.05,0.207488,33.53,2074084.0
1551188783.265625,-20.8,0.207488,33.53,2072907.0
1551188783.28125,-16.62,0.203646,33.5,2071278.0
1551188783.296875,-12.52,0.203646,33.5,2070000.0
1551188783.3125,-8.63,0.206207,33.5,2069118.0
1551188783.328125,-5.04,0.208769,33.5,2068614.0
1551188783.34375,-1.81,0.206207,33.53,2068361.0
1551188783.359375,1.1,0.207488,33.53,2068039.0
1551188783.375,3.68,0.203646,33.53,2068120.0
1551188783.390625,5.85,0.204927,33.53,2068374.0
1551188783.40625,7.38,0.203646,33.5,2068819.0
1551188783.421875,8.03,0.206207,33.5,2070019.0
1551188783.4375,7.54,0.207488,33.5,2071204.0
1551188783.453125,5.6,0.207488,33.5,2072635.0
1551188783.46875,1.95,0.204927,33.5,2074734.0
1551188783.484375,-3.71,0.204927,33.5,2076867.0
1551188783.5,-11.47,0.204927,33.5,2078668.0
1551188783.515625,-21.1,0.204927,33.5,2080104.0
1551188783.53125,-31.99,0.207488,33.5,2081517.0
1551188783.546875,-43.22,0.208769,33.5,2082299.0
1551188783.5625,-53.81,0.208769,33.5,2081954.0
1551188783.578125,-63.05,0.206207,33.5,2080845.0
1551188783.59375,-70.61,0.206207,33.5,2078778.0
1551188783.609375,-76.51,0.207488,33.5,2077140.0
1551188783.625,-80.97,0.21005,33.5,2075619.0
1551188783.640625,-84.26,0.21005,33.5,2074765.0
1551188783.65625,-86.47,0.216454,33.49,2074085.0
1551188783.671875,-87.65,0.213892,33.49,2073692.0
1551188783.6875,-87.79,0.208769,33.49,2073130.0
1551188783.703125,-86.89,0.208769,33.49,2072684.0
1551188783.71875,-84.92,0.211331,33.5,2072167.0
1551188783.734375,-81.98,0.211331,33.5,2072175.0
1551188783.75,-78.3,0.211331,33.5,2072314.0
1551188783.765625,-74.33,0.212611,33.5,2072242.0
1551188783.78125,-70.71,0.208769,33.49,2072333.0
1551188783.796875,-68.05,0.208769,33.49,2072442.0
1551188783.8125,-66.68,0.206207,33.49,2072346.0
1551188783.828125,-66.48,0.213892,33.49,2072181.0
1551188783.84375,-66.89,0.213892,33.47,2072453.0
1551188783.859375,-67.15,0.212611,33.47,2072854.0
1551188783.875,-66.71,0.211331,33.47,2072165.0
1551188783.890625,-65.43,0.208769,33.47,2071298.0
1551188783.90625,-63.56,0.211331,33.47,2069708.0
1551188783.921875,-61.68,0.211331,33.47,2068240.0
1551188783.9375,-60.25,0.213892,33.47,2066776.0
1551188783.953125,-59.46,0.211331,33.47,2065115.0
1551188783.96875,-59.08,0.211331,33.47,2063729.0
1551188783.984375,-58.61,0.208769,33.47,2062296.0
1551188784.0,-57.58,0.208769,33.47,2061433.0
1551188784.015625,-55.76,0.212611,33.47,2060688.0
1551188784.03125,-53.21,0.213892,33.45,2059799.0
1551188784.046875,-50.23,0.215173,33.45,2059383.0
1551188784.0625,-47.19,0.213892,33.45,2059375.0
1551188784.078125,-44.33,0.211331,33.45,2059191.0
1551188784.09375,-41.7,0.213892,33.49,2059223.0
1551188784.109375,-39.28,0.212611,33.49,2059380.0
1551188784.125,-37.02,0.217734,33.49,2059460.0
1551188784.140625,-34.97,0.219015,33.49,2060092.0
1551188784.15625,-33.33,0.216454,33.45,2060293.0
1551188784.171875,-32.32,0.211331,33.45,2060252.0
1551188784.1875,-32.21,0.211331,33.45,2060582.0
1551188784.203125,-33.22,0.21005,33.45,2060223.0
1551188784.21875,-35.43,0.213892,33.45,2058804.0
1551188784.234375,-38.8,0.216454,33.45,2057090.0
1551188784.25,-43.02,0.215173,33.45,2055362.0
1551188784.265625,-47.39,0.211331,33.45,2053985.0
1551188784.28125,-50.81,0.21005,33.45,2052701.0
1551188784.296875,-51.95,0.208769,33.45,2051732.0
1551188784.3125,-49.65,0.213892,33.45,2051222.0
1551188784.328125,-43.28,0.21005,33.45,2050549.0
1551188784.34375,-33.1,0.213892,33.45,2050176.0
1551188784.359375,-20.17,0.211331,33.45,2050140.0
1551188784.375,-6.03,0.21005,33.45,2050054.0
1551188784.390625,7.81,0.208769,33.45,2050207.0
1551188784.40625,20.31,0.212611,33.45,2050311.0
1551188784.421875,31.17,0.213892,33.45,2050734.0
1551188784.4375,40.62,0.213892,33.45,2051041.0
1551188784.453125,49.12,0.213892,33.45,2050785.0
1551188784.46875,56.98,0.211331,33.45,2050590.0
1551188784.484375,64.21,0.211331,33.45,2050718.0
1551188784.5,70.53,0.213892,33.45,2050662.0
1551188784.515625,75.54,0.213892,33.45,2050841.0
1551188784.53125,78.89,0.215173,33.45,2050632.0
1551188784.546875,80.52,0.213892,33.45,2049432.0
1551188784.5625,80.68,0.211331,33.45,2047432.0
1551188784.578125,79.86,0.211331,33.45,2046033.0
1551188784.59375,78.7,0.215173,33.43,2044272.0
1551188784.609375,77.71,0.215173,33.43,2043093.0
1551188784.625,77.27,0.215173,33.43,2042386.0
1551188784.640625,77.53,0.213892,33.43,2042152.0
1551188784.65625,78.51,0.212611,33.45,2042061.0
1551188784.671875,80.23,0.211331,33.45,2041490.0
1551188784.6875,82.63,0.212611,33.45,2041634.0
1551188784.703125,85.57,0.215173,33.45,2042406.0
1551188784.71875,88.72,0.213892,33.43,2042609.0
1551188784.734375,91.49,0.213892,33.43,2042255.0
1551188784.75,93.26,0.21005,33.43,2042332.0
1551188784.765625,93.57,0.21005,33.43,2043004.0
1551188784.78125,92.36,0.211331,33.43,2043543.0
1551188784.796875,90.01,0.213892,33.43,2043788.0
1551188784.8125,87.22,0.212611,33.43,2044893.0
1551188784.828125,84.62,0.212611,33.43,2044962.0
1551188784.84375,82.46,0.211331,33.43,2045570.0
1551188784.859375,80.52,0.208769,33.43,2046030.0
1551188784.875,78.14,0.21005,33.43,2045895.0
1551188784.890625,74.63,0.211331,33.43,2046531.0
1551188784.90625,69.51,0.213892,33.43,2042732.0
1551188784.921875,62.74,0.212611,33.43,2044299.0
1551188784.9375,54.77,0.212611,33.43,2040366.0
1551188784.953125,46.26,0.208769,33.43,2039255.0
1551188784.96875,37.86,0.211331,33.45,2039498.0
1551188784.984375,29.92,0.208769,33.45,2041526.0
1551188785.0,22.41,0.213892,33.45,2038591.0
1551188785.015625,15.04,0.213892,33.45,2037584.0
1551188785.03125,7.38,0.213892,33.41,2038099.0
1551188785.046875,-0.86,0.219015,33.41,2037280.0
1551188785.0625,-9.8,0.211331,33.41,2037191.0
1551188785.078125,-19.33,0.211331,33.41,2037271.0
1551188785.09375,-29.16,0.212611,33.41,2037466.0
1551188785.109375,-38.92,0.215173,33.41,2037831.0
1551188785.125,-48.11,0.213892,33.41,2037780.0
1551188785.140625,-56.22,0.215173,33.41,2037928.0
1551188785.15625,-62.74,0.211331,33.41,2037598.0
1551188785.171875,-67.3,0.212611,33.41,2037440.0
1551188785.1875,-69.79,0.215173,33.41,2037739.0
1551188785.203125,-70.5,0.212611,33.41,2037879.0
1551188785.21875,-70.02,0.216454,33.41,2033295.0
1551188785.234375,-69.1,0.213892,33.41,2034932.0
1551188785.25,-68.38,0.213892,33.41,2036962.0
1551188785.265625,-68.1,0.213892,33.41,2031874.0
1551188785.28125,-68.13,0.211331,33.43,2029067.0
1551188785.296875,-68.0,0.213892,33.43,2027932.0
1551188785.3125,-67.2,0.215173,33.43,2030254.0
1551188785.328125,-65.33,0.216454,33.43,2027044.0
1551188785.34375,-62.31,0.221577,33.39,2026347.0
1551188785.359375,-58.24,0.21005,33.39,2025458.0
1551188785.375,-53.41,0.211331,33.39,2025046.0
1551188785.390625,-48.11,0.213892,33.39,2025680.0
1551188785.40625,-42.56,0.216454,33.39,2025331.0
1551188785.421875,-36.96,0.216454,33.39,2025314.0
1551188785.4375,-31.49,0.213892,33.39,2026080.0
1551188785.453125,-26.32,0.212611,33.39,2026101.0
1551188785.46875,-21.58,0.213892,33.39,2025806.0
1551188785.484375,-17.34,0.213892,33.39,2026293.0
1551188785.5,-13.52,0.215173,33.39,2026735.0
1551188785.515625,-9.97,0.216454,33.39,2027890.0
1551188785.53125,-6.42,0.216454,33.41,2026991.0
1551188785.546875,-2.67,0.212611,33.41,2027380.0
1551188785.5625,1.31,0.215173,33.41,2022544.0
1551188785.578125,5.32,0.212611,33.41,2025093.0
1551188785.59375,8.91,0.215173,33.37,2021108.0
1551188785.609375,11.55,0.216454,33.37,2020769.0
1551188785.625,12.88,0.216454,33.37,2020384.0
1551188785.640625,12.87,0.215173,33.37,2020216.0
1551188785.65625,11.91,0.212611,33.39,2020218.0
1551188785.671875,10.7,0.212611,33.39,2020119.0
1551188785.6875,9.96,0.215173,33.39,2020134.0
1551188785.703125,10.13,0.216454,33.39,2020299.0
1551188785.71875,11.2,0.216454,33.39,2020491.0
1551188785.734375,12.76,0.216454,33.39,2020648.0
1551188785.75,14.18,0.213892,33.39,2020425.0
1551188785.765625,14.88,0.215173,33.39,2020519.0
1551188785.78125,14.59,0.216454,33.39,2020505.0
1551188785.796875,13.32,0.217734,33.39,2020590.0
1551188785.8125,11.25,0.217734,33.39,2020920.0
1551188785.828125,8.53,0.217734,33.39,2021396.0
1551188785.84375,5.07,0.216454,33.39,2021552.0
1551188785.859375,0.58,0.213892,33.39,2021882.0
1551188785.875,-5.41,0.215173,33.39,2022177.0
1551188785.890625,-13.32,0.219015,33.39,2022241.0
1551188785.90625,-23.33,0.217734,33.37,2020995.0
1551188785.921875,-35.22,0.219015,33.37,2019516.0
1551188785.9375,-48.18,0.215173,33.37,2018361.0
1551188785.953125,-60.9,0.213892,33.37,2016749.0
1551188785.96875,-71.64,0.213892,33.39,2015286.0
1551188785.984375,-78.59,0.216454,33.39,2014110.0
1551188786.0,-80.35,0.219015,33.39,2013361.0
1551188786.015625,-76.41,0.217734,33.39,2012424.0
1551188786.03125,-67.34,0.217734,33.37,2011075.0
1551188786.046875,-54.75,0.215173,33.37,2010384.0
1551188786.0625,-40.72,0.217734,33.37,2009864.0
1551188786.078125,-27.17,0.219015,33.37,2009444.0
1551188786.09375,-15.31,0.219015,33.37,2008932.0
1551188786.109375,-5.44,0.217734,33.37,2008827.0
1551188786.125,2.96,0.217734,33.37,2008894.0
1551188786.140625,10.76,0.215173,33.37,2008946.0
1551188786.15625,18.77,0.215173,33.39,2009368.0
1551188786.171875,27.42,0.217734,33.39,2008723.0
1551188786.1875,36.6,0.217734,33.39,2008967.0
1551188786.203125,45.69,0.217734,33.39,2009584.0
1551188786.21875,53.75,0.219015,33.34,2008892.0
1551188786.234375,59.85,0.216454,33.34,2006518.0
1551188786.25,63.42,0.217734,33.34,2004637.0
1551188786.265625,64.44,0.219015,33.34,2001531.0
1551188786.28125,63.49,0.220296,33.34,1999542.0
1551188786.296875,61.55,0.220296,33.34,2000194.0
1551188786.3125,59.6,0.220296,33.34,2002826.0
1551188786.328125,58.36,0.216454,33.34,1997642.0
1551188786.34375,58.14,0.217734,33.34,1998351.0
1551188786.359375,58.88,0.216454,33.34,1996829.0
1551188786.375,60.3,0.221577,33.34,1995877.0
1551188786.390625,62.03,0.221577,33.34,1996123.0
1551188786.40625,63.66,0.222858,33.34,1995974.0
1551188786.421875,64.7,0.219015,33.34,1996115.0
1551188786.4375,64.62,0.221577,33.34,1996586.0
1551188786.453125,62.94,0.220296,33.34,1997244.0
1551188786.46875,59.44,0.221577,33.34,1997890.0
1551188786.484375,54.24,0.221577,33.34,1998680.0
1551188786.5,47.87,0.222858,33.34,1999043.0
1551188786.515625,41.14,0.222858,33.34,1999115.0
1551188786.53125,34.83,0.220296,33.34,1999144.0
1551188786.546875,29.48,0.219015,33.34,1996857.0
1551188786.5625,25.18,0.219015,33.34,1993933.0
1551188786.578125,21.63,0.221577,33.34,1991440.0
1551188786.59375,18.23,0.222858,33.34,1988574.0
1551188786.609375,14.43,0.222858,33.34,1986963.0
1551188786.625,9.93,0.221577,33.34,1986323.0
1551188786.640625,4.86,0.219015,33.34,1985624.0
1551188786.65625,-0.34,0.220296,33.33,1987421.0
1551188786.671875,-5.11,0.221577,33.33,1987305.0
1551188786.6875,-9.13,0.224138,33.33,1987976.0
1551188786.703125,-12.48,0.224138,33.33,1989108.0
1551188786.71875,-15.76,0.222858,33.33,1990100.0
1551188786.734375,-19.86,0.219015,33.33,1990426.0
1551188786.75,-25.68,0.219015,33.33,1990775.0
1551188786.765625,-33.83,0.220296,33.33,1990313.0
1551188786.78125,-44.2,0.221577,33.33,1989599.0
1551188786.796875,-55.85,0.224138,33.33,1989899.0
1551188786.8125,-66.97,0.222858,33.33,1991641.0
1551188786.828125,-75.24,0.219015,33.33,1993212.0
1551188786.84375,-78.42,0.221577,33.34,1993428.0
1551188786.859375,-75.02,0.219015,33.34,1993476.0
1551188786.875,-64.89,0.221577,33.34,1992535.0
1551188786.890625,-49.37,0.222858,33.34,1990326.0
1551188786.90625,-30.92,0.221577,33.34,1989001.0
1551188786.921875,-12.36,0.224138,33.34,1988292.0
1551188786.9375,3.99,0.220296,33.34,1987971.0
1551188786.953125,16.91,0.219015,33.34,1987895.0
1551188786.96875,26.44,0.220296,33.33,1988010.0
1551188786.984375,33.61,0.221577,33.33,1988108.0
1551188787.0,39.85,0.222858,33.33,1987006.0
1551188787.015625,46.42,0.222858,33.33,1985647.0
1551188787.03125,54.11,0.219015,33.33,1984707.0
1551188787.046875,63.01,0.219015,33.33,1983790.0
1551188787.0625,72.68,0.220296,33.33,1983650.0
1551188787.078125,82.33,0.221577,33.33,1983340.0
1551188787.09375,91.22,0.222858,33.31,1983425.0
1551188787.109375,98.77,0.222858,33.31,1983256.0
1551188787.125,104.79,0.222858,33.31,1983384.0
1551188787.140625,109.34,0.220296,33.31,1983909.0
1551188787.15625,112.6,0.219015,33.31,1984057.0
1551188787.171875,114.7,0.217734,33.31,1984873.0
1551188787.1875,115.66,0.224138,33.31,1985305.0
1551188787.203125,115.54,0.222858,33.31,1985363.0
1551188787.21875,114.48,0.222858,33.31,1983759.0
1551188787.234375,112.86,0.220296,33.31,1981758.0
1551188787.25,111.11,0.219015,33.31,1980114.0
1551188787.265625,109.51,0.219015,33.31,1978748.0
1551188787.28125,107.99,0.222858,33.31,1977187.0
1551188787.296875,106.14,0.224138,33.31,1976417.0
1551188787.3125,103.39,0.224138,33.31,1975751.0
1551188787.328125,99.31,0.224138,33.31,1975402.0
1551188787.34375,93.88,0.220296,33.31,1974518.0
1551188787.359375,87.49,0.219015,33.31,1973862.0
1551188787.375,80.68,0.221577,33.31,1973690.0
1551188787.390625,73.92,0.224138,33.31,1973720.0
1551188787.40625,67.36,0.231823,33.31,1974240.0
1551188787.421875,60.89,0.224138,33.31,1974421.0
1551188787.4375,54.23,0.224138,33.31,1975388.0
1551188787.453125,47.22,0.224138,33.31,1976222.0
1551188787.46875,39.93,0.224138,33.31,1977426.0
1551188787.484375,32.7,0.221577,33.31,1978187.0
1551188787.5,26.0,0.2267,33.31,1979143.0
1551188787.515625,20.27,0.2267,33.31,1979694.0
1551188787.53125,15.75,0.2267,33.29,1978540.0
1551188787.546875,12.28,0.2267,33.29,1976790.0
1551188787.5625,9.35,0.227981,33.29,1975195.0
1551188787.578125,6.14,0.222858,33.29,1974289.0
1551188787.59375,1.7,0.222858,33.31,1973707.0
1551188787.609375,-4.73,0.221577,33.31,1974653.0
1551188787.625,-13.41,0.2267,33.31,1975710.0
1551188787.640625,-23.76,0.2267,33.31,1976001.0
1551188787.65625,-34.35,0.225419,33.29,1976922.0
1551188787.671875,-43.03,0.2267,33.29,1978325.0
1551188787.6875,-47.48,0.225419,33.29,1979824.0
1551188787.703125,-45.86,0.225419,33.29,1980720.0
1551188787.71875,-37.44,0.222858,33.31,1982121.0
1551188787.734375,-22.96,0.224138,33.31,1984493.0
1551188787.75,-4.59,0.2267,33.31,1987697.0
1551188787.765625,14.59,0.225419,33.31,1990215.0
1551188787.78125,31.35,0.2267,33.27,1991812.0
1551188787.796875,43.25,0.224138,33.27,1993115.0
1551188787.8125,49.15,0.224138,33.27,1993905.0
1551188787.828125,49.47,0.222858,33.27,1994540.0
1551188787.84375,45.69,0.224138,33.27,1994060.0
1551188787.859375,39.77,0.227981,33.27,1993367.0
1551188787.875,33.35,0.225419,33.27,1992616.0
1551188787.890625,27.36,0.225419,33.27,1991878.0
1551188787.90625,22.05,0.231823,33.27,1991929.0
1551188787.921875,17.32,0.233104,33.27,1993358.0
1551188787.9375,13.18,0.229262,33.27,1996368.0
1551188787.953125,9.84,0.227981,33.27,1997817.0
1551188787.96875,7.69,0.227981,33.27,1999357.0
1551188787.984375,6.93,0.229262,33.27,2000985.0
1551188788.0,7.35,0.2267,33.27,2002911.0
1551188788.015625,8.31,0.222858,33.27,2004540.0
1551188788.03125,9.09,0.222858,33.27,2005345.0
1551188788.046875,9.18,0.222858,33.27,2005939.0
1551188788.0625,8.57,0.227981,33.27,2006011.0
1551188788.078125,7.61,0.227981,33.27,2006116.0
1551188788.09375,6.68,0.227981,33.27,2006053.0
1551188788.109375,5.86,0.230542,33.27,2005437.0
1551188788.125,4.8,0.230542,33.27,2005251.0
1551188788.140625,2.8,0.230542,33.27,2005303.0
1551188788.15625,-0.7,0.230542,33.27,2004699.0
1551188788.171875,-5.89,0.234385,33.27,2002218.0
1551188788.1875,-12.33,0.234385,33.27,2000440.0
1551188788.203125,-19.12,0.233104,33.27,1998661.0
1551188788.21875,-25.22,0.230542,33.27,1996923.0
1551188788.234375,-29.86,0.230542,33.27,1995204.0
1551188788.25,-32.81,0.229262,33.27,1994153.0
1551188788.265625,-34.44,0.240789,33.27,1993174.0
1551188788.28125,-35.55,0.233104,33.27,1992107.0
1551188788.296875,-36.98,0.231823,33.27,1991176.0
1551188788.3125,-39.33,0.231823,33.27,1990792.0
1551188788.328125,-42.66,0.2267,33.27,1990413.0
1551188788.34375,-46.55,0.2267,33.25,1990246.0
1551188788.359375,-50.38,0.2267,33.25,1990286.0
1551188788.375,-53.55,0.227981,33.25,1990466.0
1551188788.390625,-55.86,0.229262,33.25,1990653.0
1551188788.40625,-57.55,0.229262,33.25,1990993.0
1551188788.421875,-59.23,0.224138,33.25,1991266.0
1551188788.4375,-61.67,0.233104,33.25,1991250.0
1551188788.453125,-65.51,0.227981,33.25,1991684.0
1551188788.46875,-70.98,0.231823,33.25,1991667.0
1551188788.484375,-77.77,0.229262,33.25,1989861.0
1551188788.5,-84.95,0.227981,33.25,1986588.0
1551188788.515625,-91.09,0.229262,33.25,1983757.0
1551188788.53125,-94.52,0.225419,33.27,1981732.0
1551188788.546875,-93.74,0.224138,33.27,1979848.0
1551188788.5625,-87.89,0.222858,33.27,1978762.0
1551188788.578125,-77.11,0.225419,33.27,1977925.0
1551188788.59375,-62.56,0.2267,33.25,1977294.0
1551188788.609375,-46.14,0.225419,33.25,1976542.0
1551188788.625,-29.9,0.225419,33.25,1976234.0
1551188788.640625,-15.46,0.224138,33.25,1975496.0
1551188788.65625,-3.58,0.224138,33.23,1975501.0
1551188788.671875,5.89,0.224138,33.23,1975564.0
1551188788.6875,13.66,0.2267,33.23,1975677.0
1551188788.703125,20.54,0.236946,33.23,1976069.0
1551188788.71875,26.99,0.235666,33.23,1976416.0
1551188788.734375,32.98,0.231823,33.23,1976989.0
1551188788.75,38.03,0.230542,33.23,1977496.0
1551188788.765625,41.6,0.227981,33.23,1978224.0
1551188788.78125,43.41,0.229262,33.23,1978571.0
1551188788.796875,43.58,0.230542,33.23,1978630.0
1551188788.8125,42.64,0.227981,33.23,1976682.0
1551188788.828125,41.29,0.227981,33.23,1974561.0
1551188788.84375,40.16,0.224138,33.25,1973059.0
1551188788.859375,39.57,0.224138,33.25,1971808.0
1551188788.875,39.53,0.229262,33.25,1971105.0
1551188788.890625,39.83,0.227981,33.25,1971296.0
1551188788.90625,40.22,0.2267,33.23,1971680.0
1551188788.921875,40.51,0.227981,33.23,1971962.0
1551188788.9375,40.63,0.224138,33.23,1972345.0
1551188788.953125,40.61,0.225419,33.23,1973085.0
1551188788.96875,40.45,0.2267,33.21,1974082.0
1551188788.984375,40.12,0.2267,33.21,1974550.0
1551188789.0,39.46,0.229262,33.21,1974680.0
1551188789.015625,38.27,0.2267,33.21,1974324.0
1551188789.03125,36.4,0.2267,33.23,1974550.0
1551188789.046875,33.79,0.224138,33.23,1975244.0
1551188789.0625,30.61,0.224138,33.23,1976182.0
1551188789.078125,27.2,0.233104,33.23,1977069.0
1551188789.09375,23.96,0.236946,33.23,1978109.0
1551188789.109375,21.18,0.233104,33.23,1977800.0
1551188789.125,18.88,0.231823,33.23,1975769.0
1551188789.140625,16.8,0.229262,33.23,1974024.0
1551188789.15625,14.48,0.225419,33.21,1972856.0
1551188789.171875,11.51,0.225419,33.21,1971700.0
1551188789.1875,7.69,0.2267,33.21,1970688.0
1551188789.203125,3.22,0.227981,33.21,1970301.0
1551188789.21875,-1.44,0.229262,33.23,1969992.0
1551188789.234375,-5.73,0.229262,33.23,1968953.0
1551188789.25,-9.22,0.225419,33.23,1968205.0
1551188789.265625,-11.88,0.2267,33.23,1967970.0
1551188789.28125,-14.06,0.224138,33.23,1967908.0
1551188789.296875,-16.38,0.2267,33.23,1968445.0
1551188789.3125,-19.5,0.227981,33.23,1968555.0
1551188789.328125,-23.89,0.238227,33.23,1968981.0
1551188789.34375,-29.76,0.238227,33.21,1969516.0
1551188789.359375,-36.95,0.234385,33.21,1969812.0
1551188789.375,-44.98,0.234385,33.21,1970487.0
1551188789.390625,-53.04,0.236946,33.21,1971439.0
1551188789.40625,-60.03,0.239508,33.21,1971859.0
1551188789.421875,-64.75,0.238227,33.21,1971458.0
1551188789.4375,-66.15,0.239508,33.21,1969146.0
1551188789.453125,-63.65,0.234385,33.21,1966807.0
1551188789.46875,-57.37,0.233104,33.21,1965142.0
1551188789.484375,-48.25,0.234385,33.21,1963372.0
1551188789.5,-37.74,0.238227,33.21,1961620.0
1551188789.515625,-27.44,0.238227,33.21,1960624.0
1551188789.53125,-18.56,0.238227,33.21,1959825.0
1551188789.546875,-11.71,0.234385,33.21,1959245.0
1551188789.5625,-6.83,0.234385,33.21,1958957.0
1551188789.578125,-3.47,0.234385,33.21,1958525.0
1551188789.59375,-1.06,0.236946,33.18,1958713.0
1551188789.609375,0.85,0.236946,33.18,1958902.0
1551188789.625,2.51,0.236946,33.18,1959322.0
1551188789.640625,4.02,0.238227,33.18,1959669.0
1551188789.65625,5.36,0.234385,33.18,1960355.0
1551188789.671875,6.55,0.233104,33.18,1960923.0
1551188789.6875,7.59,0.233104,33.18,1961989.0
1551188789.703125,8.47,0.234385,33.18,1964427.0
1551188789.71875,9.25,0.236946,33.18,1965738.0
1551188789.734375,9.94,0.234385,33.18,1967063.0
1551188789.75,10.63,0.234385,33.18,1966897.0
1551188789.765625,11.31,0.231823,33.18,1964839.0
1551188789.78125,12.03,0.234385,33.21,1963105.0
1551188789.796875,12.88,0.231823,33.21,1962112.0
1551188789.8125,14.01,0.235666,33.21,1961255.0
1551188789.828125,15.55,0.235666,33.21,1959894.0
1551188789.84375,17.5,0.234385,33.16,1959105.0
1551188789.859375,19.59,0.231823,33.16,1959525.0
1551188789.875,21.3,0.230542,33.16,1959778.0
1551188789.890625,21.94,0.230542,33.16,1960252.0
1551188789.90625,21.03,0.233104,33.18,1960869.0
1551188789.921875,18.46,0.231823,33.18,1961515.0
1551188789.9375,14.66,0.233104,33.18,1962420.0
1551188789.953125,10.42,0.234385,33.18,1963433.0
1551188789.96875,6.51,0.230542,33.18,1964587.0
1551188789.984375,3.42,0.230542,33.18,1965781.0
1551188790.0,1.14,0.234385,33.18,1967009.0
1551188790.015625,-0.76,0.235666,33.18,1968054.0
1551188790.03125,-2.81,0.236946,33.18,1969050.0
1551188790.046875,-5.36,0.239508,33.18,1970475.0
1551188790.0625,-8.4,0.236946,33.18,1972249.0
1551188790.078125,-11.6,0.234385,33.18,1973229.0
1551188790.09375,-14.53,0.234385,33.21,1973209.0
1551188790.109375,-16.94,0.236946,33.21,1971747.0
1551188790.125,-18.84,0.244631,33.21,1970154.0
1551188790.140625,-20.59,0.24335,33.21,1969091.0
1551188790.15625,-22.68,0.247193,33.15,1968018.0
1551188790.171875,-25.59,0.248473,33.15,1967151.0
1551188790.1875,-29.51,0.247193,33.15,1966925.0
1551188790.203125,-34.38,0.244631,33.15,1966399.0
1551188790.21875,-39.79,0.24335,33.16,1965750.0
1551188790.234375,-45.09,0.247193,33.16,1965632.0
1551188790.25,-49.41,0.24335,33.16,1965410.0
1551188790.265625,-51.88,0.245912,33.16,1965775.0
1551188790.28125,-51.76,0.244631,33.15,1966155.0
1551188790.296875,-48.67,0.240789,33.15,1966830.0
1551188790.3125,-42.83,0.239508,33.15,1969093.0
1551188790.328125,-35.04,0.239508,33.15,1972683.0
1551188790.34375,-26.48,0.242069,33.18,1976125.0
1551188790.359375,-18.39,0.24335,33.18,1979147.0
1551188790.375,-11.71,0.244631,33.18,1981780.0
1551188790.390625,-6.85,0.244631,33.18,1983598.0
1551188790.40625,-3.62,0.240789,33.16,1985170.0
1551188790.421875,-1.49,0.240789,33.16,1986110.0
1551188790.4375,0.21,0.242069,33.16,1984980.0
1551188790.453125,1.94,0.245912,33.16,1982927.0
1551188790.46875,3.86,0.247193,33.16,1980564.0
1551188790.484375,5.79,0.245912,33.16,1978960.0
1551188790.5,7.44,0.245912,33.16,1977428.0
1551188790.515625,8.58,0.244631,33.16,1976387.0
1551188790.53125,9.21,0.244631,33.15,1975974.0
1551188790.546875,9.56,0.239508,33.15,1976027.0
1551188790.5625,9.95,0.24335,33.15,1975732.0
1551188790.578125,10.64,0.244631,33.15,1975637.0
1551188790.59375,11.64,0.24335,33.15,1976041.0
1551188790.609375,12.82,0.242069,33.15,1976248.0
1551188790.625,13.91,0.238227,33.15,1976872.0
1551188790.640625,14.8,0.239508,33.15,1977225.0
1551188790.65625,15.49,0.239508,33.16,1977439.0
1551188790.671875,16.1,0.240789,33.16,1977995.0
1551188790.6875,16.68,0.242069,33.16,1978201.0
1551188790.703125,17.1,0.242069,33.16,1978918.0
1551188790.71875,17.03,0.242069,33.15,1979667.0
1551188790.734375,16.13,0.238227,33.15,1980749.0
1551188790.75,14.23,0.240789,33.15,1981904.0
1551188790.765625,11.48,0.240789,33.15,1981998.0
1551188790.78125,8.33,0.239508,33.13,1980389.0
1551188790.796875,5.34,0.239508,33.13,1978892.0
1551188790.8125,2.9,0.240789,33.13,1977985.0
1551188790.828125,1.17,0.242069,33.13,1977550.0
1551188790.84375,-0.08,0.240789,33.15,1976867.0
1551188790.859375,-1.23,0.238227,33.15,1976018.0
1551188790.875,-2.69,0.238227,33.15,1976125.0
1551188790.890625,-4.71,0.239508,33.15,1976240.0
1551188790.90625,-7.27,0.244631,33.15,1976204.0
1551188790.921875,-10.17,0.244631,33.15,1976794.0
1551188790.9375,-13.08,0.24335,33.15,1978832.0
1551188790.953125,-15.72,0.242069,33.15,1980825.0
1551188790.96875,-17.94,0.239508,33.13,1982776.0
1551188790.984375,-19.83,0.239508,33.13,1984414.0
1551188791.0,-21.72,0.239508,33.13,1986631.0
1551188791.015625,-24.06,0.242069,33.13,1988871.0
1551188791.03125,-27.3,0.245912,33.15,1990584.0
1551188791.046875,-31.69,0.24335,33.15,1992064.0
1551188791.0625,-37.06,0.242069,33.15,1993330.0
1551188791.078125,-42.81,0.239508,33.15,1994634.0
1551188791.09375,-47.9,0.240789,33.15,1994554.0
1551188791.109375,-51.13,0.239508,33.15,1993309.0
1551188791.125,-51.47,0.244631,33.15,1991508.0
1551188791.140625,-48.41,0.244631,33.15,1990413.0
1551188791.15625,-42.19,0.244631,33.13,1989665.0
1551188791.171875,-33.74,0.245912,33.13,1988667.0
1551188791.1875,-24.45,0.244631,33.13,1988506.0
1551188791.203125,-15.71,0.242069,33.13,1987839.0
1551188791.21875,-8.47,0.24335,33.13,1986936.0
1551188791.234375,-3.1,0.242069,33.13,1986316.0
1551188791.25,0.68,0.24335,33.13,1986191.0
1551188791.265625,3.44,0.245912,33.13,1985913.0
1551188791.28125,5.76,0.245912,33.13,1986179.0
1551188791.296875,7.95,0.245912,33.13,1986622.0
1551188791.3125,9.98,0.242069,33.13,1986926.0
1551188791.328125,11.63,0.242069,33.13,1987487.0
1551188791.34375,12.74,0.242069,33.13,1988071.0
1551188791.359375,13.29,0.244631,33.13,1988729.0
1551188791.375,13.49,0.247193,33.13,1989209.0
1551188791.390625,13.68,0.245912,33.13,1989739.0
1551188791.40625,14.13,0.245912,33.15,1990178.0
1551188791.421875,14.93,0.240789,33.15,1989481.0
1551188791.4375,15.95,0.239508,33.15,1987043.0
1551188791.453125,16.9,0.240789,33.15,1984544.0
1551188791.46875,17.5,0.247193,33.13,1982409.0
1551188791.484375,17.59,0.249754,33.13,1980684.0
1551188791.5,17.24,0.251035,33.13,1978940.0
1551188791.515625,16.61,0.249754,33.13,1977377.0
1551188791.53125,15.92,0.244631,33.13,1976325.0
1551188791.546875,15.27,0.244631,33.13,1975215.0
1551188791.5625,14.62,0.245912,33.13,1974329.0
1551188791.578125,13.77,0.248473,33.13,1973808.0
1551188791.59375,12.49,0.248473,33.13,1973683.0
1551188791.609375,10.62,0.248473,33.13,1973636.0
1551188791.625,8.16,0.244631,33.13,1973691.0
1551188791.640625,5.32,0.24335,33.13,1974255.0
1551188791.65625,2.37,0.242069,33.11,1974742.0
1551188791.671875,-0.38,0.242069,33.11,1975406.0
1551188791.6875,-2.76,0.24335,33.11,1975888.0
1551188791.703125,-4.75,0.245912,33.11,1976795.0
1551188791.71875,-6.43,0.245912,33.13,1977961.0
1551188791.734375,-7.98,0.244631,33.13,1978701.0
1551188791.75,-9.59,0.24335,33.13,1978684.0
1551188791.765625,-11.39,0.240789,33.13,1976626.0
1551188791.78125,-13.5,0.242069,33.13,1975030.0
1551188791.796875,-15.95,0.240789,33.13,1974009.0
1551188791.8125,-18.65,0.247193,33.13,1973510.0
1551188791.828125,-21.31,0.247193,33.13,1972705.0
1551188791.84375,-23.54,0.245912,33.11,1972634.0
1551188791.859375,-25.02,0.244631,33.11,1972453.0
1551188791.875,-25.67,0.242069,33.11,1972609.0
1551188791.890625,-25.79,0.242069,33.11,1973329.0
1551188791.90625,-26.01,0.240789,33.11,1974206.0
1551188791.921875,-27.03,0.24335,33.11,1975082.0
1551188791.9375,-29.32,0.245912,33.11,1976378.0
1551188791.953125,-32.84,0.245912,33.11,1977935.0
1551188791.96875,-37.0,0.244631,33.09,1979403.0
1551188791.984375,-40.8,0.245912,33.09,1980415.0
1551188792.0,-43.12,0.242069,33.09,1981169.0
1551188792.015625,-43.05,0.24335,33.09,1982118.0
1551188792.03125,-40.18,0.24335,33.11,1983568.0
1551188792.046875,-34.68,0.244631,33.11,1984643.0
1551188792.0625,-27.24,0.245912,33.11,1983824.0
1551188792.078125,-18.89,0.244631,33.11,1981792.0
1551188792.09375,-10.73,0.245912,33.11,1979820.0
1551188792.109375,-3.66,0.24335,33.11,1978535.0
1551188792.125,1.82,0.242069,33.11,1977252.0
1551188792.140625,5.6,0.244631,33.11,1976059.0
1551188792.15625,7.96,0.244631,33.09,1975201.0
1551188792.171875,9.37,0.245912,33.09,1974413.0
1551188792.1875,10.2,0.247193,33.09,1973155.0
1551188792.203125,10.78,0.247193,33.09,1972181.0
1551188792.21875,11.22,0.247193,33.11,1971194.0
1551188792.234375,11.57,0.244631,33.11,1970881.0
1551188792.25,11.82,0.24335,33.11,1970397.0
1551188792.265625,12.01,0.245912,33.11,1970001.0
1551188792.28125,12.17,0.248473,33.09,1969668.0
1551188792.296875,12.35,0.248473,33.09,1969093.0
1551188792.3125,12.53,0.245912,33.09,1969324.0
1551188792.328125,12.65,0.247193,33.09,1969775.0
1551188792.34375,12.69,0.244631,33.09,1969880.0
1551188792.359375,12.68,0.244631,33.09,1970287.0
1551188792.375,12.71,0.244631,33.09,1968867.0
1551188792.390625,12.92,0.253597,33.09,1966150.0
1551188792.40625,13.33,0.248473,33.09,1963641.0
1551188792.421875,13.79,0.248473,33.09,1961533.0
1551188792.4375,14.01,0.247193,33.09,1959087.0
1551188792.453125,13.62,0.248473,33.09,1956887.0
1551188792.46875,12.41,0.247193,33.11,1955645.0
1551188792.484375,10.41,0.244631,33.11,1954366.0
1551188792.5,7.92,0.24335,33.11,1953367.0
1551188792.515625,5.32,0.245912,33.11,1952008.0
1551188792.53125,2.92,0.248473,33.09,1951136.0
1551188792.546875,0.82,0.247193,33.09,1950778.0
1551188792.5625,-1.09,0.248473,33.09,1950354.0
1551188792.578125,-3.04,0.247193,33.09,1950529.0
1551188792.59375,-5.21,0.244631,33.09,1950725.0
1551188792.609375,-7.63,0.244631,33.09,1950792.0
1551188792.625,-10.2,0.249754,33.09,1951183.0
1551188792.640625,-12.7,0.249754,33.09,1952321.0
1551188792.65625,-14.95,0.249754,33.09,1953417.0
1551188792.671875,-16.83,0.249754,33.09,1953774.0
1551188792.6875,-18.36,0.247193,33.09,1952944.0
1551188792.703125,-19.66,0.245912,33.09,1951801.0
1551188792.71875,-21.0,0.245912,33.07,1951667.0
1551188792.734375,-22.72,0.247193,33.07,1951453.0
1551188792.75,-25.18,0.251035,33.07,1950564.0
1551188792.765625,-28.6,0.249754,33.07,1949889.0
1551188792.78125,-32.87,0.249754,33.11,1949307.0
1551188792.796875,-37.4,0.249754,33.11,1949121.0
1551188792.8125,-41.18,0.244631,33.11,1948108.0
1551188792.828125,-43.0,0.244631,33.11,1947502.0
1551188792.84375,-41.83,0.247193,33.05,1947145.0
1551188792.859375,-37.33,0.248473,33.05,1947214.0
1551188792.875,-29.92,0.249754,33.05,1947426.0
1551188792.890625,-20.75,0.249754,33.05,1947949.0
1551188792.90625,-11.27,0.248473,33.09,1948463.0
1551188792.921875,-2.74,0.249754,33.09,1948769.0
1551188792.9375,4.12,0.245912,33.09,1949247.0
1551188792.953125,9.23,0.245912,33.09,1949612.0
1551188792.96875,13.01,0.245912,33.09,1949833.0
1551188792.984375,16.01,0.248473,33.09,1950011.0
1551188793.0,18.65,0.251035,33.09,1950198.0
1551188793.015625,21.08,0.251035,33.09,1948743.0
1551188793.03125,23.29,0.251035,33.07,1946255.0
1551188793.046875,25.19,0.247193,33.07,1943695.0
1551188793.0625,26.82,0.247193,33.07,1941709.0
1551188793.078125,28.39,0.248473,33.07,1940290.0
1551188793.09375,30.19,0.245912,33.07,1938892.0
1551188793.109375,32.49,0.251035,33.07,1938240.0
1551188793.125,35.29,0.249754,33.07,1937761.0
1551188793.140625,38.27,0.251035,33.07,1937061.0
1551188793.15625,40.8,0.249754,33.07,1936245.0
1551188793.171875,42.11,0.248473,33.07,1936418.0
1551188793.1875,41.6,0.251035,33.07,1936508.0
1551188793.203125,39.11,0.247193,33.07,1936872.0
1551188793.21875,34.98,0.252316,33.05,1938035.0
1551188793.234375,30.02,0.251035,33.05,1938904.0
1551188793.25,25.15,0.252316,33.05,1937709.0
1551188793.265625,21.05,0.252316,33.05,1940266.0
1551188793.28125,17.95,0.248473,33.05,1939707.0
1551188793.296875,15.61,0.248473,33.05,1942375.0
1551188793.3125,13.52,0.247193,33.05,1941346.0
1551188793.328125,11.23,0.248473,33.05,1943637.0
1551188793.34375,8.52,0.252316,33.03,1942708.0
1551188793.359375,5.49,0.252316,33.03,1940361.0
1551188793.375,2.38,0.251035,33.03,1938385.0
1551188793.390625,-0.67,0.248473,33.03,1937244.0
1551188793.40625,-3.74,0.248473,33.07,1936216.0
1551188793.421875,-7.09,0.248473,33.07,1935179.0
1551188793.4375,-10.97,0.253597,33.07,1935222.0
1551188793.453125,-15.4,0.253597,33.07,1935390.0
1551188793.46875,-20.09,0.252316,33.07,1935526.0
1551188793.484375,-24.52,0.251035,33.07,1936005.0
1551188793.5,-28.22,0.248473,33.07,1936247.0
1551188793.515625,-31.04,0.248473,33.07,1936692.0
1551188793.53125,-33.24,0.247193,33.05,1936615.0
1551188793.546875,-35.4,0.251035,33.05,1936820.0
1551188793.5625,-38.22,0.252316,33.05,1937466.0
1551188793.578125,-42.15,0.252316,33.05,1938089.0
1551188793.59375,-47.27,0.251035,33.05,1938937.0
1551188793.609375,-53.13,0.248473,33.05,1939770.0
1551188793.625,-58.91,0.248473,33.05,1940562.0
1551188793.640625,-63.57,0.248473,33.05,1941464.0
1551188793.65625,-66.05,0.247193,33.05,1942448.0
1551188793.671875,-65.64,0.249754,33.05,1943332.0
1551188793.6875,-62.09,0.251035,33.05,1942301.0
1551188793.703125,-55.72,0.252316,33.05,1940153.0
1551188793.71875,-47.42,0.251035,33.03,1938899.0
1551188793.734375,-38.32,0.248473,33.03,1937947.0
1551188793.75,-29.54,0.248473,33.03,1936947.0
1551188793.765625,-21.84,0.249754,33.03,1936702.0
1551188793.78125,-15.47,0.252316,33.03,1936468.0
1551188793.796875,-10.2,0.251035,33.03,1936121.0
1551188793.8125,-5.53,0.252316,33.03,1935680.0
1551188793.828125,-0.9,0.252316,33.03,1935488.0
1551188793.84375,3.94,0.251035,33.03,1935716.0
1551188793.859375,8.96,0.248473,33.03,1935740.0
1551188793.875,13.83,0.248473,33.03,1936270.0
1551188793.890625,18.14,0.253597,33.03,1936596.0
1551188793.90625,21.54,0.252316,33.05,1937304.0
1551188793.921875,23.91,0.253597,33.05,1937916.0
1551188793.9375,25.35,0.253597,33.05,1938802.0
1551188793.953125,26.13,0.249754,33.05,1939477.0
1551188793.96875,26.55,0.249754,33.05,1940220.0
1551188793.984375,26.82,0.248473,33.05,1941307.0
1551188794.0,27.04,0.251035,33.05,1942195.0
1551188794.015625,27.25,0.253597,33.05,1941493.0
1551188794.03125,27.46,0.253597,33.05,1938990.0
1551188794.046875,27.73,0.253597,33.05,1937248.0
1551188794.0625,28.15,0.249754,33.05,1935539.0
1551188794.078125,28.69,0.249754,33.05,1934256.0
1551188794.09375,29.15,0.248473,33.03,1932714.0
1551188794.109375,29.22,0.249754,33.03,1932107.0
1551188794.125,28.48,0.253597,33.03,1931577.0
1551188794.140625,26.72,0.253597,33.03,1931063.0
1551188794.15625,23.97,0.253597,33.03,1930795.0
1551188794.171875,20.58,0.253597,33.03,1931637.0
1551188794.1875,17.1,0.249754,33.03,1932585.0
1551188794.203125,14.1,0.248473,33.03,1933241.0
1551188794.21875,11.96,0.248473,33.03,1933841.0
1551188794.234375,10.67,0.251035,33.03,1934160.0
1551188794.25,9.9,0.253597,33.03,1934602.0
1551188794.265625,9.07,0.252316,33.03,1936080.0
1551188794.28125,7.65,0.252316,33.03,1938004.0
1551188794.296875,5.35,0.248473,33.03,1938917.0
1551188794.3125,2.31,0.251035,33.03,1939571.0
1551188794.328125,-0.96,0.248473,33.03,1940423.0
1551188794.34375,-3.87,0.248473,33.03,1941070.0
1551188794.359375,-5.96,0.249754,33.03,1940456.0
1551188794.375,-7.14,0.252316,33.03,1940357.0
1551188794.390625,-7.75,0.252316,33.03,1939711.0
1551188794.40625,-8.35,0.252316,33.03,1939245.0
1551188794.421875,-9.55,0.248473,33.03,1938569.0
1551188794.4375,-11.83,0.251035,33.03,1938275.0
1551188794.453125,-15.5,0.249754,33.03,1938103.0
1551188794.46875,-20.61,0.249754,33.03,1938258.0
1551188794.484375,-26.87,0.252316,33.03,1938104.0
1551188794.5,-33.55,0.252316,33.03,1938194.0
1551188794.515625,-39.44,0.252316,33.03,1938606.0
1551188794.53125,-43.05,0.251035,33.03,1939114.0
1551188794.546875,-43.11,0.249754,33.03,1940023.0
1551188794.5625,-39.15,0.249754,33.03,1940529.0
1551188794.578125,-31.79,0.252316,33.03,1941704.0
1551188794.59375,-22.58,0.251035,33.03,1942352.0
1551188794.609375,-13.5,0.253597,33.03,1943336.0
1551188794.625,-6.12,0.256158,33.03,1944374.0
1551188794.640625,-1.18,0.254877,33.03,1945577.0
1551188794.65625,1.5,0.254877,33.03,1946656.0
1551188794.671875,2.69,0.256158,33.03,1947923.0
1551188794.6875,3.24,0.252316,33.03,1949133.0
1551188794.703125,3.71,0.252316,33.03,1949366.0
1551188794.71875,4.38,0.251035,33.0,1947720.0
1551188794.734375,5.26,0.254877,33.0,1946282.0
1551188794.75,6.34,0.256158,33.0,1945330.0
1551188794.765625,7.6,0.254877,33.0,1944695.0
1551188794.78125,9.02,0.254877,33.03,1944023.0
1551188794.796875,10.49,0.254877,33.03,1944206.0
1551188794.8125,11.86,0.251035,33.03,1943973.0
1551188794.828125,12.96,0.249754,33.03,1943912.0
1551188794.84375,13.73,0.252316,33.0,1943684.0
1551188794.859375,14.22,0.251035,33.0,1943859.0
1551188794.875,14.58,0.252316,33.0,1944070.0
1551188794.890625,14.96,0.252316,33.0,1944709.0
1551188794.90625,15.44,0.252316,32.99,1945368.0
1551188794.921875,15.99,0.252316,32.99,1946081.0
1551188794.9375,16.52,0.249754,32.99,1947706.0
1551188794.953125,16.88,0.249754,32.99,1949860.0
1551188794.96875,16.91,0.249754,33.0,1946838.0
1551188794.984375,16.51,0.248473,33.0,1948825.0
1551188795.0,15.62,0.253597,33.0,1951535.0
1551188795.015625,14.29,0.253597,33.0,1952787.0
1551188795.03125,12.67,0.253597,33.0,1953696.0
1551188795.046875,10.91,0.251035,33.0,1952945.0
1551188795.0625,9.12,0.249754,33.0,1951761.0
1551188795.078125,7.35,0.248473,33.0,1950715.0
1551188795.09375,5.51,0.248473,33.0,1950747.0
1551188795.109375,3.45,0.251035,33.0,1951399.0
1551188795.125,0.97,0.253597,33.0,1952118.0
1551188795.140625,-2.03,0.252316,33.0,1952976.0
1551188795.15625,-5.49,0.257439,33.0,1953663.0
1551188795.171875,-9.17,0.254877,33.0,1954543.0
1551188795.1875,-12.73,0.253597,33.0,1955435.0
1551188795.203125,-15.85,0.254877,33.0,1956324.0
1551188795.21875,-18.39,0.260001,33.0,1956958.0
1551188795.234375,-20.44,0.25872,33.0,1957882.0
1551188795.25,-22.31,0.25872,33.0,1958980.0
1551188795.265625,-24.41,0.25872,33.0,1961551.0
1551188795.28125,-27.17,0.257439,32.99,1960231.0
1551188795.296875,-30.89,0.254877,32.99,1964714.0
1551188795.3125,-35.64,0.254877,32.99,1963120.0
1551188795.328125,-41.17,0.260001,32.99,1966401.0
1551188795.34375,-46.82,0.263843,32.99,1967600.0
1551188795.359375,-51.6,0.265124,32.99,1966948.0
1551188795.375,-54.33,0.267685,32.99,1965013.0
1551188795.390625,-54.02,0.267685,32.99,1962683.0
1551188795.40625,-50.27,0.262562,32.99,1960763.0
1551188795.421875,-43.44,0.262562,32.99,1959130.0
1551188795.4375,-34.62,0.265124,32.99,1956129.0
1551188795.453125,-25.27,0.271528,32.99,1955674.0
1551188795.46875,-16.7,0.271528,32.99,1955104.0
1551188795.484375,-9.63,0.271528,32.99,1954686.0
1551188795.5,-4.12,0.270247,32.99,1955520.0
1551188795.515625,0.28,0.266405,32.99,1954859.0
1551188795.53125,4.1,0.268966,32.99,1957172.0
1551188795.546875,7.69,0.266405,32.99,1956545.0
1551188795.5625,11.03,0.267685,32.99,1958745.0
1551188795.578125,13.88,0.270247,32.99,1959610.0
1551188795.59375,15.98,0.267685,32.97,1957878.0
1551188795.609375,17.32,0.267685,32.97,1960663.0
1551188795.625,18.08,0.265124,32.97,1961410.0
1551188795.640625,18.63,0.266405,32.97,1962012.0
1551188795.65625,19.29,0.266405,32.97,1962601.0
1551188795.671875,20.2,0.266405,32.97,1963221.0
1551188795.6875,21.29,0.268966,32.97,1963471.0
1551188795.703125,22.37,0.268966,32.97,1961652.0
1551188795.71875,23.28,0.267685,32.99,1958983.0
1551188795.734375,23.95,0.263843,32.99,1957160.0
1551188795.75,24.46,0.263843,32.99,1955087.0
1551188795.765625,24.86,0.263843,32.99,1952895.0
1551188795.78125,25.18,0.266405,32.99,1951620.0
1551188795.796875,25.24,0.267685,32.99,1951257.0
1551188795.8125,24.84,0.263843,32.99,1950661.0
1551188795.828125,23.85,0.263843,32.99,1949963.0
1551188795.84375,22.29,0.262562,32.99,1949493.0
1551188795.859375,20.4,0.261281,32.99,1949132.0
1551188795.875,18.47,0.262562,32.99,1949257.0
1551188795.890625,16.71,0.263843,32.99,1949702.0
1551188795.90625,15.13,0.267685,32.97,1950237.0
1551188795.921875,13.52,0.266405,32.97,1950771.0
1551188795.9375,11.63,0.266405,32.97,1951508.0
1551188795.953125,9.27,0.265124,32.97,1951951.0
1551188795.96875,6.46,0.263843,32.99,1952691.0
1551188795.984375,3.39,0.261281,32.99,1953551.0
1551188796.0,0.33,0.266405,32.99,1954698.0
1551188796.015625,-2.55,0.266405,32.99,1955549.0
1551188796.03125,-5.15,0.266405,32.97,1955151.0
1551188796.046875,-7.58,0.266405,32.97,1953169.0
1551188796.0625,-9.98,0.265124,32.97,1951481.0
1551188796.078125,-12.54,0.262562,32.97,1950230.0
1551188796.09375,-15.43,0.262562,32.95,1949089.0
1551188796.109375,-18.85,0.262562,32.95,1948180.0
1551188796.125,-22.86,0.265124,32.95,1948040.0
1551188796.140625,-27.32,0.267685,32.95,1947731.0
1551188796.15625,-31.74,0.267685,32.97,1947133.0
1551188796.171875,-35.27,0.266405,32.97,1946723.0
1551188796.1875,-36.88,0.266405,32.97,1946774.0
1551188796.203125,-35.66,0.262562,32.97,1947125.0
1551188796.21875,-31.26,0.263843,32.99,1947529.0
1551188796.234375,-24.06,0.262562,32.99,1947980.0
1551188796.25,-15.17,0.266405,32.99,1948679.0
1551188796.265625,-6.05,0.268966,32.99,1949559.0
1551188796.28125,1.97,0.267685,32.97,1950049.0
1551188796.296875,8.11,0.267685,32.97,1950905.0
1551188796.3125,12.3,0.265124,32.97,1951563.0
1551188796.328125,14.98,0.263843,32.97,1952392.0
1551188796.34375,16.76,0.263843,32.97,1953121.0
1551188796.359375,18.11,0.266405,32.97,1952365.0
1551188796.375,19.16,0.267685,32.97,1950667.0
1551188796.390625,19.83,0.267685,32.97,1948387.0
1551188796.40625,20.05,0.267685,32.97,1947005.0
1551188796.421875,19.9,0.265124,32.97,1945533.0
1551188796.4375,19.7,0.263843,32.97,1944697.0
1551188796.453125,19.79,0.263843,32.97,1943974.0
1551188796.46875,20.43,0.262562,32.95,1943670.0
1551188796.484375,21.62,0.266405,32.95,1943508.0
1551188796.5,23.13,0.266405,32.95,1943179.0
1551188796.515625,24.62,0.267685,32.95,1942946.0
1551188796.53125,25.79,0.267685,32.97,1943356.0
1551188796.546875,26.49,0.265124,32.97,1943599.0
1551188796.5625,26.69,0.263843,32.97,1944204.0
1551188796.578125,26.43,0.265124,32.97,1944878.0
1551188796.59375,25.78,0.263843,32.97,1945781.0
1551188796.609375,24.75,0.267685,32.97,1946337.0
1551188796.625,23.31,0.267685,32.97,1947264.0
1551188796.640625,21.41,0.267685,32.97,1948481.0
1551188796.65625,19.08,0.267685,32.97,1949524.0
1551188796.671875,16.37,0.265124,32.97,1950397.0
1551188796.6875,13.46,0.265124,32.97,1950941.0
1551188796.703125,10.49,0.265124,32.97,1949197.0
1551188796.71875,7.56,0.265124,32.95,1946959.0
1551188796.734375,4.57,0.266405,32.95,1945161.0
1551188796.75,1.28,0.268966,32.95,1943522.0
1551188796.765625,-2.54,0.268966,32.95,1942040.0
1551188796.78125,-6.99,0.266405,32.95,1941202.0
1551188796.796875,-11.85,0.265124,32.95,1941047.0
1551188796.8125,-16.72,0.265124,32.95,1940388.0
1551188796.828125,-21.14,0.266405,32.95,1939926.0
1551188796.84375,-24.89,0.267685,32.95,1939922.0
1551188796.859375,-28.14,0.266405,32.95,1940314.0
1551188796.875,-31.45,0.271528,32.95,1940828.0
1551188796.890625,-35.48,0.268966,32.95,1941795.0
1551188796.90625,-40.65,0.267685,32.95,1943423.0
1551188796.921875,-46.91,0.265124,32.95,1945540.0
1551188796.9375,-53.5,0.265124,32.95,1946560.0
1551188796.953125,-59.17,0.267685,32.95,1947459.0
1551188796.96875,-62.48,0.266405,32.93,1948410.0
1551188796.984375,-62.3,0.268966,32.93,1949472.0
1551188797.0,-58.18,0.267685,32.93,1950776.0
1551188797.015625,-50.56,0.267685,32.93,1951880.0
1551188797.03125,-40.65,0.265124,32.95,1952205.0
1551188797.046875,-30.04,0.265124,32.95,1950771.0
1551188797.0625,-20.18,0.263843,32.95,1949165.0
1551188797.078125,-11.97,0.267685,32.95,1947321.0
1551188797.09375,-5.6,0.268966,32.93,1948058.0
1551188797.109375,-0.67,0.268966,32.93,1946507.0
1551188797.125,3.51,0.270247,32.93,1946330.0
1551188797.140625,7.53,0.266405,32.93,1945936.0
1551188797.15625,11.69,0.265124,32.95,1946111.0
1551188797.171875,15.91,0.263843,32.95,1945650.0
1551188797.1875,19.87,0.240789,32.95,1946426.0
1551188797.203125,23.16,0.248473,32.95,1946277.0
1551188797.21875,25.5,0.239508,32.93,1947810.0
1551188797.234375,26.87,0.238227,32.93,1949414.0
1551188797.25,27.49,0.265124,32.93,1950003.0
1551188797.265625,27.79,0.247193,32.93,1948706.0
1551188797.28125,28.19,0.234385,32.95,1946995.0
1551188797.296875,28.89,0.230542,32.95,1951282.0
1551188797.3125,29.89,0.230542,32.95,1952378.0
1551188797.328125,31.0,0.231823,32.95,1953574.0
1551188797.34375,32.04,0.231823,32.95,1954983.0
1551188797.359375,32.94,0.229262,32.95,1956068.0
1551188797.375,33.69,0.233104,32.95,1955063.0
1551188797.390625,34.2,0.231823,32.95,1953196.0
1551188797.40625,34.24,0.233104,32.93,1951576.0
1551188797.421875,33.39,0.234385,32.93,1950420.0
1551188797.4375,31.28,0.235666,32.93,1948963.0
1551188797.453125,27.8,0.230542,32.93,1948142.0
1551188797.46875,23.24,0.239508,32.93,1947652.0
1551188797.484375,18.25,0.24335,32.93,1947224.0
1551188797.5,13.49,0.247193,32.93,1946927.0
1551188797.515625,9.42,,,1946712.0
1551188797.53125,6.02,,,1946997.0
1551188797.546875,2.94,,,1947463.0
1551188797.5625,-0.33,,,1947793.0
1551188797.578125,-4.14,,,1948749.0
1551188797.59375,-8.49,,,1949354.0
1551188797.609375,-13.13,,,1950489.0
1551188797.625,-17.66,,,1951693.0
1551188797.640625,-21.72,,,1952596.0
1551188797.65625,-25.2,,,1953931.0
1551188797.671875,-28.27,,,1955401.0
1551188797.6875,-31.34,,,1956866.0
1551188797.703125,-34.89,,,1957807.0
1551188797.71875,-39.39,,,1957157.0
1551188797.734375,-45.02,,,1955816.0
1551188797.75,-51.54,,,1954645.0
1551188797.765625,-58.22,,,1953696.0
1551188797.78125,-63.9,,,1952821.0
1551188797.796875,-67.22,,,1952077.0
1551188797.8125,-67.08,,,1952025.0
1551188797.828125,-62.92,,,1951840.0
1551188797.84375,-55.04,,,1951650.0
1551188797.859375,-44.47,,,1951608.0
1551188797.875,-32.69,,,1952547.0
1551188797.890625,-21.17,,,1953527.0
1551188797.90625,-10.92,,,1954012.0
1551188797.921875,-2.29,,,1954040.0
1551188797.9375,4.92,,,1954524.0
1551188797.953125,11.22,,,1955869.0
1551188797.96875,17.19,,,1957256.0
1551188797.984375,23.17,,,1958795.0
1551188798.0,29.26,,,1960648.0
1551188798.015625,35.32,,,1961871.0
1551188798.03125,41.06,,,1963177.0
1551188798.046875,46.17,,,1964555.0
1551188798.0625,50.38,,,1964174.0
1551188798.078125,53.55,,,1963001.0
1551188798.09375,55.75,,,1961861.0
1551188798.109375,57.23,,,1961581.0
1551188798.125,58.37,,,1961381.0
1551188798.140625,59.63,,,1961578.0
1551188798.15625,61.41,,,1962103.0
1551188798.171875,63.85,,,1962086.0
1551188798.1875,66.88,,,1962446.0
1551188798.203125,70.01,,,1962669.0
1551188798.21875,72.48,,,1963169.0
1551188798.234375,73.37,,,1964040.0
1551188798.25,71.75,,,1964924.0
1551188798.265625,66.98,,,1965776.0
1551188798.28125,58.91,,,1966980.0
1551188798.296875,47.94,,,1967873.0
1551188798.3125,35.02,,,1969025.0
1551188798.328125,21.42,,,1970120.0
1551188798.34375,8.37,,,1971451.0
1551188798.359375,-3.22,,,1972640.0
1551188798.375,-12.91,,,1974066.0
1551188798.390625,-20.77,,,1975191.0
1551188798.40625,-27.14,,,1974915.0
1551188798.421875,-32.39,,,1973415.0
1551188798.4375,-36.77,,,1972144.0
1551188798.453125,-40.38,,,1971486.0
1551188798.46875,-43.18,,,1970477.0
1551188798.484375,-45.28,,,1969563.0
1551188798.5,-46.96,,,1969439.0
1551188798.515625,-48.68,,,1969546.0
1551188798.53125,-50.97,,,1969341.0
1551188798.546875,-54.21,,,1969350.0
1551188798.5625,-58.52,,,1969744.0
1551188798.578125,-63.63,,,1970209.0
1551188798.59375,-68.88,,,1970759.0
1551188798.609375,-73.28,,,1971469.0
1551188798.625,-75.65,,,1972431.0
1551188798.640625,-74.93,,,1972921.0
1551188798.65625,-70.48,,,1973576.0
1551188798.671875,-62.36,,,1974495.0
1551188798.6875,-51.32,,,1975367.0
1551188798.703125,-38.64,,,1976409.0
1551188798.71875,-25.71,,,1977494.0
1551188798.734375,-13.65,,,1978526.0
1551188798.75,-3.07,,,1978668.0
1551188798.765625,5.93,,,1976845.0
1551188798.78125,13.56,,,1975482.0
1551188798.796875,20.05,,,1974393.0
1551188798.8125,25.53,,,1972460.0
1551188798.828125,29.96,,,1970811.0
1551188798.84375,33.19,,,1969967.0
1551188798.859375,35.13,,,1969992.0
1551188798.875,35.84,,,1970676.0
1551188798.890625,35.55,,,1971000.0
1551188798.90625,34.61,,,1971759.0
1551188798.921875,33.41,,,1972198.0
1551188798.9375,32.3,,,1972756.0
1551188798.953125,31.45,,,1973391.0
1551188798.96875,30.96,,,1974328.0
1551188798.984375,30.8,,,1975172.0
1551188799.0,30.93,,,1975988.0
1551188799.015625,31.3,,,1976910.0
1551188799.03125,31.86,,,1977821.0
1551188799.046875,32.41,,,1978928.0
1551188799.0625,32.7,,,1980805.0
1551188799.078125,32.4,,,1981939.0
1551188799.09375,31.24,,,1982034.0
1551188799.109375,29.19,,,1980815.0
1551188799.125,26.51,,,1979611.0
1551188799.140625,23.63,,,1979068.0
1551188799.15625,20.95,,,1978155.0
1551188799.171875,18.65,,,1977339.0
1551188799.1875,16.61,,,1977246.0
1551188799.203125,14.45,,,1977392.0
1551188799.21875,11.82,,,1977064.0
1551188799.234375,8.55,,,1977090.0
1551188799.25,4.77,,,1977100.0
1551188799.265625,0.84,,,1977334.0
1551188799.28125,-2.91,,,1977954.0
1551188799.296875,-6.31,,,1978633.0
1551188799.3125,-9.49,,,1979663.0
1551188799.328125,-12.81,,,1980211.0
1551188799.34375,-16.72,,,1980994.0
1551188799.359375,-21.63,,,1981712.0
1551188799.375,-27.75,,,1982487.0
1551188799.390625,-35.06,,,1983456.0
1551188799.40625,-43.18,,,1984414.0
1551188799.421875,-51.27,,,1985104.0
1551188799.4375,-58.16,,,1984169.0
1551188799.453125,-62.48,,,1982466.0
1551188799.46875,-63.1,,,1981078.0
1551188799.484375,-59.53,,,1980226.0
1551188799.5,-52.15,,,1979163.0
1551188799.515625,-42.18,,,1978053.0
1551188799.53125,-31.24,,,1977649.0
1551188799.546875,-20.87,,,1977627.0
1551188799.5625,-12.04,,,1977050.0
1551188799.578125,-4.94,,,1977037.0
1551188799.59375,0.78,,,1976632.0
1551188799.609375,5.75,,,1976307.0
1551188799.625,10.44,,,1975713.0
1551188799.640625,14.94,,,1975777.0
1551188799.65625,19.01,,,1976751.0
1551188799.671875,22.28,,,1978055.0
1551188799.6875,24.48,,,1979207.0
1551188799.703125,25.64,,,1980209.0
1551188799.71875,26.07,,,1980965.0
1551188799.734375,26.22,,,1981944.0
1551188799.75,26.49,,,1982914.0
1551188799.765625,27.11,,,1983747.0
1551188799.78125,28.1,,,1983734.0
1551188799.796875,29.32,,,1982108.0
1551188799.8125,30.53,,,1980585.0
1551188799.828125,31.56,,,1979776.0
1551188799.84375,32.27,,,1979172.0
1551188799.859375,32.6,,,1978192.0
1551188799.875,32.48,,,1978161.0
1551188799.890625,31.85,,,1978138.0
1551188799.90625,30.65,,,1977692.0
1551188799.921875,28.83,,,1977780.0
1551188799.9375,26.36,,,1977769.0
1551188799.953125,23.26,,,1978182.0
1551188799.96875,19.58,,,1978642.0
1551188799.984375,15.38,,,1979637.0
1551188800.0,10.74,,,1980126.0
1551188800.015625,5.74,,,1981041.0
1551188800.03125,0.45,,,1981719.0
1551188800.046875,-5.0,,,1982818.0
1551188800.0625,-10.49,,,1983681.0
1551188800.078125,-15.8,,,1984562.0
1551188800.09375,-20.8,,,1985494.0
1551188800.109375,-25.36,,,1986721.0
1551188800.125,-29.52,,,1986786.0
1551188800.140625,-33.5,,,1985138.0
1551188800.15625,-37.66,,,1983209.0
1551188800.171875,-42.36,,,1982124.0
1551188800.1875,-47.8,,,1980734.0
1551188800.203125,-53.77,,,1979697.0
1551188800.21875,-59.52,,,1978840.0
1551188800.234375,-63.89,,,1978498.0
1551188800.25,-65.51,,,1978120.0
1551188800.265625,-63.33,,,1977728.0
1551188800.28125,-57.0,,,1977676.0
1551188800.296875,-47.13,,,1977871.0
1551188800.3125,-35.15,,,1978126.0
1551188800.328125,-22.91,,,1978556.0
1551188800.34375,-12.03,,,1979182.0
1551188800.359375,-3.48,,,1979860.0
1551188800.375,2.7,,,1980402.0
1551188800.390625,7.1,,,1981080.0
1551188800.40625,10.6,,,1982011.0
1551188800.421875,13.9,,,1982892.0
1551188800.4375,17.26,,,1983659.0
1551188800.453125,20.6,,,1984616.0
1551188800.46875,23.6,,,1985390.0
1551188800.484375,26.03,,,1985043.0
1551188800.5,27.83,,,1983367.0
1551188800.515625,29.13,,,1981966.0
1551188800.53125,30.09,,,1981101.0
1551188800.546875,30.83,,,1980483.0
1551188800.5625,31.39,,,1979627.0
1551188800.578125,31.76,,,1979310.0
1551188800.59375,31.97,,,1978956.0
1551188800.609375,32.11,,,1978582.0
1551188800.625,32.28,,,1978521.0
1551188800.640625,32.49,,,1978644.0
1551188800.65625,32.55,,,1978992.0
1551188800.671875,32.1,,,1979212.0
1551188800.6875,30.76,,,1979958.0
1551188800.703125,28.34,,,1980689.0
1551188800.71875,25.0,,,1981282.0
1551188800.734375,21.16,,,1981873.0
1551188800.75,17.38,,,1982548.0
1551188800.765625,14.04,,,1983379.0
1551188800.78125,11.19,,,1984389.0
1551188800.796875,8.51,,,1985659.0
1551188800.8125,5.54,,,1986703.0
1551188800.828125,1.95,,,1987065.0
1551188800.84375,-2.31,,,1985421.0
1551188800.859375,-6.99,,,1983917.0
1551188800.875,-11.69,,,1982959.0
1551188800.890625,-16.1,,,1981821.0
1551188800.90625,-20.18,,,1981066.0
1551188800.921875,-24.12,,,1980549.0
1551188800.9375,-28.34,,,1980676.0
1551188800.953125,-33.26,,,1980505.0
1551188800.96875,-39.18,,,1979963.0
1551188800.984375,-46.14,,,1979991.0
1551188801.0,-53.8,,,1980137.0
1551188801.015625,-61.39,,,1980820.0
1551188801.03125,-67.75,,,1981199.0
1551188801.046875,-71.56,,,1981530.0
1551188801.0625,-71.68,,,1982206.0
1551188801.078125,-67.52,,,1982708.0
1551188801.09375,-59.35,,,1983527.0
1551188801.109375,-48.2,,,1984330.0
1551188801.125,-35.66,,,1985112.0
1551188801.140625,-23.32,,,1985859.0
1551188801.15625,-12.32,,,1986857.0
1551188801.171875,-3.15,,,1987838.0
1551188801.1875,4.39,,,1987197.0
1551188801.203125,10.86,,,1985603.0
1551188801.21875,16.8,,,1984379.0
1551188801.234375,22.51,,,1983210.0
1551188801.25,27.96,,,1982218.0
1551188801.265625,32.89,,,1981106.0
1551188801.28125,37.03,,,1981013.0
1551188801.296875,40.21,,,1980754.0
1551188801.3125,42.42,,,1981376.0
1551188801.328125,43.8,,,1982532.0
1551188801.34375,44.56,,,1983458.0
1551188801.359375,44.85,,,1984744.0
1551188801.375,44.86,,,1986265.0
1551188801.390625,44.74,,,1988062.0
1551188801.40625,44.62,,,1989431.0
1551188801.421875,44.62,,,1990400.0
1551188801.4375,44.75,,,1990906.0
1551188801.453125,44.92,,,1991316.0
1551188801.46875,44.92,,,1991949.0
1551188801.484375,44.47,,,1992260.0
1551188801.5,43.28,,,1992682.0
1551188801.515625,41.14,,,1993115.0
1551188801.53125,38.05,,,1992097.0
1551188801.546875,34.22,,,1990674.0
1551188801.5625,30.02,,,1989755.0
1551188801.578125,25.88,,,1988918.0
1551188801.59375,22.13,,,1988237.0
1551188801.609375,18.8,,,1987879.0
1551188801.625,15.66,,,1987907.0
1551188801.640625,12.35,,,1987948.0
1551188801.65625,8.56,,,1987995.0
1551188801.671875,4.26,,,1988345.0
1551188801.6875,-0.28,,,1988844.0
1551188801.703125,-4.63,,,1989763.0
1551188801.71875,-8.44,,,1990218.0
1551188801.734375,-11.62,,,1991242.0
1551188801.75,-14.49,,,1991870.0
1551188801.765625,-17.6,,,1993070.0
1551188801.78125,-21.64,,,1993731.0
1551188801.796875,-27.13,,,1994874.0
1551188801.8125,-34.27,,,1995732.0
1551188801.828125,-42.81,,,1996549.0
1551188801.84375,-51.95,,,1997694.0
1551188801.859375,-60.41,,,1998392.0
1551188801.875,-66.57,,,1997482.0
1551188801.890625,-68.94,,,1995738.0
1551188801.90625,-66.61,,,1994846.0
1551188801.921875,-59.63,,,1993668.0
1551188801.9375,-49.1,,,1992536.0
1551188801.953125,-36.86,,,1991662.0
1551188801.96875,-24.77,,,1991756.0
1551188801.984375,-14.19,,,1991784.0
1551188802.0,-5.57,,,1992106.0
1551188802.015625,1.46,,,1992694.0
1551188802.03125,7.64,,,1993022.0
1551188802.046875,13.63,,,1993825.0
1551188802.0625,19.63,,,1994281.0
1551188802.078125,25.41,,,1994756.0
1551188802.09375,30.49,,,1995120.0
1551188802.109375,34.49,,,1995671.0
1551188802.125,37.28,,,1996352.0
1551188802.140625,39.05,,,1996618.0
1551188802.15625,40.16,,,1997262.0
1551188802.171875,40.93,,,1997989.0
1551188802.1875,41.57,,,1998567.0
1551188802.203125,42.11,,,1999606.0
1551188802.21875,42.52,,,1998901.0
1551188802.234375,42.78,,,1997375.0
1551188802.25,42.96,,,1995900.0
1551188802.265625,43.16,,,1995050.0
1551188802.28125,43.48,,,1994301.0
1551188802.296875,43.88,,,1993681.0
1551188802.3125,44.15,,,1993379.0
1551188802.328125,43.95,,,1993005.0
1551188802.34375,42.92,,,1992857.0
1551188802.359375,40.79,,,1992763.0
1551188802.375,37.6,,,1992858.0
1551188802.390625,33.64,,,1993104.0
1551188802.40625,29.36,,,1993511.0
1551188802.421875,25.32,,,1994052.0
1551188802.4375,21.88,,,1994741.0
1551188802.453125,19.17,,,1995463.0
1551188802.46875,17.03,,,1995979.0
1551188802.484375,15.04,,,1996711.0
1551188802.5,12.74,,,1997483.0
1551188802.515625,9.69,,,1998753.0
1551188802.53125,5.72,,,1999717.0
1551188802.546875,0.93,,,1999807.0
1551188802.5625,-4.24,,,1998600.0
1551188802.578125,-9.21,,,1997514.0
1551188802.59375,-13.46,,,1996568.0
1551188802.609375,-16.77,,,1995886.0
1551188802.625,-19.38,,,1994824.0
1551188802.640625,-21.96,,,1994465.0
1551188802.65625,-25.4,,,1994239.0
1551188802.671875,-30.39,,,1994166.0
1551188802.6875,-37.25,,,1993812.0
1551188802.703125,-45.65,,,1993797.0
1551188802.71875,-54.73,,,1994011.0
1551188802.734375,-63.27,,,1994336.0
1551188802.75,-69.93,,,1994807.0
1551188802.765625,-73.53,,,1995578.0
1551188802.78125,-73.25,,,1995955.0
1551188802.796875,-68.86,,,1996486.0
1551188802.8125,-60.81,,,1997507.0
1551188802.828125,-50.16,,,1998089.0
1551188802.84375,-38.39,,,1999331.0
1551188802.859375,-26.95,,,2000469.0
1551188802.875,-16.99,,,2001510.0
1551188802.890625,-8.99,,,2001272.0
1551188802.90625,-2.83,,,1999452.0
1551188802.921875,2.04,,,1997336.0
1551188802.9375,6.21,,,1995962.0
1551188802.953125,10.05,,,1995900.0
1551188802.96875,13.62,,,1995834.0
1551188802.984375,16.75,,,1996717.0
1551188803.0,19.29,,,1997742.0
1551188803.015625,21.23,,,1998004.0
1551188803.03125,22.79,,,1998294.0
1551188803.046875,24.3,,,1999594.0
1551188803.0625,26.04,,,2000476.0
1551188803.078125,28.12,,,2000694.0
1551188803.09375,30.36,,,2001091.0
1551188803.109375,32.46,,,2001167.0
1551188803.125,34.1,,,2000990.0
1551188803.140625,35.14,,,2001063.0
1551188803.15625,35.62,,,2001298.0
1551188803.171875,35.72,,,2001534.0
1551188803.1875,35.62,,,2002206.0
1551188803.203125,35.33,,,2002955.0
1551188803.21875,34.72,,,2004084.0
1551188803.234375,33.52,,,2005132.0
1551188803.25,31.56,,,2006037.0
1551188803.265625,28.83,,,2005746.0
1551188803.28125,25.5,,,2004092.0
1551188803.296875,21.95,,,2002837.0
1551188803.3125,18.5,,,2002069.0
1551188803.328125,15.35,,,2001733.0
1551188803.34375,12.47,,,2001566.0
1551188803.359375,9.6,,,2001697.0
1551188803.375,6.44,,,2001959.0
1551188803.390625,2.78,,,2001163.0
1551188803.40625,-1.39,,,2000700.0
1551188803.421875,-5.88,,,2000449.0
1551188803.4375,-10.4,,,1999991.0
1551188803.453125,-14.67,,,2000169.0
1551188803.46875,-18.61,,,2000061.0
1551188803.484375,-22.34,,,2000378.0
1551188803.5,-26.19,,,2000897.0
1551188803.515625,-30.56,,,2001033.0
1551188803.53125,-35.78,,,2001282.0
1551188803.546875,-42.04,,,2002007.0
1551188803.5625,-49.32,,,2002391.0
1551188803.578125,-57.29,,,2003157.0
1551188803.59375,-65.27,,,2003368.0
1551188803.609375,-72.35,,,2001479.0
1551188803.625,-77.34,,,1999783.0
1551188803.640625,-79.14,,,1998318.0
1551188803.65625,-76.95,,,1997192.0
1551188803.671875,-70.63,,,1996122.0
1551188803.6875,-60.87,,,1995336.0
1551188803.703125,-49.0,,,1994725.0
1551188803.71875,-36.66,,,1994110.0
1551188803.734375,-25.27,,,1993665.0
1551188803.75,-15.64,,,1993287.0
1551188803.765625,-7.84,,,1993119.0
1551188803.78125,-1.42,,,1993250.0
1551188803.796875,4.26,,,1993437.0
1551188803.8125,9.62,,,1993608.0
1551188803.828125,14.76,,,1994089.0
1551188803.84375,19.49,,,1994540.0
1551188803.859375,23.55,,,1995233.0
1551188803.875,26.79,,,1996034.0
1551188803.890625,29.3,,,1997096.0
1551188803.90625,31.3,,,1998263.0
1551188803.921875,33.09,,,1999465.0
1551188803.9375,34.87,,,2000149.0
1551188803.953125,36.71,,,1999196.0
1551188803.96875,38.56,,,1997295.0
1551188803.984375,40.3,,,1995958.0
1551188804.0,41.83,,,1994497.0
1551188804.015625,43.1,,,1993064.0
1551188804.03125,44.1,,,1992237.0
1551188804.046875,44.8,,,1991679.0
1551188804.0625,45.01,,,1991135.0
1551188804.078125,44.43,,,1990842.0
1551188804.09375,42.73,,,1990470.0
1551188804.109375,39.72,,,1990547.0
1551188804.125,35.48,,,1990754.0
1551188804.140625,30.43,,,1990858.0
1551188804.15625,25.19,,,1991408.0
1551188804.171875,20.39,,,1991652.0
1551188804.1875,16.41,,,1992185.0
1551188804.203125,13.29,,,1992597.0
1551188804.21875,10.76,,,1993115.0
1551188804.234375,8.33,,,1993924.0
1551188804.25,5.55,,,1994631.0
1551188804.265625,2.14,,,1995336.0
1551188804.28125,-1.94,,,1996194.0
1551188804.296875,-6.44,,,1996603.0
1551188804.3125,-10.99,,,1995302.0
1551188804.328125,-15.22,,,1993467.0
1551188804.34375,-18.99,,,1992360.0
1551188804.359375,-22.4,,,1991285.0
1551188804.375,-25.83,,,1990232.0
1551188804.390625,-29.76,,,1989746.0
1551188804.40625,-34.65,,,1989355.0
1551188804.421875,-40.67,,,1988762.0
1551188804.4375,-47.62,,,1988175.0
1551188804.453125,-54.86,,,1987892.0
1551188804.46875,-61.37,,,1987808.0
1551188804.484375,-65.99,,,1987939.0
1551188804.5,-67.6,,,1988217.0
1551188804.515625,-65.48,,,1988420.0
1551188804.53125,-59.46,,,1988810.0
1551188804.546875,-50.05,,,1989208.0
1551188804.5625,-38.32,,,1989852.0
1551188804.578125,-25.61,,,1990354.0
1551188804.59375,-13.24,,,1990920.0
1551188804.609375,-2.15,,,1991727.0
1551188804.625,7.21,,,1991862.0
1551188804.640625,14.88,,,1990297.0
1551188804.65625,21.12,,,1988443.0
1551188804.671875,26.25,,,1986763.0
1551188804.6875,30.4,,,1985540.0
1551188804.703125,33.55,,,1984167.0
1551188804.71875,35.64,,,1983873.0
1551188804.734375,36.68,,,1983137.0
1551188804.75,36.94,,,1982668.0
1551188804.765625,36.81,,,1982243.0
1551188804.78125,36.71,,,1981806.0
1551188804.796875,36.9,,,1981665.0
1551188804.8125,37.39,,,1981953.0
1551188804.828125,38.03,,,1981968.0
1551188804.84375,38.65,,,1982157.0
1551188804.859375,39.21,,,1982712.0
1551188804.875,39.79,,,1983316.0
1551188804.890625,40.51,,,1983480.0
1551188804.90625,41.29,,,1984373.0
1551188804.921875,41.88,,,1984758.0
1551188804.9375,41.8,,,1985534.0
1551188804.953125,40.66,,,1986407.0
1551188804.96875,38.27,,,1986914.0
1551188804.984375,34.78,,,1985402.0
1551188805.0,30.66,,,1983400.0
1551188805.015625,26.45,,,1981702.0
1551188805.03125,22.6,,,1980385.0
1551188805.046875,19.35,,,1978666.0
1551188805.0625,16.68,,,1977377.0
1551188805.078125,14.36,,,1976798.0
1551188805.09375,12.05,,,1976145.0
1551188805.109375,9.48,,,1975213.0
1551188805.125,6.45,,,1974888.0
1551188805.140625,3.03,,,1974754.0
1551188805.15625,-0.61,,,1974694.0
1551188805.171875,-4.18,,,1974974.0
1551188805.1875,-7.49,,,1975172.0
1551188805.203125,-10.56,,,1975508.0
1551188805.21875,-13.61,,,1975979.0
1551188805.234375,-17.05,,,1976392.0
1551188805.25,-21.24,,,1976853.0
1551188805.265625,-26.36,,,1977669.0
1551188805.28125,-32.27,,,1978287.0
1551188805.296875,-38.48,,,1979221.0
1551188805.3125,-44.22,,,1979670.0
1551188805.328125,-48.61,,,1978778.0
1551188805.34375,-50.78,,,1977002.0
1551188805.359375,-50.1,,,1975656.0
1551188805.375,-46.31,,,1974468.0
1551188805.390625,-39.71,,,1973289.0
1551188805.40625,-31.08,,,1972233.0
1551188805.421875,-21.57,,,1972520.0
1551188805.4375,-12.43,,,1971896.0
1551188805.453125,-4.61,,,1971857.0
1551188805.46875,1.41,,,1971630.0
1551188805.484375,5.74,,,1971715.0
1551188805.5,8.82,,,1972053.0
1551188805.515625,11.19,,,1972186.0
1551188805.53125,13.14,,,1972876.0
1551188805.546875,14.67,,,1973677.0
1551188805.5625,15.65,,,1973919.0
1551188805.578125,15.99,,,1974336.0
1551188805.59375,15.88,,,1975146.0
1551188805.609375,15.78,,,1976153.0
1551188805.625,16.13,,,1977088.0
1551188805.640625,17.15,,,1977716.0
1551188805.65625,18.72,,,1976779.0
1551188805.671875,20.37,,,1974860.0
1551188805.6875,21.62,,,1973302.0
1551188805.703125,22.18,,,1972019.0
1551188805.71875,22.04,,,1970852.0
1551188805.734375,21.43,,,1969954.0
1551188805.75,20.57,,,1969366.0
1551188805.765625,19.46,,,1969100.0
1551188805.78125,17.95,,,1968378.0
1551188805.796875,15.77,,,1968168.0
1551188805.8125,12.8,,,1968003.0
1551188805.828125,9.19,,,1968059.0
1551188805.84375,5.34,,,1968018.0
1551188805.859375,1.74,,,1968687.0
1551188805.875,-1.25,,,1968736.0
1551188805.890625,-3.56,,,1969170.0
1551188805.90625,-5.43,,,1969788.0
1551188805.921875,-7.37,,,1970256.0
1551188805.9375,-9.84,,,1971080.0
1551188805.953125,-13.15,,,1971871.0
1551188805.96875,-17.25,,,1972642.0
1551188805.984375,-21.8,,,1972190.0
1551188806.0,-26.3,,,1970101.0
1551188806.015625,-30.29,,,1968065.0
1551188806.03125,-33.61,,,1966462.0
1551188806.046875,-36.41,,,1964782.0
1551188806.0625,-39.18,,,1963257.0
1551188806.078125,-42.57,,,1962253.0
1551188806.09375,-47.19,,,1961534.0
1551188806.109375,-53.27,,,1960846.0
1551188806.125,-60.55,,,1960663.0
1551188806.140625,-68.19,,,1960291.0
1551188806.15625,-74.84,,,1960244.0
1551188806.171875,-79.05,,,1960262.0
1551188806.1875,-79.6,,,1960801.0
1551188806.203125,-75.92,,,1961028.0
1551188806.21875,-68.25,,,1961635.0
1551188806.234375,-57.62,,,1962206.0
1551188806.25,-45.43,,,1962829.0
1551188806.265625,-33.18,,,1963392.0
1551188806.28125,-21.95,,,1964111.0
1551188806.296875,-12.34,,,1965277.0
1551188806.3125,-4.38,,,1966247.0
1551188806.328125,2.21,,,1966812.0
1551188806.34375,7.87,,,1965667.0
1551188806.359375,12.97,,,1963912.0
1551188806.375,17.69,,,1962086.0
1551188806.390625,22.02,,,1960918.0
1551188806.40625,25.82,,,1959822.0
1551188806.421875,28.91,,,1958613.0
1551188806.4375,31.19,,,1958397.0
1551188806.453125,32.7,,,1958015.0
1551188806.46875,33.6,,,1957321.0
1551188806.484375,34.15,,,1957188.0
1551188806.5,34.64,,,1957057.0
1551188806.515625,35.31,,,1957354.0
1551188806.53125,36.28,,,1957791.0
1551188806.546875,37.57,,,1958147.0
1551188806.5625,39.06,,,1958638.0
1551188806.578125,40.54,,,1959119.0
1551188806.59375,41.68,,,1959839.0
1551188806.609375,42.11,,,1960727.0
1551188806.625,41.51,,,1961758.0
1551188806.640625,39.69,,,1962848.0
1551188806.65625,36.72,,,1964039.0
1551188806.671875,32.95,,,1964091.0
1551188806.6875,28.91,,,1962647.0
1551188806.703125,25.17,,,1960919.0
1551188806.71875,22.1,,,1959721.0
1551188806.734375,19.69,,,1958629.0
1551188806.75,17.59,,,1957768.0
1551188806.765625,15.22,,,1957327.0
1551188806.78125,12.08,,,1956879.0
1551188806.796875,7.97,,,1956477.0
1551188806.8125,3.07,,,1956212.0
1551188806.828125,-2.13,,,1956302.0
1551188806.84375,-7.1,,,1956661.0
1551188806.859375,-11.56,,,1957169.0
1551188806.875,-15.55,,,1957785.0
1551188806.890625,-19.45,,,1958695.0
1551188806.90625,-23.75,,,1959315.0
1551188806.921875,-28.88,,,1960268.0
1551188806.9375,-35.04,,,1961356.0
1551188806.953125,-42.1,,,1962169.0
1551188806.96875,-49.5,,,1963502.0
1551188806.984375,-56.32,,,1963818.0
1551188807.0,-61.35,,,1964243.0
1551188807.015625,-63.31,,,1963745.0
1551188807.03125,-61.29,,,1961940.0
1551188807.046875,-55.07,,,1960330.0
1551188807.0625,-45.32,,,1959533.0
1551188807.078125,-33.49,,,1958231.0
1551188807.09375,-21.31,,,1959070.0
1551188807.109375,-10.23,,,1957034.0
1551188807.125,-1.04,,,1957433.0
1551188807.140625,6.22,,,1956252.0
1551188807.15625,11.99,,,1956839.0
1551188807.171875,16.8,,,1956334.0
1551188807.1875,20.88,,,1956479.0
1551188807.203125,24.18,,,1956951.0
1551188807.21875,26.52,,,1957504.0
1551188807.234375,27.86,,,1957921.0
1551188807.25,28.45,,,1958808.0
1551188807.265625,28.74,,,1959608.0
1551188807.28125,29.19,,,1960631.0
1551188807.296875,30.06,,,1961512.0
1551188807.3125,31.34,,,1962366.0
1551188807.328125,32.83,,,1963753.0
1551188807.34375,34.31,,,1965251.0
1551188807.359375,35.67,,,1966418.0
1551188807.375,36.82,,,1967665.0
1551188807.390625,37.7,,,1968085.0
1551188807.40625,38.14,,,1965527.0
1551188807.421875,37.93,,,1966917.0
1551188807.4375,36.84,,,1965166.0
1551188807.453125,34.8,,,1964238.0
1551188807.46875,31.93,,,1963462.0
1551188807.484375,28.5,,,1963397.0
1551188807.5,24.82,,,1963302.0
1551188807.515625,21.15,,,1963824.0
1551188807.53125,17.57,,,1963536.0
1551188807.546875,14.07,,,1963655.0
1551188807.5625,10.5,,,1964152.0
1551188807.578125,6.67,,,1964937.0
1551188807.59375,2.44,,,1966370.0
1551188807.609375,-2.23,,,1965713.0
1551188807.625,-7.24,,,1967466.0
1551188807.640625,-12.34,,,1969129.0
1551188807.65625,-17.28,,,1968341.0
1551188807.671875,-21.95,,,1970227.0
1551188807.6875,-26.49,,,1971485.0
1551188807.703125,-31.31,,,1972411.0
1551188807.71875,-36.94,,,1973352.0
1551188807.734375,-43.8,,,1972781.0
1551188807.75,-51.9,,,1970981.0
1551188807.765625,-60.63,,,1969725.0
1551188807.78125,-68.8,,,1968013.0
1551188807.796875,-74.9,,,1966298.0
1551188807.8125,-77.49,,,1965385.0
1551188807.828125,-75.67,,,1965097.0
1551188807.84375,-69.38,,,1964681.0
1551188807.859375,-59.41,,,1963604.0
1551188807.875,-47.27,,,1964248.0
1551188807.890625,-34.72,,,1966279.0
1551188807.90625,-23.31,,,1968420.0
1551188807.921875,-14.05,,,1970273.0
1551188807.9375,-7.16,,,1972087.0
1551188807.953125,-2.26,,,1973639.0
1551188807.96875,1.41,,,1974924.0
1551188807.984375,4.58,,,1976381.0
1551188808.0,7.69,,,1978429.0
1551188808.015625,10.76,,,1980072.0
1551188808.03125,13.51,,,1981703.0
1551188808.046875,15.56,,,1983159.0
1551188808.0625,16.74,,,1984056.0
1551188808.078125,17.18,,,1983956.0
1551188808.09375,17.33,,,1982290.0
1551188808.109375,17.72,,,1980645.0
1551188808.125,18.79,,,1978974.0
1551188808.140625,20.69,,,1976968.0
1551188808.15625,23.28,,,1974953.0
1551188808.171875,26.15,,,1973408.0
1551188808.1875,28.82,,,1972047.0
1551188808.203125,30.84,,,1970633.0
1551188808.21875,31.9,,,1969651.0
1551188808.234375,31.84,,,1969456.0
1551188808.25,30.61,,,1969952.0
1551188808.265625,28.24,,,1971472.0
1551188808.28125,24.86,,,1973017.0
1551188808.296875,20.69,,,1974762.0
1551188808.3125,16.08,,,1976422.0
1551188808.328125,11.45,,,1977757.0
1551188808.34375,7.15,,,1978496.0
1551188808.359375,3.33,,,1979587.0
1551188808.375,-0.1,,,1980448.0
1551188808.390625,-3.41,,,1981462.0
1551188808.40625,-6.85,,,1982630.0
1551188808.421875,-10.51,,,1983313.0
1551188808.4375,-14.27,,,1982312.0
1551188808.453125,-17.92,,,1980935.0
1551188808.46875,-21.35,,,1980150.0
1551188808.484375,-24.72,,,1979769.0
1551188808.5,-28.49,,,1979212.0
1551188808.515625,-33.33,,,1978892.0
1551188808.53125,-39.81,,,1978919.0
1551188808.546875,-48.14,,,1979041.0
1551188808.5625,-57.9,,,1979288.0
1551188808.578125,-67.95,,,1979801.0
1551188808.59375,-76.58,,,1981214.0
1551188808.609375,-81.89,,,1982696.0
1551188808.625,-82.35,,,1984000.0
1551188808.640625,-77.31,,,1984711.0
1551188808.65625,-67.29,,,1985403.0
1551188808.671875,-53.86,,,1985773.0
1551188808.6875,-39.12,,,1986670.0
1551188808.703125,-25.01,,,1987427.0
1551188808.71875,-12.8,,,1988379.0
1551188808.734375,-2.82,,,1989344.0
1551188808.75,5.39,,,1990253.0
1551188808.765625,12.65,,,1990414.0
1551188808.78125,19.65,,,1988851.0
1551188808.796875,26.66,,,1987505.0
1551188808.8125,33.57,,,1986433.0
1551188808.828125,39.94,,,1985935.0
1551188808.84375,45.35,,,1984838.0
1551188808.859375,49.55,,,1984461.0
1551188808.875,52.47,,,1984338.0
1551188808.890625,54.23,,,1983887.0
1551188808.90625,54.99,,,1983652.0
1551188808.921875,54.92,,,1983859.0
1551188808.9375,54.21,,,1983995.0
1551188808.953125,53.14,,,1984272.0
1551188808.96875,52.03,,,1984687.0
1551188808.984375,51.19,,,1985388.0
1551188809.0,50.8,,,1986031.0
1551188809.015625,50.75,,,1986725.0
1551188809.03125,50.68,,,1987457.0
1551188809.046875,50.08,,,1988255.0
1551188809.0625,48.51,,,1989152.0
1551188809.078125,45.75,,,1990384.0
1551188809.09375,41.92,,,1991144.0
1551188809.109375,37.37,,,1991354.0
1551188809.125,32.54,,,1989595.0
1551188809.140625,27.76,,,1988140.0
1551188809.15625,23.15,,,1986895.0
1551188809.171875,18.61,,,1986074.0
1551188809.1875,13.95,,,1984670.0
1551188809.203125,9.01,,,1984020.0
1551188809.21875,3.81,,,1983599.0
1551188809.234375,-1.45,,,1983348.0
1551188809.25,-6.5,,,1982918.0
1551188809.265625,-11.12,,,1983181.0
1551188809.28125,-15.27,,,1983084.0
1551188809.296875,-19.2,,,1983271.0
1551188809.3125,-23.37,,,1983652.0
1551188809.328125,-28.42,,,1984132.0
1551188809.34375,-34.89,,,1984855.0
1551188809.359375,-43.01,,,1985333.0
1551188809.375,-52.39,,,1985940.0
1551188809.390625,-61.96,,,1986770.0
1551188809.40625,-70.06,,,1987651.0
1551188809.421875,-74.85,,,1988679.0
1551188809.4375,-74.92,,,1989531.0
1551188809.453125,-69.77,,,1989644.0
1551188809.46875,-60.05,,,1987762.0
1551188809.484375,-47.38,,,1986732.0
1551188809.5,-33.73,,,1986158.0
1551188809.515625,-20.9,,,1985286.0
1551188809.53125,-9.9,,,1983296.0
1551188809.546875,-0.94,,,1983152.0
1551188809.5625,6.44,,,1984034.0
1551188809.578125,12.92,,,1984480.0
1551188809.59375,19.05,,,1985147.0
1551188809.609375,24.98,,,1985772.0
1551188809.625,30.53,,,1986192.0
1551188809.640625,35.37,,,1986600.0
1551188809.65625,39.16,,,1987110.0
1551188809.671875,41.76,,,1987699.0
1551188809.6875,43.22,,,1988391.0
1551188809.703125,43.74,,,1989232.0
1551188809.71875,43.61,,,1989868.0
1551188809.734375,43.11,,,1990878.0
1551188809.75,42.48,,,1991914.0
1551188809.765625,41.97,,,1992971.0
1551188809.78125,41.78,,,1994029.0
1551188809.796875,42.06,,,1993794.0
1551188809.8125,42.8,,,1992590.0
1551188809.828125,43.81,,,1990880.0
1551188809.84375,44.69,,,1989883.0
1551188809.859375,44.96,,,1988695.0
1551188809.875,44.13,,,1987299.0
1551188809.890625,41.95,,,1986732.0
1551188809.90625,38.43,,,1986649.0
1551188809.921875,33.97,,,1986268.0
1551188809.9375,29.09,,,1985717.0
1551188809.953125,24.41,,,1985719.0
1551188809.96875,20.31,,,1985985.0
1551188809.984375,16.81,,,1986075.0
1551188810.0,13.58,,,1986790.0
1551188810.015625,10.09,,,1987184.0
1551188810.03125,5.9,,,1987690.0
1551188810.046875,0.88,,,1988123.0
1551188810.0625,-4.69,,,1988877.0
1551188810.078125,-10.29,,,1989367.0
1551188810.09375,-15.41,,,1990237.0
1551188810.109375,-19.84,,,1990875.0
1551188810.125,-23.77,,,1991484.0
1551188810.140625,-27.74,,,1990363.0
1551188810.15625,-32.41,,,1988381.0
1551188810.171875,-38.35,,,1986883.0
1551188810.1875,-45.79,,,1985705.0
1551188810.203125,-54.41,,,1984229.0
1551188810.21875,-63.32,,,1982847.0
1551188810.234375,-71.09,,,1982400.0
1551188810.25,-76.04,,,1981749.0
1551188810.265625,-76.7,,,1981445.0
1551188810.28125,-72.34,,,1981168.0
1551188810.296875,-63.34,,,1981016.0
1551188810.3125,-51.06,,,1981407.0
1551188810.328125,-37.49,,,1981851.0
1551188810.34375,-24.51,,,1982397.0
1551188810.359375,-13.36,,,1982950.0
1551188810.375,-4.37,,,1983819.0
1551188810.390625,2.83,,,1984165.0
1551188810.40625,8.9,,,1984500.0
1551188810.421875,14.34,,,1985442.0
1551188810.4375,19.23,,,1986405.0
1551188810.453125,23.34,,,1987372.0
1551188810.46875,26.38,,,1987263.0
1551188810.484375,28.29,,,1985955.0
1551188810.5,29.37,,,1984257.0
1551188810.515625,30.13,,,1984604.0
1551188810.53125,31.1,,,1984380.0
1551188810.546875,32.56,,,1983930.0
1551188810.5625,34.49,,,1983546.0
1551188810.578125,36.55,,,1983576.0
1551188810.59375,38.37,,,1982871.0
1551188810.609375,39.7,,,1982343.0
1551188810.625,40.52,,,1982365.0
1551188810.640625,40.95,,,1982489.0
1551188810.65625,41.08,,,1982759.0
1551188810.671875,40.85,,,1983143.0
1551188810.6875,40.03,,,1983710.0
1551188810.703125,38.27,,,1984375.0
1551188810.71875,35.37,,,1984924.0
1551188810.734375,31.38,,,1985701.0
1551188810.75,26.64,,,1986511.0
1551188810.765625,21.69,,,1987230.0
1551188810.78125,17.03,,,1988115.0
1551188810.796875,12.99,,,1989316.0
1551188810.8125,9.53,,,1990076.0
1551188810.828125,6.34,,,1988729.0
1551188810.84375,2.95,,,1986996.0
1551188810.859375,-1.05,,,1985519.0
1551188810.875,-5.82,,,1984375.0
1551188810.890625,-11.12,,,1982693.0
1551188810.90625,-16.48,,,1981492.0
1551188810.921875,-21.35,,,1980806.0
1551188810.9375,-25.41,,,1980381.0
1551188810.953125,-28.72,,,1979905.0
1551188810.96875,-31.78,,,1979436.0
1551188810.984375,-35.34,,,1979371.0
1551188811.0,-40.11,,,1979594.0
1551188811.015625,-46.56,,,1979802.0
1551188811.03125,-54.62,,,1980232.0
1551188811.046875,-63.67,,,1980620.0
1551188811.0625,-72.54,,,1981709.0
1551188811.078125,-79.69,,,1981928.0
1551188811.09375,-83.53,,,1982752.0
1551188811.109375,-82.84,,,1983387.0
1551188811.125,-77.19,,,1984292.0
1551188811.140625,-67.12,,,1985535.0
1551188811.15625,-54.12,,,1986495.0
1551188811.171875,-40.1,,,1987112.0
1551188811.1875,-26.79,,,1986168.0
1551188811.203125,-15.25,,,1984585.0
1551188811.21875,-5.59,,,1983816.0
1551188811.234375,2.78,,,1983186.0
1551188811.25,10.61,,,1982478.0
1551188811.265625,18.38,,,1982428.0
1551188811.28125,26.05,,,1982375.0
1551188811.296875,33.12,,,1982017.0
1551188811.3125,38.99,,,1981436.0
1551188811.328125,43.29,,,1981254.0
1551188811.34375,46.03,,,1980992.0
1551188811.359375,47.6,,,1981173.0
1551188811.375,48.47,,,1981417.0
1551188811.390625,49.09,,,1981870.0
1551188811.40625,49.67,,,1982158.0
1551188811.421875,50.33,,,1982408.0
1551188811.4375,51.09,,,1983272.0
1551188811.453125,52.01,,,1983661.0
1551188811.46875,53.15,,,1984348.0
1551188811.484375,54.48,,,1985049.0
1551188811.5,55.84,,,1986091.0
1551188811.515625,56.89,,,1985593.0
1551188811.53125,57.18,,,1983562.0
1551188811.546875,56.31,,,1981745.0
1551188811.5625,54.08,,,1980674.0
1551188811.578125,50.48,,,1979163.0
1551188811.59375,45.84,,,1977490.0
1551188811.609375,40.67,,,1976981.0
1551188811.625,35.49,,,1976311.0
1551188811.640625,30.76,,,1975851.0
1551188811.65625,26.68,,,1975158.0
1551188811.671875,23.14,,,1974816.0
1551188811.6875,19.77,,,1974921.0
1551188811.703125,16.09,,,1974998.0
1551188811.71875,11.69,,,1975333.0
1551188811.734375,6.49,,,1975739.0
1551188811.75,0.73,,,1975782.0
1551188811.765625,-5.05,,,1976313.0
1551188811.78125,-10.25,,,1976818.0
1551188811.796875,-14.56,,,1977471.0
1551188811.8125,-18.07,,,1978224.0
1551188811.828125,-21.3,,,1978880.0
1551188811.84375,-25.05,,,1979580.0
1551188811.859375,-30.09,,,1979277.0
1551188811.875,-36.85,,,1977069.0
1551188811.890625,-45.34,,,1974687.0
1551188811.90625,-55.0,,,1972962.0
1551188811.921875,-64.77,,,1971646.0
1551188811.9375,-73.25,,,1970455.0
1551188811.953125,-78.89,,,1970347.0
1551188811.96875,-80.31,,,1970497.0
1551188811.984375,-76.77,,,1970704.0
1551188812.0,-68.38,,,1970521.0
1551188812.015625,-56.2,,,1970265.0
1551188812.03125,-41.99,,,1969966.0
1551188812.046875,-27.67,,,1970318.0
1551188812.0625,-14.83,,,1970150.0
1551188812.078125,-4.26,,,1970556.0
1551188812.09375,4.02,,,1971015.0
1551188812.109375,10.6,,,1971378.0
1551188812.125,16.18,,,1971807.0
1551188812.140625,21.17,,,1972417.0
1551188812.15625,25.56,,,1973214.0
1551188812.171875,29.04,,,1973988.0
1551188812.1875,31.29,,,1974660.0
1551188812.203125,32.35,,,1975689.0
1551188812.21875,32.64,,,1975965.0
1551188812.234375,32.85,,,1974464.0
1551188812.25,33.62,,,1972430.0
1551188812.265625,35.13,,,1970663.0
1551188812.28125,37.08,,,1969256.0
1551188812.296875,38.87,,,1968190.0
1551188812.3125,39.96,,,1966833.0
1551188812.328125,40.17,,,1966196.0
1551188812.34375,39.72,,,1965660.0
1551188812.359375,39.06,,,1964942.0
1551188812.375,38.52,,,1964925.0
1551188812.390625,38.08,,,1964696.0
1551188812.40625,37.35,,,1964839.0
1551188812.421875,35.79,,,1965368.0
1551188812.4375,32.95,,,1966173.0
1551188812.453125,28.79,,,1967069.0
1551188812.46875,23.63,,,1966360.0
1551188812.484375,18.13,,,1967558.0
1551188812.5,12.92,,,1968614.0
1551188812.515625,8.43,,,1969200.0
1551188812.53125,4.66,,,1970041.0
1551188812.546875,1.29,,,1965535.0
1551188812.5625,-2.24,,,1969411.0
1551188812.578125,-6.38,,,1965722.0
1551188812.59375,-11.27,,,1967635.0
1551188812.609375,-16.68,,,1964511.0
1551188812.625,-22.12,,,1963208.0
1551188812.640625,-27.06,,,1962344.0
1551188812.65625,-31.24,,,1962365.0
1551188812.671875,-34.77,,,1962292.0
1551188812.6875,-38.22,,,1962253.0
1551188812.703125,-42.29,,,1962865.0
1551188812.71875,-47.72,,,1963518.0
1551188812.734375,-54.92,,,1964107.0
1551188812.75,-63.83,,,1964580.0
1551188812.765625,-73.82,,,1965371.0
1551188812.78125,-83.63,,,1965894.0
1551188812.796875,-91.6,,,1966679.0
1551188812.8125,-95.97,,,1967146.0
1551188812.828125,-95.36,,,1967943.0
1551188812.84375,-89.26,,,1968463.0
1551188812.859375,-78.22,,,1969479.0
1551188812.875,-63.81,,,1970562.0
1551188812.890625,-48.16,,,1971374.0
1551188812.90625,-33.3,,,1971534.0
1551188812.921875,-20.58,,,1969897.0
1551188812.9375,-10.37,,,1967741.0
1551188812.953125,-2.16,,,1966154.0
1551188812.96875,5.01,,,1964612.0
1551188812.984375,12.05,,,1963075.0
1551188813.0,19.37,,,1962005.0
1551188813.015625,26.76,,,1961459.0
1551188813.03125,33.63,,,1960950.0
1551188813.046875,39.29,,,1960372.0
1551188813.0625,43.37,,,1959962.0
1551188813.078125,45.89,,,1959921.0
1551188813.09375,47.23,,,1960160.0
1551188813.109375,47.9,,,1960456.0
1551188813.125,48.28,,,1960917.0
1551188813.140625,48.54,,,1961197.0
1551188813.15625,48.74,,,1961750.0
1551188813.171875,48.88,,,1962478.0
1551188813.1875,49.08,,,1963201.0
1551188813.203125,49.46,,,1964215.0
1551188813.21875,50.04,,,1964872.0
1551188813.234375,50.64,,,1965862.0
1551188813.25,50.85,,,1966704.0
1551188813.265625,50.17,,,1966415.0
1551188813.28125,48.22,,,1964762.0
1551188813.296875,44.89,,,1963153.0
1551188813.3125,40.46,,,1962279.0
1551188813.328125,35.42,,,1961266.0
1551188813.34375,30.39,,,1960634.0
1551188813.359375,25.86,,,1960411.0
1551188813.375,22.08,,,1960657.0
1551188813.390625,19.0,,,1960219.0
1551188813.40625,16.28,,,1960213.0
1551188813.421875,13.44,,,1960598.0
1551188813.4375,9.97,,,1961935.0
1551188813.453125,5.53,,,1962984.0
1551188813.46875,0.13,,,1964040.0
1551188813.484375,-5.88,,,1964856.0
1551188813.5,-11.95,,,1965611.0
1551188813.515625,-17.53,,,1966228.0
1551188813.53125,-22.35,,,1967216.0
1551188813.546875,-26.62,,,1968242.0
1551188813.5625,-30.93,,,1968987.0
1551188813.578125,-36.09,,,1969970.0
1551188813.59375,-42.78,,,1969728.0
1551188813.609375,-51.24,,,1968173.0
1551188813.625,-61.11,,,1966352.0
1551188813.640625,-71.33,,,1965341.0
1551188813.65625,-80.38,,,1964297.0
1551188813.671875,-86.51,,,1963314.0
1551188813.6875,-88.23,,,1963061.0
1551188813.703125,-84.69,,,1962715.0
1551188813.71875,-76.1,,,1962242.0
1551188813.734375,-63.66,,,1961639.0
1551188813.75,-49.25,,,1961544.0
1551188813.765625,-34.91,,,1961246.0
1551188813.78125,-22.17,,,1961232.0
1551188813.796875,-11.67,,,1961217.0
1551188813.8125,-3.13,,,1961388.0
1551188813.828125,4.23,,,1961606.0
1551188813.84375,11.23,,,1962053.0
1551188813.859375,18.24,,,1963287.0
1551188813.875,25.14,,,1962499.0
1551188813.890625,31.47,,,1964030.0
1551188813.90625,36.72,,,1964979.0
1551188813.921875,40.63,,,1965841.0
1551188813.9375,43.27,,,1964168.0
1551188813.953125,44.9,,,1961870.0
1551188813.96875,45.92,,,1960180.0
1551188813.984375,46.63,,,1958666.0
1551188814.0,47.22,,,1956589.0
1551188814.015625,47.76,,,1954957.0
1551188814.03125,48.25,,,1954289.0
1551188814.046875,48.64,,,1953825.0
1551188814.0625,48.89,,,1953066.0
1551188814.078125,48.92,,,1952593.0
1551188814.09375,48.64,,,1952477.0
1551188814.109375,47.93,,,1952677.0
1551188814.125,46.67,,,1952819.0
1551188814.140625,44.75,,,1953347.0
1551188814.15625,42.15,,,1954228.0
1551188814.171875,38.91,,,1955709.0
1551188814.1875,35.15,,,1956790.0
1551188814.203125,31.07,,,1955246.0
1551188814.21875,26.93,,,1958900.0
1551188814.234375,22.99,,,1957757.0
1551188814.25,19.44,,,1960189.0
1551188814.265625,16.3,,,1961298.0
1551188814.28125,13.49,,,1961628.0
1551188814.296875,10.76,,,1960335.0
1551188814.3125,7.8,,,1958567.0
1551188814.328125,4.34,,,1957702.0
1551188814.34375,0.22,,,1956501.0
1551188814.359375,-4.49,,,1955505.0
1551188814.375,-9.54,,,1954875.0
1551188814.390625,-14.54,,,1954871.0
1551188814.40625,-19.13,,,1954728.0
1551188814.421875,-23.16,,,1954545.0
1551188814.4375,-26.75,,,1954781.0
1551188814.453125,-30.29,,,1954909.0
1551188814.46875,-34.26,,,1955283.0
1551188814.484375,-39.14,,,1955886.0
1551188814.5,-45.2,,,1956785.0
1551188814.515625,-52.5,,,1957298.0
1551188814.53125,-60.76,,,1958133.0
1551188814.546875,-69.34,,,1959161.0
1551188814.5625,-77.21,,,1960252.0
1551188814.578125,-82.99,,,1961232.0
1551188814.59375,-85.23,,,1962430.0
1551188814.609375,-82.81,,,1963636.0
1551188814.625,-75.48,,,1964915.0
1551188814.640625,-63.98,,,1965788.0
1551188814.65625,-49.97,,,1964613.0
1551188814.671875,-35.52,,,1962952.0
1551188814.6875,-22.4,,,1961909.0
1551188814.703125,-11.62,,,1961333.0
1551188814.71875,-3.24,,,1960679.0
1551188814.734375,3.31,,,1960302.0
1551188814.75,8.79,,,1960616.0
1551188814.765625,13.64,,,1960560.0
1551188814.78125,17.95,,,1960734.0
1551188814.796875,21.49,,,1960996.0
1551188814.8125,24.1,,,1961706.0
1551188814.828125,25.9,,,1962367.0
1551188814.84375,27.3,,,1963252.0
1551188814.859375,28.79,,,1963836.0
1551188814.875,30.68,,,1964915.0
1551188814.890625,32.97,,,1965690.0
1551188814.90625,35.36,,,1966809.0
1551188814.921875,37.46,,,1967835.0
1551188814.9375,39.03,,,1970071.0
1551188814.953125,40.12,,,1972092.0
1551188814.96875,40.92,,,1972838.0
1551188814.984375,41.69,,,1971984.0
1551188815.0,42.46,,,1970334.0
1551188815.015625,42.96,,,1969286.0
1551188815.03125,42.77,,,1968068.0
1551188815.046875,41.42,,,1967072.0
1551188815.0625,38.71,,,1966568.0
1551188815.078125,34.76,,,1966577.0
1551188815.09375,30.1,,,1966201.0
1551188815.109375,25.4,,,1966041.0
1551188815.125,21.28,,,1966217.0
1551188815.140625,18.02,,,1966704.0
1551188815.15625,15.44,,,1967290.0
1551188815.171875,12.97,,,1967939.0
1551188815.1875,9.95,,,1968709.0
1551188815.203125,5.98,,,1969796.0
1551188815.21875,1.1,,,1970454.0
1551188815.234375,-4.19,,,1971244.0
1551188815.25,-9.22,,,1972364.0
1551188815.265625,-13.46,,,1973258.0
1551188815.28125,-16.83,,,1974537.0
1551188815.296875,-19.72,,,1975309.0
1551188815.3125,-22.85,,,1974737.0
1551188815.328125,-26.99,,,1973210.0
1551188815.34375,-32.71,,,1971550.0
1551188815.359375,-40.13,,,1970409.0
1551188815.375,-48.85,,,1969268.0
1551188815.390625,-57.89,,,1968080.0
1551188815.40625,-65.82,,,1967735.0
1551188815.421875,-71.01,,,1967560.0
1551188815.4375,-72.01,,,1967170.0
1551188815.453125,-68.01,,,1966902.0
1551188815.46875,-59.17,,,1967059.0
1551188815.484375,-46.69,,,1967418.0
1551188815.5,-32.43,,,1967886.0
1551188815.515625,-18.41,,,1968269.0
1551188815.53125,-6.11,,,1968876.0
1551188815.546875,3.76,,,1969541.0
1551188815.5625,11.35,,,1970041.0
1551188815.578125,17.25,,,1970784.0
1551188815.59375,22.1,,,1971203.0
1551188815.609375,26.2,,,1971538.0
1551188815.625,29.51,,,1971991.0
1551188815.640625,31.81,,,1972161.0
1551188815.65625,33.01,,,1971588.0
1551188815.671875,33.33,,,1970268.0
1551188815.6875,33.22,,,1969558.0
1551188815.703125,33.22,,,1969682.0
1551188815.71875,33.69,,,1969811.0
1551188815.734375,34.64,,,1969542.0
1551188815.75,35.82,,,1969629.0
1551188815.765625,36.89,,,1969522.0
1551188815.78125,37.57,,,1969151.0
1551188815.796875,37.79,,,1969189.0
1551188815.8125,37.66,,,1969403.0
1551188815.828125,37.3,,,1969669.0
1551188815.84375,36.71,,,1970008.0
1551188815.859375,35.69,,,1970773.0
1551188815.875,33.9,,,1971304.0
1551188815.890625,31.11,,,1972135.0
1551188815.90625,27.3,,,1972893.0
1551188815.921875,22.8,,,1973687.0
1551188815.9375,18.17,,,1974692.0
1551188815.953125,14.04,,,1975981.0
1551188815.96875,10.76,,,1976993.0
1551188815.984375,8.3,,,1977912.0
1551188816.0,6.19,,,1976024.0
1551188816.015625,3.75,,,1977850.0
1551188816.03125,0.34,,,1974622.0
1551188816.046875,-4.27,,,1973683.0
1551188816.0625,-9.88,,,1972923.0
1551188816.078125,-15.95,,,1971764.0
1551188816.09375,-21.85,,,1971558.0
1551188816.109375,-27.19,,,1971218.0
1551188816.125,-31.92,,,1971009.0
1551188816.140625,-36.42,,,1970990.0
1551188816.15625,-41.26,,,1971750.0
1551188816.171875,-47.07,,,1971200.0
1551188816.1875,-54.3,,,1972229.0
1551188816.203125,-62.9,,,1972747.0
1551188816.21875,-72.25,,,1974433.0
1551188816.234375,-81.07,,,1973482.0
1551188816.25,-87.66,,,1975360.0
1551188816.265625,-90.33,,,1976190.0
1551188816.28125,-87.93,,,1977082.0
1551188816.296875,-80.31,,,1978112.0
1551188816.3125,-68.43,,,1979370.0
1551188816.328125,-54.11,,,1980256.0
1551188816.34375,-39.43,,,1980237.0
1551188816.359375,-26.16,,,1978699.0
1551188816.375,-15.24,,,1976939.0
1551188816.390625,-6.72,,,1975958.0
1551188816.40625,-0.0,,,1974968.0
1551188816.421875,5.85,,,1973926.0
1551188816.4375,11.58,,,1973655.0
1551188816.453125,17.51,,,1973334.0
1551188816.46875,23.48,,,1973094.0
1551188816.484375,29.02,,,1972738.0
1551188816.5,33.65,,,1972868.0
1551188816.515625,37.13,,,1973218.0
1551188816.53125,39.58,,,1973587.0
1551188816.546875,41.35,,,1974241.0
1551188816.5625,42.79,,,1974753.0
1551188816.578125,44.05,,,1975484.0
1551188816.59375,45.04,,,1976148.0
1551188816.609375,45.57,,,1976900.0
1551188816.625,45.59,,,1977796.0
1551188816.640625,45.28,,,1978854.0
1551188816.65625,44.95,,,1979992.0
1551188816.671875,44.85,,,1980857.0
1551188816.6875,44.93,,,1981606.0
1551188816.703125,44.79,,,1980843.0
1551188816.71875,43.84,,,1979353.0
1551188816.734375,41.54,,,1978788.0
1551188816.75,37.71,,,1977912.0
1551188816.765625,32.6,,,1977244.0
1551188816.78125,26.8,,,1977315.0
1551188816.796875,21.03,,,1977400.0
1551188816.8125,15.89,,,1977180.0
1551188816.828125,11.66,,,1976970.0
1551188816.84375,8.28,,,1977020.0
1551188816.859375,5.43,,,1977419.0
1551188816.875,2.67,,,1977849.0
1551188816.890625,-0.3,,,1978657.0
1551188816.90625,-3.6,,,1979150.0
1551188816.921875,-7.1,,,1979734.0
1551188816.9375,-10.53,,,1980421.0
1551188816.953125,-13.67,,,1981613.0
1551188816.96875,-16.54,,,1981211.0
1551188816.984375,-19.48,,,1982174.0
1551188817.0,-23.08,,,1983267.0
1551188817.015625,-28.07,,,1984476.0
1551188817.03125,-35.01,,,1984297.0
1551188817.046875,-44.13,,,1982595.0
1551188817.0625,-55.07,,,1980993.0
1551188817.078125,-66.87,,,1979864.0
1551188817.09375,-77.97,,,1977220.0
1551188817.109375,-86.53,,,1978481.0
1551188817.125,-90.8,,,1976523.0
1551188817.140625,-89.6,,,1976228.0
1551188817.15625,-82.81,,,1975964.0
1551188817.171875,-71.4,,,1976051.0
1551188817.1875,-57.28,,,1975727.0
1551188817.203125,-42.63,,,1975767.0
1551188817.21875,-29.29,,,1976239.0
1551188817.234375,-18.2,,,1976613.0
1551188817.25,-9.35,,,1977407.0
1551188817.265625,-1.99,,,1978799.0
1551188817.28125,4.74,,,1977992.0
1551188817.296875,11.41,,,1979686.0
1551188817.3125,18.02,,,1980935.0
1551188817.328125,24.17,,,1982333.0
1551188817.34375,29.33,,,1983404.0
1551188817.359375,33.18,,,1984389.0
1551188817.375,35.77,,,1984612.0
1551188817.390625,37.46,,,1984739.0
1551188817.40625,38.72,,,1984678.0
1551188817.421875,39.89,,,1984874.0
1551188817.4375,41.1,,,1984172.0
1551188817.453125,42.28,,,1983179.0
1551188817.46875,43.31,,,1982496.0
1551188817.484375,44.1,,,1982256.0
1551188817.5,44.7,,,1981556.0
1551188817.515625,45.18,,,1980844.0
1551188817.53125,45.58,,,1980639.0
1551188817.546875,45.79,,,1980606.0
1551188817.5625,45.53,,,1980732.0
1551188817.578125,44.46,,,1981523.0
1551188817.59375,42.3,,,1981867.0
1551188817.609375,38.97,,,1982368.0
1551188817.625,34.71,,,1982881.0
1551188817.640625,29.98,,,1983665.0
1551188817.65625,25.36,,,1984381.0
1551188817.671875,21.34,,,1985191.0
1551188817.6875,18.14,,,1986439.0
1551188817.703125,15.59,,,1987171.0
1551188817.71875,13.3,,,1987861.0
1551188817.734375,10.75,,,1986652.0
1551188817.75,7.54,,,1984753.0
1551188817.765625,3.58,,,1982695.0
1551188817.78125,-0.84,,,1983688.0
1551188817.796875,-5.2,,,1981890.0
1551188817.8125,-9.0,,,1981552.0
1551188817.828125,-11.96,,,1981257.0
1551188817.84375,-14.22,,,1981017.0
1551188817.859375,-16.3,,,1980563.0
1551188817.875,-18.96,,,1980496.0
1551188817.890625,-22.85,,,1980856.0
1551188817.90625,-28.34,,,1982153.0
1551188817.921875,-35.28,,,1982730.0
1551188817.9375,-42.91,,,1983384.0
1551188817.953125,-49.94,,,1984051.0
1551188817.96875,-54.82,,,1981511.0
1551188817.984375,-56.1,,,1980691.0
1551188818.0,-52.86,,,1985945.0
1551188818.015625,-45.05,,,1984814.0
1551188818.03125,-33.61,,,1987524.0
1551188818.046875,-20.15,,,1988089.0
1551188818.0625,-6.48,,,1986646.0
1551188818.078125,5.93,,,1986551.0
1551188818.09375,16.45,,,1984912.0
1551188818.109375,25.24,,,1984544.0
1551188818.125,33.02,,,1984255.0
1551188818.140625,40.59,,,1983010.0
1551188818.15625,48.47,,,1981507.0
1551188818.171875,56.61,,,1982311.0
1551188818.1875,64.45,,,1980764.0
1551188818.203125,71.13,,,1980127.0
1551188818.21875,75.68,,,1979594.0
1551188818.234375,77.32,,,1979368.0
1551188818.25,75.65,,,1979358.0
1551188818.265625,70.66,,,1979477.0
1551188818.28125,62.77,,,1980189.0
1551188818.296875,52.68,,,1979816.0
1551188818.3125,41.27,,,1980561.0
1551188818.328125,29.51,,,1981055.0
1551188818.34375,18.3,,,1981712.0
1551188818.359375,8.45,,,1982129.0
1551188818.375,0.52,,,1982977.0
1551188818.390625,-5.26,,,1983752.0
1551188818.40625,-9.06,,,1984629.0
1551188818.421875,-11.45,,,1985330.0
1551188818.4375,-13.26,,,1983473.0
1551188818.453125,-15.25,,,1981580.0
1551188818.46875,-17.9,,,1980360.0
1551188818.484375,-21.16,,,1979436.0
1551188818.5,-24.6,,,1977923.0
1551188818.515625,-27.61,,,1977328.0
1551188818.53125,-29.77,,,1977030.0
1551188818.546875,-31.08,,,1976449.0
1551188818.5625,-31.96,,,1975841.0
1551188818.578125,-33.06,,,1975746.0
1551188818.59375,-34.87,,,1975826.0
1551188818.609375,-37.53,,,1976075.0
1551188818.625,-40.7,,,1976490.0
1551188818.640625,-43.81,,,1976724.0
1551188818.65625,-46.42,,,1977103.0
1551188818.671875,-48.35,,,1977583.0
1551188818.6875,-49.9,,,1978239.0
1551188818.703125,-51.64,,,1979016.0
1551188818.71875,-54.22,,,1979793.0
1551188818.734375,-58.16,,,1980764.0
1551188818.75,-63.7,,,1981444.0
1551188818.765625,-70.63,,,1980789.0
1551188818.78125,-78.15,,,1978437.0
1551188818.796875,-84.92,,,1977037.0
1551188818.8125,-89.27,,,1976354.0
1551188818.828125,-89.59,,,1975816.0
1551188818.84375,-84.94,,,1975210.0
1551188818.859375,-75.42,,,1975356.0
1551188818.875,-62.24,,,1975491.0
1551188818.890625,-47.37,,,1975162.0
1551188818.90625,-32.83,,,1974752.0
1551188818.921875,-20.14,,,1974336.0
1551188818.9375,-9.89,,,1974226.0
1551188818.953125,-1.81,,,1974523.0
1551188818.96875,4.86,,,1974749.0
1551188818.984375,10.92,,,1975200.0
1551188819.0,16.84,,,1975621.0
1551188819.015625,22.64,,,1975987.0
1551188819.03125,28.02,,,1976638.0
1551188819.046875,32.6,,,1977957.0
1551188819.0625,36.1,,,1978822.0
1551188819.078125,38.48,,,1979465.0
1551188819.09375,39.92,,,1980407.0
1551188819.109375,40.72,,,1981104.0
1551188819.125,41.21,,,1979721.0
1551188819.140625,41.6,,,1977246.0
1551188819.15625,42.01,,,1975337.0
1551188819.171875,42.45,,,1973654.0
1551188819.1875,42.91,,,1971935.0
1551188819.203125,43.37,,,1970669.0
1551188819.21875,43.82,,,1969652.0
1551188819.234375,44.21,,,1968854.0
1551188819.25,44.36,,,1968063.0
1551188819.265625,43.95,,,1967549.0
1551188819.28125,42.58,,,1967222.0
1551188819.296875,39.91,,,1967358.0
1551188819.3125,35.89,,,1967658.0
1551188819.328125,30.85,,,1967929.0
1551188819.34375,25.42,,,1968366.0
1551188819.359375,20.34,,,1968706.0
1551188819.375,16.12,,,1969510.0
1551188819.390625,12.85,,,1969948.0
1551188819.40625,10.13,,,1970640.0
1551188819.421875,7.27,,,1971369.0
1551188819.4375,3.68,,,1972373.0
1551188819.453125,-0.88,,,1973094.0
1551188819.46875,-6.2,,,1972943.0
1551188819.484375,-11.76,,,1970764.0
1551188819.5,-16.94,,,1969011.0
1551188819.515625,-21.38,,,1967671.0
1551188819.53125,-25.02,,,1967150.0
1551188819.546875,-28.2,,,1966036.0
1551188819.5625,-31.48,,,1965054.0
1551188819.578125,-35.52,,,1963935.0
1551188819.59375,-40.84,,,1962841.0
1551188819.609375,-47.66,,,1962800.0
1551188819.625,-55.67,,,1963352.0
1551188819.640625,-64.01,,,1964197.0
1551188819.65625,-71.23,,,1964614.0
1551188819.671875,-75.66,,,1965334.0
1551188819.6875,-75.79,,,1965822.0
1551188819.703125,-70.89,,,1966326.0
1551188819.71875,-61.31,,,1966886.0
1551188819.734375,-48.45,,,1967605.0
1551188819.75,-34.36,,,1968240.0
1551188819.765625,-21.05,,,1969132.0
1551188819.78125,-9.83,,,1970191.0
1551188819.796875,-1.09,,,1970757.0
1551188819.8125,5.68,,,1969957.0
1551188819.828125,11.41,,,1967859.0
1551188819.84375,16.93,,,1966060.0
1551188819.859375,22.68,,,1964315.0
1551188819.875,28.58,,,1962586.0
1551188819.890625,34.23,,,1961097.0
1551188819.90625,39.16,,,1960305.0
1551188819.921875,43.04,,,1960041.0
1551188819.9375,45.81,,,1959331.0
1551188819.953125,47.62,,,1958733.0
1551188819.96875,48.76,,,1958654.0
1551188819.984375,49.55,,,1958629.0
1551188820.0,50.17,,,1959056.0
1551188820.015625,50.72,,,1959528.0
1551188820.03125,51.15,,,1960002.0
1551188820.046875,51.43,,,1960482.0
1551188820.0625,51.58,,,1961427.0
1551188820.078125,51.7,,,1961919.0
1551188820.09375,51.92,,,1963038.0
1551188820.109375,52.22,,,1963666.0
1551188820.125,52.39,,,1964756.0
1551188820.140625,52.07,,,1965741.0
1551188820.15625,50.89,,,1965542.0
1551188820.171875,48.71,,,1963138.0
1551188820.1875,45.73,,,1961049.0
1551188820.203125,42.44,,,1959126.0
1551188820.21875,39.45,,,1957284.0
1551188820.234375,37.16,,,1955659.0
1551188820.25,35.64,,,1954479.0
1551188820.265625,34.6,,,1953648.0
1551188820.28125,33.54,,,1953033.0
1551188820.296875,32.01,,,1952032.0
1551188820.3125,29.82,,,1950516.0
1551188820.328125,27.2,,,1949577.0
1551188820.34375,24.68,,,1949292.0
1551188820.359375,22.93,,,1950534.0
1551188820.375,22.54,,,1951778.0
1551188820.390625,23.74,,,1952826.0
1551188820.40625,26.26,,,1953710.0
1551188820.421875,29.22,,,1954333.0
1551188820.4375,31.2,,,1955094.0
1551188820.453125,30.45,,,1955915.0
1551188820.46875,25.31,,,1956993.0
1551188820.484375,14.68,,,1957794.0
1551188820.5,-1.49,,,1958905.0
1551188820.515625,-21.96,,,1958717.0
1551188820.53125,-44.28,,,1956569.0
1551188820.546875,-65.37,,,1954621.0
1551188820.5625,-82.32,,,1953298.0
1551188820.578125,-93.17,,,1951810.0
1551188820.59375,-97.34,,,1950336.0
1551188820.609375,-95.69,,,1949860.0
1551188820.625,-89.95,,,1949400.0
1551188820.640625,-82.11,,,1948827.0
1551188820.65625,-73.76,,,1948230.0
1551188820.671875,-65.85,,,1948439.0
1551188820.6875,-58.63,,,1948411.0
1551188820.703125,-51.96,,,1948723.0
1551188820.71875,-45.63,,,1949092.0
1551188820.734375,-39.52,,,1949751.0
1551188820.75,-33.73,,,1950510.0
1551188820.765625,-28.44,,,1951171.0
1551188820.78125,-23.79,,,1951871.0
1551188820.796875,-19.7,,,1952449.0
1551188820.8125,-15.96,,,1953483.0
1551188820.828125,-12.25,,,1955346.0
1551188820.84375,-8.4,,,1955669.0
1551188820.859375,-4.45,,,1953787.0
1551188820.875,-0.61,,,1954342.0
1551188820.890625,2.84,,,1951663.0
1551188820.90625,5.78,,,1948074.0
1551188820.921875,8.29,,,1949906.0
1551188820.9375,10.58,,,1946255.0
1551188820.953125,12.81,,,1944841.0
1551188820.96875,14.98,,,1944461.0
1551188820.984375,16.82,,,1943923.0
1551188821.0,17.88,,,1943440.0
1551188821.015625,17.8,,,1942828.0
1551188821.03125,16.41,,,1942659.0
1551188821.046875,13.98,,,1942833.0
1551188821.0625,11.01,,,1943380.0
1551188821.078125,8.13,,,1943836.0
1551188821.09375,5.85,,,1944716.0
1551188821.109375,4.34,,,1946144.0
1551188821.125,3.42,,,1947430.0
1551188821.140625,2.6,,,1949951.0
1551188821.15625,1.28,,,1951895.0
1551188821.171875,-1.0,,,1953339.0
1551188821.1875,-4.39,,,1954784.0
1551188821.203125,-8.65,,,1956079.0
1551188821.21875,-13.27,,,1956683.0
1551188821.234375,-17.65,,,1955533.0
1551188821.25,-21.33,,,1953372.0
1551188821.265625,-24.2,,,1951665.0
1551188821.28125,-26.52,,,1950337.0
1551188821.296875,-28.88,,,1948995.0
1551188821.3125,-31.94,,,1948120.0
1551188821.328125,-36.27,,,1947640.0
1551188821.34375,-42.12,,,1947101.0
1551188821.359375,-49.28,,,1946518.0
1551188821.375,-57.0,,,1946355.0
1551188821.390625,-64.02,,,1946502.0
1551188821.40625,-68.82,,,1946603.0
1551188821.421875,-69.94,,,1946883.0
1551188821.4375,-66.5,,,1947697.0
1551188821.453125,-58.53,,,1948274.0
1551188821.46875,-47.12,,,1948678.0
1551188821.484375,-34.08,,,1949303.0
1551188821.5,-21.37,,,1949859.0
1551188821.515625,-10.53,,,1950782.0
1551188821.53125,-2.16,,,1951878.0
1551188821.546875,4.04,,,1952937.0
1551188821.5625,8.96,,,1953734.0
1551188821.578125,13.56,,,1953251.0
1551188821.59375,18.43,,,1950853.0
1551188821.609375,23.61,,,1949325.0
1551188821.625,28.73,,,1947677.0
1551188821.640625,33.24,,,1946169.0
1551188821.65625,36.75,,,1944523.0
1551188821.671875,39.14,,,1944060.0
1551188821.6875,40.57,,,1943606.0
1551188821.703125,41.38,,,1943011.0
1551188821.71875,41.84,,,1942664.0
1551188821.734375,42.11,,,1942658.0
1551188821.75,42.28,,,1943116.0
1551188821.765625,42.36,,,1943391.0
1551188821.78125,42.4,,,1943937.0
1551188821.796875,42.53,,,1944458.0
1551188821.8125,42.8,,,1945291.0
1551188821.828125,43.14,,,1946348.0
1551188821.84375,43.32,,,1947347.0
1551188821.859375,42.95,,,1948383.0
1551188821.875,41.61,,,1949120.0
1551188821.890625,39.08,,,1950284.0
1551188821.90625,35.44,,,1951463.0
1551188821.921875,31.02,,,1951914.0
1551188821.9375,26.39,,,1950181.0
1551188821.953125,22.15,,,1948320.0
1551188821.96875,18.68,,,1946743.0
1551188821.984375,16.09,,,1945369.0
1551188822.0,14.1,,,1944076.0
1551188822.015625,12.2,,,1943235.0
1551188822.03125,9.83,,,1942803.0
1551188822.046875,6.6,,,1942485.0
1551188822.0625,2.43,,,1942052.0
1551188822.078125,-2.4,,,1941910.0
1551188822.09375,-7.41,,,1942260.0
1551188822.109375,-12.06,,,1942585.0
1551188822.125,-16.03,,,1943015.0
1551188822.140625,-19.31,,,1943826.0
1551188822.15625,-22.2,,,1944482.0
1551188822.171875,-25.27,,,1946379.0
1551188822.1875,-29.14,,,1945334.0
1551188822.203125,-34.34,,,1947345.0
1551188822.21875,-41.07,,,1948326.0
1551188822.234375,-49.03,,,1949473.0
1551188822.25,-57.31,,,1950760.0
1551188822.265625,-64.49,,,1951841.0
1551188822.28125,-68.98,,,1952981.0
1551188822.296875,-69.44,,,1951916.0
1551188822.3125,-65.29,,,1950127.0
1551188822.328125,-56.96,,,1949038.0
1551188822.34375,-45.74,,,1948481.0
1551188822.359375,-33.4,,,1947665.0
1551188822.375,-21.56,,,1947424.0
1551188822.390625,-11.3,,,1947249.0
1551188822.40625,-2.96,,,1947100.0
1551188822.421875,3.8,,,1946876.0
1551188822.4375,9.59,,,1946981.0
1551188822.453125,15.0,,,1947432.0
1551188822.46875,20.31,,,1947828.0
1551188822.484375,25.45,,,1948360.0
1551188822.5,30.08,,,1949296.0
1551188822.515625,33.81,,,1949817.0
1551188822.53125,36.43,,,1950962.0
1551188822.546875,38.02,,,1951930.0
1551188822.5625,38.91,,,1952794.0
1551188822.578125,39.55,,,1953871.0
1551188822.59375,40.31,,,1955110.0
1551188822.609375,41.31,,,1956130.0
1551188822.625,42.46,,,1955618.0
1551188822.640625,43.55,,,1953740.0
1551188822.65625,44.46,,,1952349.0
1551188822.671875,45.19,,,1951345.0
1551188822.6875,45.82,,,1950356.0
1551188822.703125,46.42,,,1949302.0
1551188822.71875,46.86,,,1949066.0
1551188822.734375,46.82,,,1948758.0
1551188822.75,45.96,,,1948309.0
1551188822.765625,43.95,,,1948120.0
1551188822.78125,40.73,,,1948494.0
1551188822.796875,36.51,,,1948639.0
1551188822.8125,31.71,,,1949202.0
1551188822.828125,26.88,,,1949739.0
1551188822.84375,22.45,,,1950313.0
1551188822.859375,18.7,,,1951227.0
1551188822.875,15.58,,,1952244.0
1551188822.890625,12.79,,,1953215.0
1551188822.90625,9.94,,,1953976.0
1551188822.921875,6.66,,,1955185.0
1551188822.9375,2.81,,,1956040.0
1551188822.953125,-1.48,,,1957025.0
1551188822.96875,-5.88,,,1956037.0
1551188822.984375,-9.99,,,1954109.0
1551188823.0,-13.53,,,1952500.0
1551188823.015625,-16.45,,,1951089.0
1551188823.03125,-18.92,,,1949758.0
1551188823.046875,-21.33,,,1948425.0
1551188823.0625,-24.12,,,1948258.0
1551188823.078125,-27.73,,,1947568.0
1551188823.09375,-32.41,,,1947212.0
1551188823.109375,-38.2,,,1946953.0
1551188823.125,-44.77,,,1946818.0
1551188823.140625,-51.4,,,1947347.0
1551188823.15625,-57.01,,,1947880.0
1551188823.171875,-60.33,,,1948250.0
1551188823.1875,-60.32,,,1948684.0
1551188823.203125,-56.42,,,1949268.0
1551188823.21875,-48.87,,,1950292.0
1551188823.234375,-38.67,,,1951038.0
1551188823.25,-27.33,,,1952054.0
1551188823.265625,-16.42,,,1953187.0
1551188823.28125,-7.1,,,1954139.0
1551188823.296875,0.13,,,1955258.0
1551188823.3125,5.42,,,1954054.0
1551188823.328125,9.28,,,1952203.0
1551188823.34375,12.26,,,1950933.0
1551188823.359375,14.67,,,1950037.0
1551188823.375,16.55,,,1948983.0
1551188823.390625,17.76,,,1948370.0
1551188823.40625,18.26,,,1948360.0
1551188823.421875,18.21,,,1948101.0
1551188823.4375,18.05,,,1947800.0
1551188823.453125,18.25,,,1948457.0
1551188823.46875,19.15,,,1949605.0
1551188823.484375,20.75,,,1950853.0
1551188823.5,22.7,,,1949057.0
1551188823.515625,24.53,,,1947954.0
1551188823.53125,25.78,,,1952379.0
1551188823.546875,26.29,,,1955535.0
1551188823.5625,26.2,,,1958140.0
1551188823.578125,25.75,,,1959391.0
1551188823.59375,25.19,,,1960903.0
1551188823.609375,24.52,,,1954011.0
1551188823.625,23.55,,,1956492.0
1551188823.640625,22.0,,,1960675.0
1551188823.65625,19.65,,,1961701.0
1551188823.671875,16.5,,,1956209.0
1551188823.6875,12.81,,,1958414.0
1551188823.703125,8.94,,,1954204.0
1551188823.71875,5.27,,,1952141.0
1551188823.734375,2.09,,,1950976.0
1551188823.75,-0.54,,,1950433.0
1551188823.765625,-2.74,,,1949867.0
1551188823.78125,-4.87,,,1949349.0
1551188823.796875,-7.28,,,1948892.0
1551188823.8125,-10.28,,,1948679.0
1551188823.828125,-13.92,,,1948784.0
1551188823.84375,-18.01,,,1949243.0
1551188823.859375,-22.15,,,1949691.0
1551188823.875,-25.89,,,1950127.0
1551188823.890625,-28.96,,,1950476.0
1551188823.90625,-31.41,,,1951145.0
1551188823.921875,-33.62,,,1951689.0
1551188823.9375,-36.14,,,1952736.0
1551188823.953125,-39.57,,,1953489.0
1551188823.96875,-44.32,,,1954477.0
1551188823.984375,-50.56,,,1955393.0
1551188824.0,-58.03,,,1955464.0
1551188824.015625,-65.97,,,1952784.0
1551188824.03125,-73.2,,,1949296.0
1551188824.046875,-78.16,,,1946822.0
1551188824.0625,-79.39,,,1944116.0
1551188824.078125,-75.93,,,1941454.0
1551188824.09375,-67.8,,,1939472.0
1551188824.109375,-56.08,,,1938486.0
1551188824.125,-42.61,,,1936864.0
1551188824.140625,-29.42,,,1935649.0
1551188824.15625,-18.03,,,1934733.0
1551188824.171875,-9.13,,,1934141.0
1551188824.1875,-2.4,,,1934453.0
1551188824.203125,2.99,,,1934488.0
1551188824.21875,7.97,,,1935598.0
1551188824.234375,13.1,,,1936404.0
1551188824.25,18.45,,,1937266.0
1551188824.265625,23.66,,,1937882.0
1551188824.28125,28.21,,,1938660.0
1551188824.296875,31.75,,,1939557.0
1551188824.3125,34.19,,,1940584.0
1551188824.328125,35.72,,,1941671.0
1551188824.34375,36.7,,,1942769.0
1551188824.359375,37.44,,,1941492.0
1551188824.375,38.09,,,1938938.0
1551188824.390625,38.67,,,1936192.0
1551188824.40625,39.13,,,1934592.0
1551188824.421875,39.5,,,1934985.0
1551188824.4375,39.89,,,1935957.0
1551188824.453125,40.41,,,1936318.0
1551188824.46875,41.04,,,1936361.0
1551188824.484375,41.56,,,1936091.0
1551188824.5,41.59,,,1935820.0
1551188824.515625,40.79,,,1936278.0
1551188824.53125,38.97,,,1936492.0
1551188824.546875,36.21,,,1937188.0
1551188824.5625,32.74,,,1937580.0
1551188824.578125,28.91,,,1938437.0
1551188824.59375,25.0,,,1939135.0
1551188824.609375,21.22,,,1940091.0
1551188824.625,17.76,,,1940999.0
1551188824.640625,14.74,,,1941932.0
1551188824.65625,12.2,,,1943212.0
1551188824.671875,10.01,,,1944471.0
1551188824.6875,7.86,,,1944820.0
1551188824.703125,5.33,,,1943051.0
1551188824.71875,2.13,,,1941339.0
1551188824.734375,-1.8,,,1939750.0
1551188824.75,-6.18,,,1938290.0
1551188824.765625,-10.54,,,1936793.0
1551188824.78125,-14.46,,,1935907.0
1551188824.796875,-17.8,,,1935561.0
1551188824.8125,-20.76,,,1935446.0
1551188824.828125,-23.83,,,1934799.0
1551188824.84375,-27.56,,,1934698.0
1551188824.859375,-32.42,,,1935098.0
1551188824.875,-38.59,,,1935373.0
1551188824.890625,-45.84,,,1935721.0
1551188824.90625,-53.47,,,1936448.0
1551188824.921875,-60.34,,,1937365.0
1551188824.9375,-65.04,,,1938117.0
1551188824.953125,-66.25,,,1938952.0
1551188824.96875,-63.14,,,1939964.0
1551188824.984375,-55.79,,,1940999.0
1551188825.0,-45.19,,,1942448.0
1551188825.015625,-33.02,,,1943575.0
1551188825.03125,-21.1,,,1944599.0
1551188825.046875,-10.8,,,1943918.0
1551188825.0625,-2.72,,,1940680.0
1551188825.078125,3.37,,,1941876.0
1551188825.09375,8.18,,,1939231.0
1551188825.109375,12.39,,,1936828.0
1551188825.125,16.37,,,1934354.0
1551188825.140625,20.06,,,1933261.0
1551188825.15625,23.11,,,1933535.0
1551188825.171875,25.24,,,1934121.0
1551188825.1875,26.4,,,1935334.0
1551188825.203125,26.91,,,1934726.0
1551188825.21875,27.29,,,1936887.0
1551188825.234375,27.99,,,1936034.0
1551188825.25,29.24,,,1937269.0
1551188825.265625,30.93,,,1937808.0
1551188825.28125,32.7,,,1938541.0
1551188825.296875,34.18,,,1939300.0
1551188825.3125,35.15,,,1940185.0
1551188825.328125,35.61,,,1941193.0
1551188825.34375,35.75,,,1942181.0
1551188825.359375,35.76,,,1943137.0
1551188825.375,35.65,,,1944403.0
1551188825.390625,35.24,,,1944186.0
1551188825.40625,34.19,,,1945258.0
1551188825.421875,32.23,,,1942703.0
1551188825.4375,29.27,,,1941840.0
1551188825.453125,25.49,,,1941039.0
1551188825.46875,21.35,,,1940011.0
1551188825.484375,17.31,,,1940208.0
1551188825.5,13.76,,,1940188.0
1551188825.515625,10.83,,,1940113.0
1551188825.53125,8.41,,,1940239.0
1551188825.546875,6.2,,,1940171.0
1551188825.5625,3.78,,,1940835.0
1551188825.578125,0.8,,,1941434.0
1551188825.59375,-2.92,,,1942119.0
1551188825.609375,-7.32,,,1942943.0
1551188825.625,-12.12,,,1943487.0
1551188825.640625,-16.88,,,1944438.0
1551188825.65625,-21.23,,,1945672.0
1551188825.671875,-24.97,,,1946849.0
1551188825.6875,-28.21,,,1948204.0
1551188825.703125,-31.36,,,1951991.0
1551188825.71875,-34.95,,,1951864.0
1551188825.734375,-39.48,,,1950618.0
1551188825.75,-45.24,,,1949931.0
1551188825.765625,-52.12,,,1949372.0
1551188825.78125,-59.57,,,1948915.0
1551188825.796875,-66.58,,,1947850.0
1551188825.8125,-71.79,,,1947225.0
1551188825.828125,-73.84,,,1946086.0
1551188825.84375,-71.74,,,1945966.0
1551188825.859375,-65.33,,,1945935.0
1551188825.875,-55.34,,,1945886.0
1551188825.890625,-43.32,,,1945790.0
1551188825.90625,-31.03,,,1946108.0
1551188825.921875,-19.92,,,1946569.0
1551188825.9375,-10.72,,,1947205.0
1551188825.953125,-3.39,,,1948071.0
1551188825.96875,2.61,,,1948588.0
1551188825.984375,7.87,,,1949457.0
1551188826.0,12.73,,,1950437.0
1551188826.015625,17.22,,,1951629.0
1551188826.03125,21.12,,,1952539.0
1551188826.046875,24.25,,,1953717.0
1551188826.0625,26.55,,,1954695.0
1551188826.078125,28.18,,,1955971.0
1551188826.09375,29.38,,,1956999.0
1551188826.109375,30.37,,,1956671.0
1551188826.125,31.28,,,1955082.0
1551188826.140625,32.11,,,1954392.0
1551188826.15625,32.81,,,1954025.0
1551188826.171875,33.35,,,1953310.0
1551188826.1875,33.78,,,1953116.0
1551188826.203125,34.18,,,1953266.0
1551188826.21875,34.65,,,1953114.0
1551188826.234375,35.23,,,1953043.0
1551188826.25,35.77,,,1953365.0
1551188826.265625,35.93,,,1953828.0
1551188826.28125,35.33,,,1954374.0
1551188826.296875,33.61,,,1955239.0
1551188826.3125,30.61,,,1956020.0
1551188826.328125,26.53,,,1956837.0
1551188826.34375,21.82,,,1957870.0
1551188826.359375,17.14,,,1958744.0
1551188826.375,13.1,,,1959703.0
1551188826.390625,9.99,,,1960852.0
1551188826.40625,7.74,,,1962134.0
1551188826.421875,5.86,,,1963237.0
1551188826.4375,3.73,,,1963452.0
1551188826.453125,0.84,,,1961929.0
1551188826.46875,-2.95,,,1960778.0
1551188826.484375,-7.41,,,1959842.0
1551188826.5,-12.05,,,1958892.0
1551188826.515625,-16.39,,,1958020.0
1551188826.53125,-20.17,,,1957964.0
1551188826.546875,-23.45,,,1957823.0
1551188826.5625,-26.54,,,1957619.0
1551188826.578125,-29.91,,,1957554.0
1551188826.59375,-34.02,,,1958019.0
1551188826.609375,-39.26,,,1958082.0
1551188826.625,-45.83,,,1959440.0
1551188826.640625,-53.55,,,1960484.0
1551188826.65625,-61.75,,,1961583.0
1551188826.671875,-69.18,,,1962512.0
1551188826.6875,-74.17,,,1963773.0
1551188826.703125,-75.22,,,1964215.0
1551188826.71875,-71.46,,,1965135.0
1551188826.734375,-63.1,,,1965987.0
1551188826.75,-51.39,,,1966880.0
1551188826.765625,-38.25,,,1967998.0
1551188826.78125,-25.53,,,1968848.0
1551188826.796875,-14.52,,,1969071.0
1551188826.8125,-5.65,,,1968897.0
1551188826.828125,1.38,,,1968512.0
1551188826.84375,7.25,,,1967815.0
1551188826.859375,12.62,,,1966829.0
1551188826.875,17.92,,,1966056.0
1551188826.890625,23.23,,,1965402.0
1551188826.90625,28.36,,,1965117.0
1551188826.921875,33.02,,,1964284.0
1551188826.9375,36.88,,,1963962.0
1551188826.953125,39.73,,,1964082.0
1551188826.96875,41.55,,,1964212.0
1551188826.984375,42.54,,,1964378.0
1551188827.0,43.02,,,1964779.0
1551188827.015625,43.4,,,1965564.0
1551188827.03125,43.98,,,1966096.0
1551188827.046875,44.82,,,1966563.0
1551188827.0625,45.84,,,1967203.0
1551188827.078125,46.76,,,1967986.0
1551188827.09375,47.34,,,1969062.0
1551188827.109375,47.4,,,1970147.0
1551188827.125,46.91,,,1970892.0
1551188827.140625,45.89,,,1971515.0
1551188827.15625,44.38,,,1970792.0
1551188827.171875,42.34,,,1969132.0
1551188827.1875,39.67,,,1968066.0
1551188827.203125,36.34,,,1967177.0
1551188827.21875,32.41,,,1966401.0
1551188827.234375,28.18,,,1965581.0
1551188827.25,24.03,,,1965386.0
1551188827.265625,20.33,,,1964993.0
1551188827.28125,17.29,,,1964991.0
1551188827.296875,14.78,,,1964591.0
1551188827.3125,12.49,,,1964753.0
1551188827.328125,9.97,,,1965045.0
1551188827.34375,6.91,,,1965395.0
1551188827.359375,3.21,,,1966197.0
1551188827.375,-0.97,,,1966518.0
1551188827.390625,-5.32,,,1967182.0
1551188827.40625,-9.53,,,1968175.0
1551188827.421875,-13.42,,,1968795.0
1551188827.4375,-16.97,,,1969545.0
1551188827.453125,-20.32,,,1970676.0
1551188827.46875,-23.67,,,1971810.0
1551188827.484375,-27.3,,,1971881.0
1551188827.5,-31.48,,,1970208.0
1551188827.515625,-36.46,,,1968677.0
1551188827.53125,-42.3,,,1967609.0
1551188827.546875,-48.72,,,1966725.0
1551188827.5625,-54.94,,,1965186.0
1551188827.578125,-59.78,,,1964546.0
1551188827.59375,-61.87,,,1964215.0
1551188827.609375,-60.16,,,1963793.0
1551188827.625,-54.31,,,1963419.0
1551188827.640625,-44.93,,,1963788.0
1551188827.65625,-33.35,,,1963826.0
1551188827.671875,-21.27,,,1963911.0
1551188827.6875,-10.19,,,1964368.0
1551188827.703125,-0.98,,,1965008.0
1551188827.71875,6.18,,,1965455.0
1551188827.734375,11.69,,,1966026.0
1551188827.75,16.12,,,1966826.0
1551188827.765625,19.93,,,1967417.0
1551188827.78125,23.28,,,1968248.0
1551188827.796875,25.99,,,1969105.0
1551188827.8125,27.85,,,1970099.0
1551188827.828125,28.69,,,1970985.0
1551188827.84375,28.64,,,1971269.0
1551188827.859375,28.05,,,1969432.0
1551188827.875,27.41,,,1967455.0
1551188827.890625,27.12,,,1965993.0
1551188827.90625,27.33,,,1964234.0
1551188827.921875,27.92,,,1962510.0
1551188827.9375,28.64,,,1961431.0
1551188827.953125,29.18,,,1960804.0
1551188827.96875,29.38,,,1960030.0
1551188827.984375,29.24,,,1959535.0
1551188828.0,28.84,,,1959009.0
1551188828.015625,28.23,,,1958789.0
1551188828.03125,27.39,,,1958690.0
1551188828.046875,26.18,,,1958751.0
1551188828.0625,24.43,,,1959222.0
1551188828.078125,22.1,,,1959570.0
1551188828.09375,19.25,,,1959899.0
1551188828.109375,16.04,,,1960248.0
1551188828.125,12.66,,,1960880.0
1551188828.140625,9.3,,,1961722.0
1551188828.15625,6.07,,,1962396.0
1551188828.171875,3.1,,,1963334.0
1551188828.1875,0.4,,,1964171.0
1551188828.203125,-2.08,,,1963981.0
1551188828.21875,-4.53,,,1962251.0
1551188828.234375,-7.22,,,1960595.0
1551188828.25,-10.4,,,1959531.0
1551188828.265625,-14.13,,,1958835.0
1551188828.28125,-18.22,,,1958048.0
1551188828.296875,-22.31,,,1957936.0
1551188828.3125,-26.07,,,1957963.0
1551188828.328125,-29.36,,,1957824.0
1551188828.34375,-32.42,,,1958123.0
1551188828.359375,-35.76,,,1958583.0
1551188828.375,-40.0,,,1958794.0
1551188828.390625,-45.57,,,1959226.0
1551188828.40625,-52.52,,,1960070.0
1551188828.421875,-60.48,,,1962567.0
1551188828.4375,-68.57,,,1964313.0
1551188828.453125,-75.62,,,1965394.0
1551188828.46875,-80.27,,,1966379.0
1551188828.484375,-81.31,,,1967148.0
1551188828.5,-78.02,,,1968005.0
1551188828.515625,-70.42,,,1968946.0
1551188828.53125,-59.41,,,1969801.0
1551188828.546875,-46.53,,,1970652.0
1551188828.5625,-33.54,,,1970426.0
1551188828.578125,-21.9,,,1968180.0
1551188828.59375,-12.34,,,1966461.0
1551188828.609375,-4.79,,,1963070.0
1551188828.625,1.43,,,1964507.0
1551188828.640625,7.14,,,1960300.0
1551188828.65625,12.96,,,1961543.0
1551188828.671875,19.06,,,1959756.0
1551188828.6875,25.18,,,1959265.0
1551188828.703125,30.77,,,1958038.0
1551188828.71875,35.35,,,1958511.0
1551188828.734375,38.6,,,1958333.0
1551188828.75,40.55,,,1958530.0
