timestamp,bvp,eda,temp,PPG GREEN
1677485879.78125,40.55,1.487523,34.66,2348882.0
1677485879.796875,43.03,1.410671,34.68,2348759.0
1677485879.8125,44.17,1.474714,34.68,2348583.0
1677485879.828125,44.03,1.472153,34.68,2348264.0
1677485879.84375,42.83,1.48368,34.68,2348814.0
1677485879.859375,40.97,1.495208,34.68,2349188.0
1677485879.875,38.9,1.506736,34.68,2349359.0
1677485879.890625,37.0,1.543881,34.68,2349388.0
1677485879.90625,35.43,1.560533,34.68,2350317.0
1677485879.921875,34.1,1.533634,34.66,2350781.0
1677485879.9375,32.84,1.554128,34.66,2350940.0
1677485879.953125,31.44,1.568218,34.66,2350790.0
1677485879.96875,29.8,1.574622,34.66,2348114.0
1677485879.984375,27.92,1.573341,34.68,2346125.0
1677485880.0,25.81,1.568218,34.68,2345765.0
1677485880.015625,23.36,1.573341,34.68,2349340.0
1677485880.03125,20.41,1.568218,34.68,2346995.0
1677485880.046875,16.75,1.557971,34.68,2345758.0
1677485880.0625,12.33,1.543881,34.68,2345225.0
1677485880.078125,7.34,1.536196,34.68,2345273.0
1677485880.09375,2.24,1.533634,34.68,2345085.0
1677485880.109375,-2.5,1.525949,34.68,2344924.0
1677485880.125,-6.49,1.514421,34.68,2345739.0
1677485880.140625,-9.67,1.518264,34.68,2346052.0
1677485880.15625,-12.2,1.520826,34.68,2346323.0
1677485880.171875,-14.37,1.519545,34.66,2347202.0
1677485880.1875,-16.41,1.493927,34.66,2347626.0
1677485880.203125,-18.36,1.495208,34.66,2348858.0
1677485880.21875,-20.13,1.500332,34.66,2348891.0
1677485880.234375,-21.58,1.51186,34.65,2347885.0
1677485880.25,-22.64,1.528511,34.65,2348748.0
1677485880.265625,-23.38,1.540039,34.65,2347396.0
1677485880.28125,-23.99,1.564375,34.65,2346658.0
1677485880.296875,-24.66,1.588712,34.66,2345478.0
1677485880.3125,-25.59,1.605363,34.66,2344740.0
1677485880.328125,-26.87,1.613048,34.66,2344697.0
1677485880.34375,-28.52,1.610486,34.66,2344301.0
1677485880.359375,-30.31,1.618172,34.65,2344297.0
1677485880.375,-31.77,1.625857,34.65,2344213.0
1677485880.390625,-32.2,1.624576,34.65,2344553.0
1677485880.40625,-30.85,1.622014,34.65,2344839.0
1677485880.421875,-27.22,1.620733,34.68,2344849.0
1677485880.4375,-21.36,1.619452,34.68,2345597.0
1677485880.453125,-13.98,1.613048,34.68,2345583.0
1677485880.46875,-6.29,1.583588,34.68,2346024.0
1677485880.484375,0.31,1.588712,34.66,2346583.0
1677485880.5,4.69,1.598959,34.66,2346853.0
1677485880.515625,6.23,1.598959,34.66,2346943.0
1677485880.53125,4.96,1.598959,34.66,2347672.0
1677485880.546875,1.46,1.606644,34.66,2347649.0
1677485880.5625,-3.44,1.627138,34.66,2346712.0
1677485880.578125,-8.81,1.638665,34.66,2345647.0
1677485880.59375,-13.82,1.638665,34.66,2345081.0
1677485880.609375,-17.78,1.616891,34.66,2344437.0
1677485880.625,-20.22,1.611767,34.66,2344047.0
1677485880.640625,-20.95,1.619452,34.66,2344147.0
1677485880.65625,-20.02,1.624576,34.66,2343051.0
1677485880.671875,-17.71,1.623295,34.65,2343324.0
1677485880.6875,-14.42,1.622014,34.65,2342985.0
1677485880.703125,-10.47,1.627138,34.65,2343361.0
1677485880.71875,-6.09,1.627138,34.65,2343648.0
1677485880.734375,-1.44,1.627138,34.65,2344145.0
1677485880.75,3.36,1.620733,34.65,2344856.0
1677485880.765625,8.11,1.618172,34.65,2345411.0
1677485880.78125,12.66,1.622014,34.65,2346864.0
1677485880.796875,17.07,1.610486,34.66,2347822.0
1677485880.8125,21.72,1.610486,34.66,2348911.0
1677485880.828125,27.36,1.611767,34.66,2349898.0
1677485880.84375,34.87,1.610486,34.66,2349513.0
1677485880.859375,44.92,1.605363,34.65,2348555.0
1677485880.875,57.5,1.598959,34.65,2347756.0
1677485880.890625,71.78,1.60152,34.65,2347195.0
1677485880.90625,86.19,1.604082,34.65,2346543.0
1677485880.921875,98.8,1.60152,34.65,2346854.0
1677485880.9375,107.91,1.597678,34.65,2346048.0
1677485880.953125,112.49,1.524668,34.65,2341843.0
1677485880.96875,112.43,1.578465,34.65,2337144.0
1677485880.984375,108.49,1.58615,34.65,2337611.0
1677485881.0,102.08,1.584869,34.65,2339977.0
1677485881.015625,94.75,1.58615,34.65,2338278.0
1677485881.03125,87.68,1.579746,34.65,2332200.0
1677485881.046875,81.2,1.568218,34.65,2321622.0
1677485881.0625,74.39,1.555409,34.65,2310891.0
1677485881.078125,65.23,1.55669,34.65,2299788.0
1677485881.09375,51.06,1.563094,34.65,2285112.0
1677485881.109375,29.58,1.568218,34.65,2270806.0
1677485881.125,-0.15,1.565656,34.65,2254927.0
1677485881.140625,-36.93,1.566937,34.65,2245753.0
1677485881.15625,-77.21,1.582307,34.65,2240805.0
1677485881.171875,-115.66,1.595116,34.66,2238374.0
1677485881.1875,-146.47,1.610486,34.66,2239842.0
1677485881.203125,-164.88,1.605363,34.66,2235552.0
1677485881.21875,-168.41,1.616891,34.66,2230532.0
1677485881.234375,-157.51,1.611767,34.66,2226188.0
1677485881.25,-135.29,1.606644,34.66,2223874.0
1677485881.265625,-106.49,1.600239,34.66,2225703.0
1677485881.28125,-76.21,1.595116,34.66,2233827.0
1677485881.296875,-48.68,1.597678,34.66,2255727.0
1677485881.3125,-26.62,1.592554,34.66,2260274.0
1677485881.328125,-11.08,1.58615,34.66,2243286.0
1677485881.34375,-1.85,1.593835,34.66,2250707.0
1677485881.359375,2.13,1.61561,34.65,2270658.0
1677485881.375,2.25,1.661721,34.65,2265402.0
1677485881.390625,0.07,1.70399,34.65,2275303.0
1677485881.40625,-2.88,1.701428,34.65,2279734.0
1677485881.421875,-5.19,1.738573,34.66,2283347.0
1677485881.4375,-5.89,1.773157,34.66,2286555.0
1677485881.453125,-4.64,1.760348,34.66,2288909.0
1677485881.46875,-1.93,1.741135,34.66,2289616.0
1677485881.484375,1.18,1.727045,34.65,2289965.0
1677485881.5,3.43,1.714237,34.65,2290495.0
1677485881.515625,3.89,1.695024,34.65,2292038.0
1677485881.53125,2.34,1.668126,34.65,2293514.0
1677485881.546875,-0.68,1.686058,34.65,2295079.0
1677485881.5625,-4.15,1.683496,34.65,2296892.0
1677485881.578125,-7.11,1.677091,34.65,2299350.0
1677485881.59375,-9.06,1.671968,34.65,2301224.0
1677485881.609375,-10.15,1.680934,34.66,2303120.0
1677485881.625,-10.97,1.696305,34.66,2303627.0
1677485881.640625,-12.22,1.71936,34.66,2304059.0
1677485881.65625,-14.28,1.732169,34.66,2304344.0
1677485881.671875,-17.06,1.743697,34.65,2304270.0
1677485881.6875,-20.06,1.755224,34.65,2304780.0
1677485881.703125,-22.66,1.753944,34.65,2306086.0
1677485881.71875,-24.42,1.747539,34.65,2307340.0
1677485881.734375,-25.26,1.746258,34.65,2308597.0
1677485881.75,-25.44,1.736012,34.65,2310128.0
1677485881.765625,-25.52,1.725765,34.65,2311097.0
1677485881.78125,-26.17,1.716798,34.65,2311724.0
1677485881.796875,-27.97,1.712956,34.66,2312582.0
1677485881.8125,-31.15,1.710394,34.66,2313600.0
1677485881.828125,-35.47,1.692462,34.66,2314164.0
1677485881.84375,-40.05,1.686058,34.66,2315215.0
1677485881.859375,-43.58,1.675811,34.63,2316651.0
1677485881.875,-44.63,1.675811,34.63,2317599.0
1677485881.890625,-42.1,1.654036,34.63,2317822.0
1677485881.90625,-35.66,1.64507,34.63,2317752.0
1677485881.921875,-25.88,1.66044,34.66,2317106.0
1677485881.9375,-14.03,1.647632,34.66,2316344.0
1677485881.953125,-1.69,1.641227,34.66,2315927.0
1677485881.96875,9.75,1.650193,34.66,2316267.0
1677485881.984375,19.46,1.686058,34.65,2316113.0
1677485882.0,27.13,1.706552,34.65,2315574.0
1677485882.015625,32.79,1.705271,34.65,2312101.0
1677485882.03125,36.54,1.701428,34.65,2304026.0
1677485882.046875,38.37,1.710394,34.63,2289212.0
1677485882.0625,38.22,1.720641,34.63,2277356.0
1677485882.078125,36.16,1.730888,34.63,2270941.0
1677485882.09375,32.57,1.728326,34.63,2270831.0
1677485882.109375,28.2,1.718079,34.63,2272950.0
1677485882.125,23.89,1.712956,34.63,2268969.0
1677485882.140625,20.33,1.721922,34.63,2256449.0
1677485882.15625,17.79,1.710394,34.63,2246319.0
1677485882.171875,16.12,1.712956,34.61,2243421.0
1677485882.1875,14.95,1.697585,34.61,2244076.0
1677485882.203125,13.94,1.701428,34.61,2238043.0
1677485882.21875,12.87,1.673249,34.61,2241222.0
1677485882.234375,11.61,1.687338,34.61,2245147.0
1677485882.25,9.92,1.695024,34.61,2240204.0
1677485882.265625,7.44,1.700147,34.61,2235007.0
1677485882.28125,3.74,1.70399,34.61,2229375.0
1677485882.296875,-1.47,1.697585,34.63,2224156.0
1677485882.3125,-8.16,1.702709,34.63,2221597.0
1677485882.328125,-15.9,1.6899,34.63,2222088.0
1677485882.34375,-24.12,1.669406,34.63,2226574.0
1677485882.359375,-32.27,1.691181,34.61,2231634.0
1677485882.375,-40.03,1.691181,34.61,2236739.0
1677485882.390625,-47.36,1.702709,34.61,2241483.0
1677485882.40625,-54.39,1.707832,34.61,2246673.0
1677485882.421875,-61.3,1.698866,34.63,2251519.0
1677485882.4375,-68.35,1.697585,34.63,2259627.0
1677485882.453125,-75.9,1.695024,34.63,2268828.0
1677485882.46875,-84.37,1.67453,34.63,2275015.0
1677485882.484375,-94.1,1.70399,34.63,2280793.0
1677485882.5,-104.93,1.700147,34.63,2285184.0
1677485882.515625,-115.87,1.702709,34.63,2288715.0
1677485882.53125,-125.16,1.700147,34.63,2291357.0
1677485882.546875,-130.72,1.688619,34.61,2293592.0
1677485882.5625,-130.76,1.686058,34.61,2296210.0
1677485882.578125,-124.55,1.671968,34.61,2297764.0
1677485882.59375,-112.59,1.675811,34.61,2300125.0
1677485882.609375,-96.32,1.67453,34.63,2302362.0
1677485882.625,-77.47,1.675811,34.63,2304447.0
1677485882.640625,-57.39,1.675811,34.63,2306493.0
1677485882.65625,-36.77,1.677091,34.63,2308237.0
1677485882.671875,-15.83,1.673249,34.63,2309611.0
1677485882.6875,5.16,1.670687,34.63,2311253.0
1677485882.703125,25.47,1.671968,34.63,2312466.0
1677485882.71875,43.81,1.666845,34.63,2313778.0
1677485882.734375,58.66,1.661721,34.59,2314946.0
1677485882.75,68.81,1.659159,34.59,2316345.0
1677485882.765625,73.9,1.657879,34.59,2317528.0
1677485882.78125,74.51,1.657879,34.59,2318618.0
1677485882.796875,72.02,1.657879,34.61,2319321.0
1677485882.8125,68.18,1.651474,34.61,2319617.0
1677485882.828125,64.58,1.655317,34.61,2320442.0
1677485882.84375,62.4,1.650193,34.61,2320929.0
1677485882.859375,62.2,1.655317,34.61,2321032.0
1677485882.875,64.05,1.661721,34.61,2316616.0
1677485882.890625,67.53,1.663002,34.61,2303749.0
1677485882.90625,71.92,1.670687,34.61,2290840.0
1677485882.921875,76.38,1.661721,34.61,2285507.0
1677485882.9375,80.18,1.655317,34.61,2284546.0
1677485882.953125,82.88,1.659159,34.61,2284333.0
1677485882.96875,84.55,1.659159,34.61,2286865.0
1677485882.984375,85.67,1.654036,34.63,2290696.0
1677485883.0,86.96,1.651474,34.63,2293109.0
1677485883.015625,89.02,1.650193,34.63,2295044.0
1677485883.03125,91.89,1.654036,34.63,2296482.0
1677485883.046875,94.97,1.652755,34.61,2300282.0
1677485883.0625,96.98,1.647632,34.61,2304883.0
1677485883.078125,96.43,1.652755,34.61,2309064.0
1677485883.09375,92.0,1.657879,34.61,2312859.0
1677485883.109375,83.01,1.648912,34.61,2316287.0
1677485883.125,69.57,1.648912,34.61,2319784.0
1677485883.140625,52.5,1.657879,34.61,2322949.0
1677485883.15625,33.05,1.657879,34.61,2325213.0
1677485883.171875,12.73,1.656598,34.61,2327399.0
1677485883.1875,-6.9,1.648912,34.61,2329295.0
1677485883.203125,-24.3,1.646351,34.61,2330929.0
1677485883.21875,-38.06,1.647632,34.61,2332651.0
1677485883.234375,-47.12,1.650193,34.63,2334316.0
1677485883.25,-51.02,1.647632,34.63,2335951.0
1677485883.265625,-50.16,1.639946,34.63,2337412.0
1677485883.28125,-45.74,1.643789,34.63,2339135.0
1677485883.296875,-39.38,1.650193,34.61,2341017.0
1677485883.3125,-32.58,1.66044,34.61,2341911.0
1677485883.328125,-26.34,1.679653,34.61,2342680.0
1677485883.34375,-20.89,1.695024,34.61,2342791.0
1677485883.359375,-15.95,1.728326,34.63,2343451.0
1677485883.375,-11.2,1.744978,34.63,2343610.0
1677485883.390625,-6.61,1.752663,34.63,2344983.0
1677485883.40625,-2.58,1.755224,34.63,2344360.0
1677485883.421875,0.17,1.757786,34.61,2346323.0
1677485883.4375,0.97,1.751382,34.61,2345910.0
1677485883.453125,-0.56,1.746258,34.61,2347311.0
1677485883.46875,-4.29,1.746258,34.61,2348281.0
1677485883.484375,-9.65,1.744978,34.63,2346707.0
1677485883.5,-15.78,1.741135,34.63,2348974.0
1677485883.515625,-21.73,1.738573,34.63,2349938.0
1677485883.53125,-26.71,1.732169,34.63,2350711.0
1677485883.546875,-30.22,1.727045,34.63,2351912.0
1677485883.5625,-32.22,1.725765,34.63,2352420.0
1677485883.578125,-33.07,1.724484,34.63,2353163.0
1677485883.59375,-33.47,1.714237,34.63,2353532.0
1677485883.609375,-34.24,1.720641,34.61,2353570.0
1677485883.625,-35.96,1.714237,34.61,2353399.0
1677485883.640625,-38.85,1.709113,34.61,2352847.0
1677485883.65625,-42.72,1.706552,34.61,2353115.0
1677485883.671875,-47.06,1.707832,34.59,2354021.0
1677485883.6875,-51.28,1.715518,34.59,2353463.0
1677485883.703125,-54.99,1.73345,34.59,2350161.0
1677485883.71875,-58.05,1.74882,34.59,2339913.0
1677485883.734375,-60.68,1.770595,34.61,2329637.0
1677485883.75,-63.34,1.776999,34.61,2328334.0
1677485883.765625,-66.7,1.783404,34.61,2331264.0
1677485883.78125,-71.4,1.776999,34.61,2335636.0
1677485883.796875,-77.8,1.774438,34.63,2341013.0
1677485883.8125,-85.66,1.765471,34.63,2345914.0
1677485883.828125,-93.98,1.757786,34.63,2349469.0
1677485883.84375,-101.05,1.742416,34.63,2351515.0
1677485883.859375,-104.86,1.746258,34.63,2352868.0
1677485883.875,-103.67,1.747539,34.63,2354151.0
1677485883.890625,-96.53,1.747539,34.63,2354505.0
1677485883.90625,-83.59,1.741135,34.63,2355549.0
1677485883.921875,-65.87,1.73345,34.61,2356107.0
1677485883.9375,-44.95,1.727045,34.61,2357295.0
1677485883.953125,-22.5,1.712956,34.61,2358200.0
1677485883.96875,0.07,1.729607,34.61,2358781.0
1677485883.984375,21.65,1.730888,34.61,2360009.0
1677485884.0,41.39,1.73345,34.61,2359961.0
1677485884.015625,58.58,1.753944,34.61,2361004.0
1677485884.03125,72.62,1.787246,34.61,2361678.0
1677485884.046875,83.11,1.820549,34.59,2362302.0
1677485884.0625,89.89,1.86666,34.59,2363550.0
1677485884.078125,93.18,1.901243,34.59,2365056.0
1677485884.09375,93.57,1.912771,34.59,2366439.0
1677485884.109375,91.84,1.91021,34.61,2367775.0
1677485884.125,88.86,1.89612,34.61,2368729.0
1677485884.140625,85.33,1.888435,34.61,2369023.0
1677485884.15625,81.66,1.875626,34.61,2369047.0
1677485884.171875,77.97,1.864098,34.61,2369286.0
1677485884.1875,74.12,1.830796,34.61,2369254.0
1677485884.203125,69.97,1.839762,34.61,2369611.0
1677485884.21875,65.47,1.820549,34.61,2369661.0
1677485884.234375,60.75,1.820549,34.61,2369924.0
1677485884.25,56.08,1.809021,34.61,2370691.0
1677485884.265625,51.61,1.803898,34.61,2371358.0
1677485884.28125,47.25,1.798774,34.61,2371713.0
1677485884.296875,42.64,1.801336,34.61,2371999.0
1677485884.3125,37.23,1.801336,34.61,2372203.0
1677485884.328125,30.61,1.796212,34.61,2372772.0
1677485884.34375,22.71,1.79237,34.61,2372738.0
1677485884.359375,13.86,1.79237,34.61,2373794.0
1677485884.375,4.62,1.791089,34.61,2374202.0
1677485884.390625,-4.43,1.788527,34.61,2374542.0
1677485884.40625,-12.93,1.785965,34.61,2374439.0
1677485884.421875,-20.84,1.783404,34.59,2373273.0
1677485884.4375,-28.34,1.785965,34.59,2372738.0
1677485884.453125,-35.71,1.783404,34.59,2371765.0
1677485884.46875,-43.24,1.776999,34.59,2370873.0
1677485884.484375,-51.3,1.779561,34.61,2369798.0
1677485884.5,-60.26,1.773157,34.61,2368618.0
1677485884.515625,-70.35,1.768033,34.61,2365821.0
1677485884.53125,-81.33,1.765471,34.61,2361530.0
1677485884.546875,-92.23,1.746258,34.61,2359003.0
1677485884.5625,-101.3,1.741135,34.61,2357275.0
1677485884.578125,-106.38,1.759067,34.61,2354991.0
1677485884.59375,-105.59,1.766752,34.61,2340178.0
1677485884.609375,-97.95,1.800055,34.59,2322538.0
1677485884.625,-83.74,1.843604,34.59,2317797.0
1677485884.640625,-64.4,1.889716,34.59,2320443.0
1677485884.65625,-42.01,1.931984,34.59,2321519.0
1677485884.671875,-18.73,1.94095,34.61,2321132.0
1677485884.6875,3.65,1.961644,34.61,2324279.0
1677485884.703125,23.92,1.987261,34.61,2328729.0
1677485884.71875,41.4,1.974452,34.61,2332480.0
1677485884.734375,55.81,1.957801,34.59,2334778.0
1677485884.75,67.09,1.947554,34.59,2336152.0
1677485884.765625,75.32,1.94115,34.59,2336658.0
1677485884.78125,80.61,1.934745,34.59,2337859.0
1677485884.796875,83.15,1.925779,34.61,2339963.0
1677485884.8125,83.25,1.91169,34.61,2341581.0
1677485884.828125,81.42,1.895038,34.61,2343948.0
1677485884.84375,78.38,1.884791,34.61,2344930.0
1677485884.859375,75.04,1.871983,34.59,2345878.0
1677485884.875,72.16,1.854051,34.59,2346577.0
1677485884.890625,70.16,1.843804,34.59,2347728.0
1677485884.90625,68.94,1.833557,34.59,2349363.0
1677485884.921875,67.96,1.836118,34.61,2350245.0
1677485884.9375,66.57,1.829714,34.61,2351250.0
1677485884.953125,64.3,1.822029,34.61,2351910.0
1677485884.96875,61.13,1.819467,34.61,2351812.0
1677485884.984375,57.33,1.811782,34.59,2351951.0
1677485885.0,53.23,1.802816,34.59,2351115.0
1677485885.015625,48.87,1.796412,34.59,2350661.0
1677485885.03125,43.99,1.783603,34.59,2351028.0
1677485885.046875,38.15,1.796412,34.61,2350874.0
1677485885.0625,31.05,1.796412,34.61,2350806.0
1677485885.078125,22.74,1.806659,34.61,2350180.0
1677485885.09375,13.68,1.825871,34.61,2350171.0
1677485885.109375,4.46,1.845085,34.59,2350517.0
1677485885.125,-4.46,1.869421,34.59,2350755.0
1677485885.140625,-12.97,1.883511,34.59,2351266.0
1677485885.15625,-21.23,1.896319,34.59,2352453.0
1677485885.171875,-29.58,1.921937,34.59,2352073.0
1677485885.1875,-38.31,1.948835,34.59,2349578.0
1677485885.203125,-47.59,1.965486,34.59,2331184.0
1677485885.21875,-57.6,1.980857,34.59,2301864.0
1677485885.234375,-68.54,1.987261,34.57,2290527.0
1677485885.25,-80.54,1.987261,34.57,2287407.0
1677485885.265625,-93.41,1.980857,34.57,2285111.0
1677485885.28125,-106.27,1.965486,34.57,2282667.0
1677485885.296875,-117.46,1.959082,34.57,2279332.0
1677485885.3125,-124.83,1.939869,34.57,2275828.0
1677485885.328125,-126.29,1.933464,34.57,2273189.0
1677485885.34375,-120.53,1.92706,34.57,2269575.0
1677485885.359375,-107.45,1.91169,34.57,2266535.0
1677485885.375,-88.2,1.910409,34.57,2264752.0
1677485885.390625,-64.76,1.906566,34.57,2263245.0
1677485885.40625,-39.37,1.901443,34.57,2262361.0
1677485885.421875,-14.01,1.891196,34.59,2262503.0
1677485885.4375,9.96,1.887353,34.59,2262301.0
1677485885.453125,31.65,1.88223,34.59,2262292.0
1677485885.46875,50.55,1.88223,34.59,2262809.0
1677485885.484375,66.24,1.880949,34.57,2262938.0
1677485885.5,78.31,1.873264,34.57,2263935.0
1677485885.515625,86.45,1.86814,34.57,2264007.0
1677485885.53125,90.64,1.855331,34.57,2263700.0
1677485885.546875,91.36,1.865578,34.57,2263014.0
1677485885.5625,89.6,1.859174,34.57,2261102.0
1677485885.578125,86.68,1.856612,34.57,2259164.0
1677485885.59375,83.85,1.857893,34.57,2257713.0
1677485885.609375,81.94,1.861736,34.57,2256914.0
1677485885.625,81.09,1.860455,34.57,2255878.0
1677485885.640625,80.78,1.855331,34.57,2255385.0
1677485885.65625,80.1,1.846365,34.57,2254634.0
1677485885.671875,78.18,1.855331,34.57,2254439.0
1677485885.6875,74.54,1.860455,34.57,2254469.0
1677485885.703125,69.19,1.859174,34.57,2254749.0
1677485885.71875,62.59,1.857893,34.57,2253732.0
1677485885.734375,55.36,1.855331,34.57,2252368.0
1677485885.75,48.01,1.856612,34.57,2251940.0
1677485885.765625,40.69,1.856612,34.57,2256279.0
1677485885.78125,33.24,1.850208,34.57,2259478.0
1677485885.796875,25.29,1.846365,34.57,2258404.0
1677485885.8125,16.54,1.845085,34.57,2259153.0
1677485885.828125,6.92,1.847646,34.57,2255534.0
1677485885.84375,-3.3,1.846365,34.57,2249500.0
1677485885.859375,-13.59,1.85277,34.57,2244870.0
1677485885.875,-23.32,1.861736,34.57,2242518.0
1677485885.890625,-31.95,1.871983,34.57,2238093.0
1677485885.90625,-39.29,1.873264,34.57,2234391.0
1677485885.921875,-45.47,1.866859,34.55,2230065.0
1677485885.9375,-51.01,1.856612,34.55,2223806.0
1677485885.953125,-56.64,1.86814,34.55,2216083.0
1677485885.96875,-63.11,1.871983,34.55,2213448.0
1677485885.984375,-70.99,1.860455,34.55,2211458.0
1677485886.0,-80.37,1.857893,34.55,2206449.0
1677485886.015625,-90.69,1.863017,34.55,2201946.0
1677485886.03125,-100.65,1.861736,34.55,2199649.0
1677485886.046875,-108.38,1.851489,34.57,2198284.0
1677485886.0625,-111.82,1.857893,34.57,2208577.0
1677485886.078125,-109.25,1.873264,34.57,2224020.0
1677485886.09375,-99.88,1.878387,34.57,2235657.0
1677485886.109375,-84.09,1.86814,34.59,2243758.0
1677485886.125,-63.36,1.866859,34.59,2249094.0
1677485886.140625,-39.89,1.865578,34.59,2249035.0
1677485886.15625,-15.92,1.863017,34.59,2249411.0
1677485886.171875,6.8,1.861736,34.55,2252748.0
1677485886.1875,27.28,1.857893,34.55,2256443.0
1677485886.203125,45.19,1.857893,34.55,2255750.0
1677485886.21875,60.47,1.854051,34.55,2248673.0
1677485886.234375,73.07,1.864298,34.55,2238081.0
1677485886.25,82.71,1.866859,34.55,2227976.0
1677485886.265625,89.06,1.875825,34.55,2224115.0
1677485886.28125,92.0,1.883511,34.55,2223368.0
1677485886.296875,91.85,1.865578,34.57,2224972.0
1677485886.3125,89.43,1.873264,34.57,2229309.0
1677485886.328125,85.84,1.88223,34.57,2234542.0
1677485886.34375,82.12,1.888634,34.57,2237837.0
1677485886.359375,78.93,1.910409,34.57,2239178.0
1677485886.375,76.39,1.936026,34.57,2238936.0
1677485886.390625,74.23,1.95652,34.57,2239844.0
1677485886.40625,71.95,1.978295,34.57,2237630.0
1677485886.421875,69.17,2.002631,34.55,2237715.0
1677485886.4375,65.72,2.00135,34.55,2237089.0
1677485886.453125,61.71,1.996227,34.55,2237043.0
1677485886.46875,57.32,1.984699,34.55,2237497.0
1677485886.484375,52.7,2.00135,34.53,2238267.0
1677485886.5,47.78,2.00135,34.53,2238879.0
1677485886.515625,42.28,2.002631,34.53,2239472.0
1677485886.53125,35.83,1.994946,34.53,2240144.0
1677485886.546875,28.08,1.991104,34.55,2240923.0
1677485886.5625,18.92,1.989823,34.55,2241900.0
1677485886.578125,8.56,1.984699,34.55,2243031.0
1677485886.59375,-2.41,1.97061,34.55,2243772.0
1677485886.609375,-13.26,1.960363,34.55,2244018.0
1677485886.625,-23.23,1.952677,34.55,2244379.0
1677485886.640625,-31.88,1.948835,34.55,2244126.0
1677485886.65625,-39.19,1.943711,34.55,2243967.0
1677485886.671875,-45.61,1.91169,34.53,2243349.0
1677485886.6875,-51.91,1.915532,34.53,2242064.0
1677485886.703125,-58.86,1.919375,34.53,2242147.0
1677485886.71875,-67.05,1.919375,34.53,2243669.0
1677485886.734375,-76.58,1.91169,34.55,2248301.0
1677485886.75,-86.95,1.915532,34.55,2253676.0
1677485886.765625,-97.02,1.916813,34.55,2260204.0
1677485886.78125,-105.14,1.910409,34.55,2262910.0
1677485886.796875,-109.44,1.912971,34.53,2251219.0
1677485886.8125,-108.36,1.912971,34.53,2242498.0
1677485886.828125,-101.06,1.918094,34.53,2239432.0
1677485886.84375,-87.77,1.918094,34.53,2243102.0
1677485886.859375,-69.78,1.909128,34.53,2246158.0
1677485886.875,-49.01,1.910409,34.53,2248352.0
1677485886.890625,-27.45,1.910409,34.53,2249893.0
1677485886.90625,-6.61,1.906566,34.53,2251518.0
1677485886.921875,12.69,1.8976,34.53,2251407.0
1677485886.9375,30.18,1.896319,34.53,2248716.0
1677485886.953125,45.79,1.902724,34.53,2247114.0
1677485886.96875,59.3,1.904004,34.53,2245614.0
1677485886.984375,70.27,1.902724,34.53,2242281.0
1677485887.0,78.16,1.896319,34.53,2240833.0
1677485887.015625,82.68,1.901443,34.53,2241673.0
1677485887.03125,84.03,1.904004,34.53,2243623.0
1677485887.046875,82.99,1.901443,34.55,2244452.0
1677485887.0625,80.71,1.902724,34.55,2244710.0
1677485887.078125,78.45,1.886072,34.55,2245444.0
1677485887.09375,77.17,1.905285,34.55,2245895.0
1677485887.109375,77.29,1.905285,34.55,2247099.0
1677485887.125,78.6,1.905285,34.55,2248186.0
1677485887.140625,80.47,1.91169,34.55,2248896.0
1677485887.15625,82.08,1.916813,34.55,2250063.0
1677485887.171875,82.81,1.910409,34.5,2249983.0
1677485887.1875,82.37,1.918094,34.5,2248985.0
1677485887.203125,80.87,1.937307,34.5,2247666.0
1677485887.21875,78.61,1.943711,34.5,2247126.0
1677485887.234375,75.76,1.948835,34.53,2246674.0
1677485887.25,72.27,1.951397,34.53,2245881.0
1677485887.265625,67.83,1.968048,34.53,2245715.0
1677485887.28125,62.02,1.980857,34.53,2245157.0
1677485887.296875,54.59,1.98598,34.53,2245558.0
1677485887.3125,45.58,2.007755,34.53,2246147.0
1677485887.328125,35.38,2.012878,34.53,2246879.0
1677485887.34375,24.59,2.019283,34.53,2247123.0
1677485887.359375,13.8,2.019283,34.53,2247217.0
1677485887.375,3.48,2.011597,34.53,2247909.0
1677485887.390625,-6.11,2.01544,34.53,2247476.0
1677485887.40625,-14.88,2.011597,34.53,2247245.0
1677485887.421875,-22.92,2.003912,34.55,2250138.0
1677485887.4375,-30.55,1.996227,34.55,2248787.0
1677485887.453125,-38.33,1.988542,34.55,2251927.0
1677485887.46875,-46.96,1.991104,34.55,2252987.0
1677485887.484375,-56.95,1.984699,34.53,2252100.0
1677485887.5,-68.23,1.974452,34.53,2253326.0
1677485887.515625,-79.81,1.97189,34.53,2253154.0
1677485887.53125,-89.88,1.977014,34.53,2254914.0
1677485887.546875,-96.32,1.97189,34.5,2255623.0
1677485887.5625,-97.51,1.964205,34.5,2255825.0
1677485887.578125,-93.0,1.961644,34.5,2255563.0
1677485887.59375,-83.7,1.964205,34.5,2253155.0
1677485887.609375,-71.49,1.965486,34.53,2247510.0
1677485887.625,-58.42,1.961644,34.53,2247884.0
1677485887.640625,-45.98,1.938588,34.53,2254425.0
1677485887.65625,-34.74,1.952677,34.53,2259074.0
1677485887.671875,-24.62,1.959082,34.53,2261159.0
1677485887.6875,-15.42,1.953958,34.53,2263096.0
1677485887.703125,-7.33,1.950116,34.53,2264144.0
1677485887.71875,-0.87,1.952677,34.53,2262963.0
1677485887.734375,3.38,1.959082,34.53,2258093.0
1677485887.75,5.27,1.951397,34.53,2251271.0
1677485887.765625,5.32,1.8976,34.53,2246119.0
1677485887.78125,4.5,1.938588,34.53,2241679.0
1677485887.796875,3.8,1.944992,34.5,2238882.0
1677485887.8125,3.74,1.939869,34.5,2236388.0
1677485887.828125,4.3,1.939869,34.5,2233913.0
1677485887.84375,5.05,1.938588,34.5,2231907.0
1677485887.859375,5.57,1.947554,34.53,2229897.0
1677485887.875,5.71,1.94115,34.53,2229254.0
1677485887.890625,5.6,1.938588,34.53,2228545.0
1677485887.90625,5.42,1.948835,34.53,2227502.0
1677485887.921875,5.11,1.950116,34.5,2226868.0
1677485887.9375,4.31,1.947554,34.5,2226100.0
1677485887.953125,2.41,1.944992,34.5,2225574.0
1677485887.96875,-1.03,1.95652,34.5,2224856.0
1677485887.984375,-6.16,1.961644,34.5,2223732.0
1677485888.0,-12.63,1.973171,34.5,2222035.0
1677485888.015625,-19.75,1.97061,34.5,2217950.0
1677485888.03125,-26.75,1.973171,34.5,2214415.0
1677485888.046875,-33.02,1.982137,34.5,2211318.0
1677485888.0625,-38.31,1.987261,34.5,2209205.0
1677485888.078125,-42.74,1.988542,34.5,2207562.0
1677485888.09375,-46.79,1.987261,34.5,2207623.0
1677485888.109375,-51.14,1.989823,34.5,2207288.0
1677485888.125,-56.46,1.978295,34.5,2207085.0
1677485888.140625,-63.27,1.97189,34.5,2208145.0
1677485888.15625,-71.61,1.984699,34.5,2209077.0
1677485888.171875,-80.89,1.98598,34.5,2210901.0
1677485888.1875,-89.8,1.961644,34.5,2212652.0
1677485888.203125,-96.5,1.964205,34.5,2215828.0
1677485888.21875,-99.04,1.960363,34.5,2218731.0
1677485888.234375,-95.89,1.955239,34.53,2221415.0
1677485888.25,-86.45,1.946273,34.53,2221771.0
1677485888.265625,-71.34,1.957801,34.53,2221454.0
1677485888.28125,-52.23,1.95652,34.53,2220798.0
1677485888.296875,-31.35,1.959082,34.5,2219531.0
1677485888.3125,-10.88,1.965486,34.5,2219227.0
1677485888.328125,7.65,1.968048,34.5,2219227.0
1677485888.34375,23.51,1.964205,34.5,2218882.0
1677485888.359375,36.69,1.962924,34.5,2217903.0
1677485888.375,47.54,1.97061,34.5,2215648.0
1677485888.390625,56.34,1.968048,34.5,2212208.0
1677485888.40625,63.16,1.964205,34.5,2208128.0
1677485888.421875,67.85,1.960363,34.5,2205039.0
1677485888.4375,70.26,1.961644,34.5,2203044.0
1677485888.453125,70.5,1.962924,34.5,2201587.0
1677485888.46875,68.97,1.953958,34.5,2200254.0
1677485888.484375,66.32,1.929622,34.5,2199517.0
1677485888.5,63.17,1.946273,34.5,2198764.0
1677485888.515625,59.98,1.948835,34.5,2197210.0
1677485888.53125,56.84,1.950116,34.5,2193178.0
1677485888.546875,53.67,1.948835,34.5,2187691.0
1677485888.5625,50.36,1.943711,34.5,2182595.0
1677485888.578125,46.9,1.950116,34.5,2178415.0
1677485888.59375,43.41,1.944992,34.5,2174958.0
1677485888.609375,40.03,1.944992,34.53,2172139.0
1677485888.625,36.71,1.94243,34.53,2169998.0
1677485888.640625,33.14,1.964205,34.53,2168223.0
1677485888.65625,28.82,1.912971,34.53,2167144.0
1677485888.671875,23.26,1.946273,34.49,2167340.0
1677485888.6875,16.28,1.944992,34.49,2167698.0
1677485888.703125,8.13,1.947554,34.49,2169334.0
1677485888.71875,-0.57,1.953958,34.49,2170591.0
1677485888.734375,-9.01,1.960363,34.5,2171933.0
1677485888.75,-16.55,1.962924,34.5,2172711.0
1677485888.765625,-22.96,1.97061,34.5,2172691.0
1677485888.78125,-28.49,1.94243,34.5,2171901.0
1677485888.796875,-33.74,1.959082,34.49,2169472.0
1677485888.8125,-39.54,1.962924,34.49,2165879.0
1677485888.828125,-46.54,1.969329,34.49,2162637.0
1677485888.84375,-55.08,1.97189,34.49,2160457.0
1677485888.859375,-64.86,1.97061,34.53,2158843.0
1677485888.875,-74.84,1.968048,34.53,2158137.0
1677485888.890625,-83.33,1.94243,34.53,2157559.0
1677485888.90625,-88.37,1.95652,34.53,2157209.0
1677485888.921875,-88.31,1.946273,34.5,2156384.0
1677485888.9375,-82.33,1.944992,34.5,2155646.0
1677485888.953125,-70.78,1.943711,34.5,2155327.0
1677485888.96875,-55.03,1.955239,34.5,2156362.0
1677485888.984375,-36.96,1.965486,34.49,2156959.0
1677485889.0,-18.35,1.969329,34.49,2157857.0
1677485889.015625,-0.43,1.959082,34.49,2158570.0
1677485889.03125,16.23,1.965486,34.49,2158653.0
1677485889.046875,31.44,1.969329,34.49,2155720.0
1677485889.0625,45.04,1.966767,34.49,2151678.0
1677485889.078125,56.7,1.961644,34.49,2148231.0
1677485889.09375,65.89,1.960363,34.49,2144624.0
1677485889.109375,72.16,1.959082,34.49,2141464.0
1677485889.125,75.31,1.961644,34.49,2139130.0
1677485889.140625,75.62,1.962924,34.49,2137218.0
1677485889.15625,73.77,1.957801,34.49,2134708.0
1677485889.171875,70.62,1.957801,34.47,2132901.0
1677485889.1875,66.99,1.960363,34.47,2131929.0
1677485889.203125,63.47,1.959082,34.47,2131397.0
1677485889.21875,60.3,1.95652,34.47,2131264.0
1677485889.234375,57.39,1.961644,34.49,2130505.0
1677485889.25,54.52,1.957801,34.49,2129849.0
1677485889.265625,51.48,1.95652,34.49,2128804.0
1677485889.28125,48.24,1.953958,34.49,2126016.0
1677485889.296875,44.91,1.95652,34.49,2119822.0
1677485889.3125,41.67,1.966767,34.49,2112348.0
1677485889.328125,38.52,1.983418,34.49,2105371.0
1677485889.34375,35.24,1.996227,34.49,2099949.0
1677485889.359375,31.41,2.002631,34.5,2095505.0
1677485889.375,26.58,1.966767,34.5,2091676.0
1677485889.390625,20.53,1.988542,34.5,2088761.0
1677485889.40625,13.41,1.988542,34.5,2086807.0
1677485889.421875,5.72,1.980857,34.47,2085005.0
1677485889.4375,-1.89,1.975733,34.47,2083741.0
1677485889.453125,-8.91,1.974452,34.47,2083222.0
1677485889.46875,-15.17,1.97061,34.47,2083655.0
1677485889.484375,-20.83,1.968048,34.49,2084168.0
1677485889.5,-26.29,1.94243,34.49,2085677.0
1677485889.515625,-32.07,1.957801,34.49,2086068.0
1677485889.53125,-38.6,1.964205,34.49,2086854.0
1677485889.546875,-46.24,1.962924,34.49,2085860.0
1677485889.5625,-55.04,1.959082,34.49,2081831.0
1677485889.578125,-64.66,1.962924,34.49,2075793.0
1677485889.59375,-74.12,1.964205,34.49,2069498.0
1677485889.609375,-81.94,1.952677,34.49,2063847.0
1677485889.625,-86.35,1.934745,34.49,2060280.0
1677485889.640625,-85.81,1.943711,34.49,2057421.0
1677485889.65625,-79.58,1.944992,34.49,2055499.0
1677485889.671875,-68.0,1.947554,34.49,2054074.0
1677485889.6875,-52.38,1.955239,34.49,2053260.0
1677485889.703125,-34.51,1.957801,34.49,2052163.0
1677485889.71875,-16.12,1.975733,34.49,2052397.0
1677485889.734375,1.54,1.998789,34.49,2052725.0
1677485889.75,17.78,2.011597,34.49,2053899.0
1677485889.765625,32.3,2.023125,34.49,2055440.0
1677485889.78125,44.83,2.019283,34.49,2056649.0
1677485889.796875,55.01,2.026968,34.49,2058719.0
1677485889.8125,62.4,2.020563,34.49,2060620.0
1677485889.828125,66.68,2.010317,34.49,2060765.0
1677485889.84375,67.89,2.003912,34.49,2058117.0
1677485889.859375,66.52,1.996227,34.47,2049283.0
1677485889.875,63.38,1.993665,34.47,2054449.0
1677485889.890625,59.39,1.988542,34.47,2046290.0
1677485889.90625,55.3,1.978295,34.47,2043844.0
1677485889.921875,51.53,1.975733,34.49,2042656.0
1677485889.9375,48.16,1.977014,34.49,2042336.0
1677485889.953125,45.03,1.982137,34.49,2041903.0
1677485889.96875,42.02,1.974452,34.49,2041485.0
1677485889.984375,39.09,1.966767,34.49,2040581.0
1677485890.0,36.38,1.966767,34.49,2040358.0
1677485890.015625,34.0,1.97189,34.49,2041510.0
1677485890.03125,31.86,1.97061,34.49,2039623.0
1677485890.046875,29.61,1.968048,34.47,2033352.0
1677485890.0625,26.68,1.977014,34.47,2023748.0
1677485890.078125,22.54,1.969329,34.47,2014284.0
1677485890.09375,16.97,1.98598,34.47,2006145.0
1677485890.109375,10.21,1.991104,34.49,2003535.0
1677485890.125,2.89,1.996227,34.49,1999422.0
1677485890.140625,-4.2,1.996227,34.49,1995794.0
1677485890.15625,-10.44,1.997508,34.49,1992642.0
1677485890.171875,-15.64,1.992384,34.49,1988928.0
1677485890.1875,-20.05,1.982137,34.49,1986621.0
1677485890.203125,-24.3,1.984699,34.49,1987435.0
1677485890.21875,-29.12,1.980857,34.49,1986540.0
1677485890.234375,-35.2,1.98598,34.49,1985665.0
1677485890.25,-42.93,1.98598,34.49,1984319.0
1677485890.265625,-52.27,1.984699,34.49,1983901.0
1677485890.28125,-62.58,1.982137,34.49,1983375.0
1677485890.296875,-72.54,1.987261,34.49,1984171.0
1677485890.3125,-80.25,1.973171,34.49,1991796.0
1677485890.328125,-83.75,1.975733,34.49,2002692.0
1677485890.34375,-81.56,1.969329,34.49,2011151.0
1677485890.359375,-73.22,1.97189,34.47,2012497.0
1677485890.375,-59.54,1.969329,34.47,2008788.0
1677485890.390625,-42.34,1.969329,34.47,2011680.0
1677485890.40625,-23.83,1.965486,34.47,2020451.0
1677485890.421875,-5.93,1.968048,34.47,2027747.0
1677485890.4375,10.12,1.964205,34.47,2030155.0
1677485890.453125,23.84,1.961644,34.47,2033982.0
1677485890.46875,35.2,1.962924,34.47,2038110.0
1677485890.484375,44.24,1.959082,34.47,2037174.0
1677485890.5,50.9,1.962924,34.47,2031745.0
1677485890.515625,54.98,1.965486,34.47,2033985.0
1677485890.53125,56.35,1.964205,34.47,2045298.0
1677485890.546875,55.21,1.960363,34.49,2054450.0
1677485890.5625,52.09,1.959082,34.49,2061028.0
1677485890.578125,47.79,1.960363,34.49,2066670.0
1677485890.59375,43.12,1.973171,34.49,2071536.0
1677485890.609375,38.65,1.961644,34.49,2075554.0
1677485890.625,34.63,1.962924,34.49,2077252.0
1677485890.640625,30.96,1.97061,34.49,2077250.0
1677485890.65625,27.42,1.953958,34.49,2075383.0
1677485890.671875,23.84,1.964205,34.49,2073885.0
1677485890.6875,20.19,1.961644,34.49,2071889.0
1677485890.703125,16.59,1.959082,34.49,2069260.0
1677485890.71875,13.12,1.966767,34.49,2064466.0
1677485890.734375,9.67,1.989823,34.47,2059746.0
1677485890.75,5.84,2.019283,34.47,2057488.0
1677485890.765625,1.09,2.0449,34.47,2056331.0
1677485890.78125,-4.98,2.070517,34.47,2055654.0
1677485890.796875,-12.44,2.080764,34.47,2053385.0
1677485890.8125,-20.87,2.091011,34.47,2050144.0
1677485890.828125,-29.45,2.092292,34.47,2046780.0
1677485890.84375,-37.32,2.085888,34.47,2043971.0
1677485890.859375,-43.87,2.073079,34.49,2042904.0
1677485890.875,-49.07,2.069237,34.49,2042656.0
1677485890.890625,-53.38,2.062832,34.49,2041630.0
1677485890.90625,-57.7,2.048743,34.49,2040049.0
1677485890.921875,-62.96,2.037215,34.47,2038389.0
1677485890.9375,-69.8,2.035934,34.47,2037822.0
1677485890.953125,-78.33,2.035934,34.47,2039033.0
1677485890.96875,-87.99,2.035934,34.47,2040231.0
1677485890.984375,-97.56,2.02953,34.47,2043286.0
1677485891.0,-105.4,2.028249,34.47,2046579.0
1677485891.015625,-109.72,2.011597,34.47,2050410.0
1677485891.03125,-109.07,2.025687,34.47,2055763.0
1677485891.046875,-102.76,2.019283,34.47,2061884.0
1677485891.0625,-91.04,2.014159,34.47,2067592.0
1677485891.078125,-75.08,2.012878,34.47,2072321.0
1677485891.09375,-56.55,2.01544,34.47,2076988.0
1677485891.109375,-37.13,2.01544,34.47,2081421.0
1677485891.125,-18.07,1.998789,34.47,2087353.0
1677485891.140625,-0.05,1.984699,34.47,2090935.0
1677485891.15625,16.57,1.997508,34.47,2090974.0
1677485891.171875,31.57,2.003912,34.47,2089877.0
1677485891.1875,44.57,2.006474,34.47,2091198.0
1677485891.203125,55.1,2.00135,34.47,2092587.0
1677485891.21875,62.82,2.00007,34.47,2095206.0
1677485891.234375,67.7,2.003912,34.47,2097881.0
1677485891.25,70.16,2.00135,34.47,2098181.0
1677485891.265625,70.89,1.996227,34.47,2095206.0
1677485891.28125,70.58,1.994946,34.47,2094000.0
1677485891.296875,69.74,1.997508,34.47,2095340.0
1677485891.3125,68.52,1.997508,34.47,2095923.0
1677485891.328125,66.92,1.998789,34.47,2096148.0
1677485891.34375,64.88,1.993665,34.47,2093960.0
1677485891.359375,62.45,1.992384,34.47,2093187.0
1677485891.375,59.83,1.987261,34.47,2094443.0
1677485891.390625,57.27,1.988542,34.47,2094119.0
1677485891.40625,54.95,1.996227,34.47,2093106.0
1677485891.421875,52.87,1.993665,34.47,2092745.0
1677485891.4375,50.94,1.989823,34.47,2093701.0
1677485891.453125,48.95,1.994946,34.47,2096821.0
1677485891.46875,46.74,1.991104,34.47,2099064.0
1677485891.484375,44.26,1.992384,34.45,2101738.0
1677485891.5,41.62,1.988542,34.45,2102472.0
1677485891.515625,39.13,1.984699,34.45,2102830.0
1677485891.53125,37.16,1.993665,34.45,2103370.0
1677485891.546875,35.94,1.993665,34.47,2104833.0
1677485891.5625,35.44,1.993665,34.47,2105293.0
1677485891.578125,35.23,1.984699,34.47,2105997.0
1677485891.59375,34.64,1.978295,34.47,2107596.0
1677485891.609375,32.92,1.984699,34.45,2109783.0
1677485891.625,29.53,1.983418,34.45,2111799.0
1677485891.640625,24.25,1.982137,34.45,2113404.0
1677485891.65625,17.25,1.980857,34.45,2114971.0
1677485891.671875,9.06,1.98598,34.47,2115900.0
1677485891.6875,0.46,1.984699,34.47,2116612.0
1677485891.703125,-7.47,1.983418,34.47,2117675.0
1677485891.71875,-13.36,1.978295,34.47,2119819.0
1677485891.734375,-15.81,1.961644,34.45,2122248.0
1677485891.75,-13.69,1.979576,34.45,2124731.0
1677485891.765625,-6.64,1.993665,34.45,2125986.0
1677485891.78125,4.66,2.007755,34.45,2127416.0
1677485891.796875,18.57,2.018002,34.47,2128722.0
1677485891.8125,32.9,2.032091,34.47,2129783.0
1677485891.828125,45.62,2.041057,34.47,2131856.0
1677485891.84375,55.24,2.026968,34.47,2133635.0
1677485891.859375,60.95,2.0449,34.45,2135417.0
1677485891.875,62.48,2.043619,34.45,2135224.0
1677485891.890625,59.77,2.035934,34.45,2134862.0
1677485891.90625,52.9,2.041057,34.45,2135391.0
1677485891.921875,42.21,2.035934,34.45,2136309.0
1677485891.9375,28.56,2.025687,34.45,2137603.0
1677485891.953125,13.36,2.003912,34.45,2138981.0
1677485891.96875,-1.66,1.998789,34.45,2140668.0
1677485891.984375,-14.89,2.005193,34.47,2142168.0
1677485892.0,-25.35,2.024406,34.47,2139085.0
1677485892.015625,-32.92,2.042338,34.47,2136224.0
1677485892.03125,-38.19,2.070517,34.47,2136086.0
1677485892.046875,-42.08,2.08973,34.47,2138788.0
1677485892.0625,-45.31,2.102539,34.47,2138049.0
1677485892.078125,-48.25,2.107662,34.47,2128582.0
1677485892.09375,-50.83,2.075641,34.47,2113642.0
1677485892.109375,-52.87,2.07436,34.47,2102606.0
1677485892.125,-54.33,2.079484,34.47,2095939.0
1677485892.140625,-55.44,2.07436,34.47,2093589.0
1677485892.15625,-56.73,2.06027,34.47,2091844.0
1677485892.171875,-58.72,2.043619,34.45,2093304.0
1677485892.1875,-61.74,2.042338,34.45,2093640.0
1677485892.203125,-65.7,2.01544,34.45,2093777.0
1677485892.21875,-70.08,2.021844,34.45,2098565.0
1677485892.234375,-74.16,2.024406,34.45,2099654.0
1677485892.25,-77.29,2.019283,34.45,2100834.0
1677485892.265625,-79.24,2.018002,34.45,2103402.0
1677485892.28125,-80.26,2.018002,34.45,2104763.0
1677485892.296875,-81.01,2.016721,34.47,2107310.0
1677485892.3125,-82.34,2.011597,34.47,2110453.0
1677485892.328125,-84.95,2.006474,34.47,2110792.0
1677485892.34375,-89.17,2.010317,34.47,2109819.0
1677485892.359375,-94.92,2.011597,34.45,2110978.0
1677485892.375,-101.6,2.010317,34.45,2112741.0
1677485892.390625,-108.2,2.007755,34.45,2114676.0
1677485892.40625,-113.36,2.007755,34.45,2118423.0
1677485892.421875,-115.55,2.011597,34.45,2123335.0
1677485892.4375,-113.34,2.012878,34.45,2127566.0
1677485892.453125,-105.76,2.007755,34.45,2131041.0
1677485892.46875,-92.72,2.005193,34.45,2132795.0
1677485892.484375,-75.09,2.002631,34.45,2134473.0
1677485892.5,-54.47,2.005193,34.45,2137732.0
1677485892.515625,-32.84,2.002631,34.45,2141306.0
1677485892.53125,-12.01,1.996227,34.45,2144100.0
1677485892.546875,6.76,1.998789,34.45,2147211.0
1677485892.5625,22.76,2.00007,34.45,2149176.0
1677485892.578125,35.69,2.00007,34.45,2148259.0
1677485892.59375,45.42,2.00007,34.45,2146640.0
1677485892.609375,51.9,1.998789,34.45,2146584.0
1677485892.625,55.2,1.996227,34.45,2148551.0
1677485892.640625,55.67,1.997508,34.45,2149351.0
1677485892.65625,53.96,1.998789,34.45,2151537.0
1677485892.671875,50.94,1.997508,34.45,2153004.0
1677485892.6875,47.51,1.998789,34.45,2154938.0
1677485892.703125,44.22,2.003912,34.45,2157485.0
1677485892.71875,41.31,2.006474,34.45,2158506.0
1677485892.734375,38.68,2.009036,34.43,2159917.0
1677485892.75,36.12,2.021844,34.43,2160759.0
1677485892.765625,33.48,2.037215,34.43,2162868.0
1677485892.78125,30.77,2.053866,34.43,2163826.0
1677485892.796875,27.99,2.069237,34.45,2164107.0
1677485892.8125,25.09,2.07436,34.45,2163642.0
1677485892.828125,21.82,2.071798,34.45,2160941.0
1677485892.84375,17.77,2.073079,34.45,2152739.0
1677485892.859375,12.53,2.067955,34.43,2143848.0
1677485892.875,5.87,2.064113,34.43,2141340.0
1677485892.890625,-2.14,2.053866,34.43,2137562.0
1677485892.90625,-11.11,2.043619,34.43,2134510.0
1677485892.921875,-20.43,2.046181,34.45,2134895.0
1677485892.9375,-29.54,2.042338,34.45,2135885.0
1677485892.953125,-38.05,2.034653,34.45,2134914.0
1677485892.96875,-46.0,2.02953,34.45,2133023.0
1677485892.984375,-53.87,2.02953,34.45,2133292.0
1677485893.0,-62.47,2.028249,34.45,2134225.0
1677485893.015625,-72.72,2.028249,34.45,2135941.0
1677485893.03125,-85.23,2.020563,34.45,2133401.0
1677485893.046875,-99.93,2.011597,34.43,2137676.0
1677485893.0625,-115.79,1.992384,34.43,2136946.0
1677485893.078125,-130.88,2.011597,34.43,2139313.0
1677485893.09375,-142.71,2.012878,34.43,2140809.0
1677485893.109375,-148.89,2.014159,34.43,2142726.0
1677485893.125,-147.8,2.01544,34.43,2144272.0
1677485893.140625,-139.04,2.018002,34.43,2144707.0
1677485893.15625,-123.53,2.01544,34.43,2145009.0
1677485893.171875,-103.18,2.018002,34.45,2145454.0
1677485893.1875,-80.3,2.021844,34.45,2146855.0
1677485893.203125,-56.97,2.024406,34.45,2147216.0
1677485893.21875,-34.61,2.028249,34.45,2148159.0
1677485893.234375,-13.92,2.020563,34.43,2149263.0
1677485893.25,4.93,2.011597,34.43,2150010.0
1677485893.265625,21.9,2.016721,34.43,2151055.0
1677485893.28125,36.76,2.016721,34.43,2152346.0
1677485893.296875,49.03,2.016721,34.43,2153245.0
1677485893.3125,58.19,2.012878,34.43,2153772.0
1677485893.328125,63.96,2.011597,34.43,2154355.0
1677485893.34375,66.6,2.011597,34.43,2155406.0
1677485893.359375,66.9,2.012878,34.43,2157269.0
1677485893.375,65.99,2.002631,34.43,2158691.0
1677485893.390625,64.88,2.002631,34.43,2159852.0
1677485893.40625,64.13,2.003912,34.43,2159437.0
1677485893.421875,63.68,2.009036,34.43,2158914.0
1677485893.4375,62.97,2.002631,34.43,2158134.0
1677485893.453125,61.34,2.005193,34.43,2157884.0
1677485893.46875,58.38,2.012878,34.43,2158866.0
1677485893.484375,54.22,2.018002,34.45,2159974.0
1677485893.5,49.4,1.998789,34.45,2161270.0
1677485893.515625,44.66,2.01544,34.45,2162683.0
1677485893.53125,40.5,2.021844,34.45,2163352.0
1677485893.546875,36.97,2.025687,34.43,2164008.0
1677485893.5625,33.62,2.032091,34.43,2165201.0
1677485893.578125,29.75,2.041057,34.43,2166035.0
1677485893.59375,24.8,2.041057,34.43,2164383.0
1677485893.609375,18.64,2.019283,34.43,2163622.0
1677485893.625,11.64,2.034653,34.43,2164938.0
1677485893.640625,4.48,2.035934,34.43,2167036.0
1677485893.65625,-2.18,2.026968,34.43,2168263.0
1677485893.671875,-7.97,2.024406,34.43,2168711.0
1677485893.6875,-12.98,2.033372,34.43,2168295.0
1677485893.703125,-17.66,2.032091,34.43,2166279.0
1677485893.71875,-22.7,2.032091,34.43,2163120.0
1677485893.734375,-28.83,2.026968,34.43,2159544.0
1677485893.75,-36.58,2.025687,34.43,2156226.0
1677485893.765625,-46.12,2.028249,34.43,2152535.0
1677485893.78125,-56.99,2.028249,34.43,2149588.0
1677485893.796875,-67.98,2.023125,34.43,2146216.0
1677485893.8125,-77.22,2.018002,34.43,2144052.0
1677485893.828125,-82.48,2.018002,34.43,2143846.0
1677485893.84375,-81.71,2.014159,34.43,2143683.0
1677485893.859375,-73.66,1.978295,34.43,2144024.0
1677485893.875,-58.29,1.992384,34.43,2143810.0
1677485893.890625,-36.76,1.997508,34.43,2142730.0
1677485893.90625,-11.19,2.002631,34.43,2142541.0
1677485893.921875,15.9,2.002631,34.45,2142197.0
1677485893.9375,42.24,2.00007,34.45,2143128.0
1677485893.953125,66.14,1.994946,34.45,2145990.0
1677485893.96875,86.69,2.002631,34.45,2151984.0
1677485893.984375,103.64,2.003912,34.45,2167545.0
1677485894.0,117.07,2.00007,34.45,2187425.0
1677485894.015625,127.18,1.998789,34.45,2202913.0
1677485894.03125,134.0,1.998789,34.45,2210718.0
1677485894.046875,137.47,2.002631,34.43,2198762.0
1677485894.0625,137.61,2.00007,34.43,2194264.0
1677485894.078125,134.67,1.992384,34.43,2199515.0
1677485894.09375,129.25,1.987261,34.43,2204993.0
1677485894.109375,122.16,1.993665,34.45,2209789.0
1677485894.125,114.22,1.998789,34.45,2211699.0
1677485894.140625,105.97,1.989823,34.45,2212642.0
1677485894.15625,97.59,1.98598,34.45,2217619.0
1677485894.171875,89.06,1.983418,34.43,2221469.0
1677485894.1875,80.31,1.98598,34.43,2224899.0
1677485894.203125,71.51,1.987261,34.43,2228161.0
1677485894.21875,63.1,1.979576,34.43,2231069.0
1677485894.234375,55.57,1.962924,34.45,2233629.0
1677485894.25,49.2,1.97061,34.45,2235749.0
1677485894.265625,43.83,1.979576,34.45,2237238.0
1677485894.28125,38.77,1.97189,34.45,2238992.0
1677485894.296875,33.03,1.974452,34.43,2240587.0
1677485894.3125,25.67,1.97189,34.43,2243070.0
1677485894.328125,16.2,1.973171,34.43,2245757.0
1677485894.34375,4.75,1.973171,34.43,2248322.0
1677485894.359375,-7.91,1.965486,34.41,2251725.0
1677485894.375,-20.65,1.968048,34.41,2255644.0
1677485894.390625,-32.47,1.974452,34.41,2259872.0
1677485894.40625,-42.74,1.97189,34.41,2263469.0
1677485894.421875,-51.55,1.966767,34.45,2266263.0
1677485894.4375,-59.56,1.962924,34.45,2267650.0
1677485894.453125,-67.75,1.966767,34.45,2269397.0
1677485894.46875,-77.08,1.965486,34.45,2270186.0
1677485894.484375,-88.15,1.952677,34.43,2271958.0
1677485894.5,-100.91,1.95652,34.43,2272489.0
1677485894.515625,-114.5,1.960363,34.43,2272359.0
1677485894.53125,-127.33,1.965486,34.43,2271253.0
1677485894.546875,-137.27,1.964205,34.43,2269080.0
1677485894.5625,-142.14,1.964205,34.43,2265788.0
1677485894.578125,-140.25,1.961644,34.43,2260826.0
1677485894.59375,-130.91,1.959082,34.43,2253618.0
1677485894.609375,-114.64,1.959082,34.43,2246200.0
1677485894.625,-93.0,1.97189,34.43,2237394.0
1677485894.640625,-68.13,1.962924,34.43,2226006.0
1677485894.65625,-42.12,1.961644,34.43,2216958.0
1677485894.671875,-16.67,1.957801,34.43,2210897.0
1677485894.6875,7.19,1.961644,34.43,2209708.0
1677485894.703125,28.88,1.960363,34.43,2207926.0
1677485894.71875,48.06,1.95652,34.43,2207494.0
1677485894.734375,64.36,1.938588,34.43,2207333.0
1677485894.75,77.41,1.955239,34.43,2206080.0
1677485894.765625,86.94,1.961644,34.43,2204670.0
1677485894.78125,92.85,1.966767,34.43,2204798.0
1677485894.796875,95.47,1.968048,34.43,2205586.0
1677485894.8125,95.45,1.973171,34.43,2205678.0
1677485894.828125,93.64,1.984699,34.43,2206735.0
1677485894.84375,90.91,1.988542,34.43,2208688.0
1677485894.859375,87.88,1.98598,34.43,2212785.0
1677485894.875,84.79,1.978295,34.43,2216706.0
1677485894.890625,81.62,1.98598,34.43,2219569.0
1677485894.90625,78.16,1.989823,34.43,2220056.0
1677485894.921875,74.3,2.007755,34.43,2219687.0
1677485894.9375,70.16,2.018002,34.43,2217321.0
1677485894.953125,66.03,2.033372,34.43,2214839.0
1677485894.96875,62.19,2.043619,34.43,2213576.0
1677485894.984375,58.72,2.047462,34.43,2213100.0
1677485895.0,55.32,2.0449,34.43,2211632.0
1677485895.015625,51.42,2.035934,34.43,2209313.0
1677485895.03125,46.33,2.026968,34.43,2206222.0
1677485895.046875,39.63,2.024406,34.43,2203446.0
1677485895.0625,31.33,2.023125,34.43,2201092.0
1677485895.078125,21.99,2.006474,34.43,2199907.0
1677485895.09375,12.43,2.005193,34.43,2198214.0
1677485895.109375,3.44,2.021844,34.41,2196885.0
1677485895.125,-4.54,1.97061,34.41,2195656.0
1677485895.140625,-11.59,1.932184,34.41,2194308.0
1677485895.15625,-18.21,1.938588,34.41,2193141.0
1677485895.171875,-25.09,1.910409,34.43,2192270.0
1677485895.1875,-32.91,1.848927,34.43,2191438.0
1677485895.203125,-42.15,1.77976,34.43,2191195.0
1677485895.21875,-52.93,1.814344,34.43,2190392.0
1677485895.234375,-65.0,1.79385,34.43,2189935.0
1677485895.25,-77.51,1.880949,34.43,2188333.0
1677485895.265625,-88.96,1.887353,34.43,2185515.0
1677485895.28125,-97.38,1.944992,34.43,2182113.0
1677485895.296875,-100.73,2.003912,34.43,2178876.0
1677485895.3125,-97.54,2.06027,34.43,2176007.0
1677485895.328125,-87.46,2.130718,34.43,2174360.0
1677485895.34375,-71.39,2.17811,34.43,2173338.0
1677485895.359375,-51.17,2.226783,34.43,2172008.0
1677485895.375,-29.01,2.257524,34.43,2170902.0
1677485895.390625,-6.75,2.29595,34.43,2169184.0
1677485895.40625,14.36,2.311321,34.43,2167316.0
1677485895.421875,33.68,2.317725,34.43,2165084.0
1677485895.4375,50.8,2.302355,34.43,2162773.0
1677485895.453125,65.31,2.298512,34.43,2160791.0
1677485895.46875,76.66,2.293388,34.43,2158834.0
1677485895.484375,84.4,2.22166,34.43,2156626.0
1677485895.5,88.44,2.184515,34.43,2154174.0
1677485895.515625,89.17,2.106382,34.43,2151208.0
1677485895.53125,87.44,2.197323,34.43,2147008.0
1677485895.546875,84.22,2.198604,34.41,2143507.0
1677485895.5625,80.35,2.196043,34.41,2140227.0
1677485895.578125,76.3,2.198604,34.41,2136606.0
1677485895.59375,72.19,2.175549,34.41,2133910.0
1677485895.609375,67.97,2.179391,34.43,2131178.0
1677485895.625,63.6,2.169144,34.43,2128569.0
1677485895.640625,59.17,2.180672,34.43,2126399.0
1677485895.65625,54.9,2.208851,34.43,2124691.0
1677485895.671875,50.94,2.156336,34.41,2122989.0
1677485895.6875,47.22,2.117909,34.41,2121508.0
1677485895.703125,43.41,2.098696,34.41,2120595.0
1677485895.71875,38.98,2.106382,34.41,2120169.0
1677485895.734375,33.44,2.123033,34.41,2119562.0
1677485895.75,26.54,2.120471,34.41,2119521.0
1677485895.765625,18.48,2.125595,34.41,2118811.0
1677485895.78125,9.81,2.149931,34.41,2116374.0
1677485895.796875,1.24,2.17811,34.45,2113511.0
1677485895.8125,-6.62,2.210132,34.45,2110177.0
1677485895.828125,-13.53,2.215255,34.45,2107442.0
1677485895.84375,-19.7,2.210132,34.45,2105304.0
1677485895.859375,-25.77,2.210132,34.45,2102956.0
1677485895.875,-32.57,2.196043,34.45,2101426.0
1677485895.890625,-40.85,2.185796,34.45,2100440.0
1677485895.90625,-50.96,2.172987,34.45,2099321.0
1677485895.921875,-62.52,2.153774,34.47,2098423.0
1677485895.9375,-74.34,2.108943,34.47,2097062.0
1677485895.953125,-84.55,2.003912,34.47,2096278.0
1677485895.96875,-90.94,2.107662,34.47,2094971.0
1677485895.984375,-91.64,2.101258,34.45,2093990.0
1677485896.0,-85.64,2.098696,34.45,2093136.0
1677485896.015625,-73.19,2.075641,34.45,2092221.0
1677485896.03125,-55.64,2.085888,34.45,2090539.0
1677485896.046875,-35.11,2.092292,34.47,2086984.0
1677485896.0625,-13.78,2.097416,34.47,2083467.0
1677485896.078125,6.62,2.135842,34.47,2080022.0
1677485896.09375,24.99,2.189638,34.47,2076865.0
1677485896.109375,40.86,2.249839,34.45,2074417.0
1677485896.125,54.05,2.301074,34.45,2072175.0
1677485896.140625,64.38,2.312602,34.45,2070165.0
1677485896.15625,71.62,2.311321,34.45,2068651.0
1677485896.171875,75.57,2.320287,34.45,2067580.0
1677485896.1875,76.3,2.311321,34.45,2066886.0
1677485896.203125,74.31,2.294669,34.45,2065751.0
1677485896.21875,70.51,2.269052,34.45,2065588.0
1677485896.234375,65.95,2.248558,34.47,2065042.0
1677485896.25,61.44,2.231907,34.47,2064516.0
1677485896.265625,57.38,2.219098,34.47,2063546.0
1677485896.28125,53.64,2.202447,34.47,2063289.0
1677485896.296875,49.88,2.185796,34.45,2061681.0
1677485896.3125,45.81,2.179391,34.45,2058513.0
1677485896.328125,41.46,,34.45,2054805.0
1677485896.34375,37.19,,34.45,2051451.0
1677485896.359375,33.41,,,2048214.0
1677485896.375,30.26,,,2045700.0
1677485896.390625,27.43,,,2043730.0
1677485896.40625,24.21,,,2042224.0
1677485896.421875,19.79,,,2041619.0
1677485896.4375,13.61,,,2040804.0
1677485896.453125,5.62,,,2040005.0
1677485896.46875,-3.69,,,2040131.0
1677485896.484375,-13.51,,,2040229.0
1677485896.5,-22.97,,,2040487.0
1677485896.515625,-31.48,,,2041118.0
1677485896.53125,-38.87,,,2041087.0
1677485896.546875,-45.42,,,2041144.0
1677485896.5625,-51.8,,,2039817.0
1677485896.578125,-58.82,,,2037195.0
1677485896.59375,-67.16,,,2034464.0
1677485896.609375,-76.97,,,2032413.0
1677485896.625,-87.65,,,2030131.0
1677485896.640625,-97.74,,,2029888.0
1677485896.65625,-105.2,,,2030753.0
1677485896.671875,-107.9,,,2031143.0
1677485896.6875,-104.28,,,2031525.0
1677485896.703125,-93.89,,,2032289.0
1677485896.71875,-77.56,,,2032134.0
1677485896.734375,-57.13,,,2032391.0
1677485896.75,-34.86,,,2032654.0
1677485896.765625,-12.76,,,2033395.0
1677485896.78125,7.77,,,2033770.0
1677485896.796875,26.04,,,2034490.0
1677485896.8125,41.74,,,2033831.0
1677485896.828125,54.73,,,2031719.0
1677485896.84375,64.79,,,2028997.0
1677485896.859375,71.72,,,2026353.0
1677485896.875,75.52,,,2023539.0
1677485896.890625,76.53,,,2021929.0
1677485896.90625,75.47,,,2021103.0
1677485896.921875,73.2,,,2020023.0
1677485896.9375,70.4,,,2019440.0
1677485896.953125,67.4,,,2019381.0
1677485896.96875,64.14,,,2019138.0
1677485896.984375,60.37,,,2018719.0
1677485897.0,55.92,,,2019192.0
1677485897.015625,50.92,,,2015324.0
1677485897.03125,45.74,,,2017201.0
1677485897.046875,40.89,,,2014157.0
1677485897.0625,36.62,,,2012088.0
1677485897.078125,32.82,,,2008015.0
1677485897.09375,29.0,,,1999188.0
1677485897.109375,24.5,,,1993206.0
1677485897.125,18.85,,,2003676.0
1677485897.140625,11.95,,,1996146.0
1677485897.15625,4.11,,,1991119.0
1677485897.171875,-4.08,,,1988774.0
1677485897.1875,-12.02,,,1983406.0
1677485897.203125,-19.33,,,1986055.0
1677485897.21875,-25.91,,,1979542.0
1677485897.234375,-31.95,,,1981350.0
1677485897.25,-37.85,,,1978915.0
1677485897.265625,-44.12,,,1978345.0
1677485897.28125,-51.34,,,1978955.0
1677485897.296875,-59.94,,,1978725.0
1677485897.3125,-69.97,,,1979665.0
1677485897.328125,-80.75,,,1980639.0
1677485897.34375,-90.83,,,1980351.0
1677485897.359375,-98.13,,,1978795.0
1677485897.375,-100.52,,,1976380.0
1677485897.390625,-96.57,,,1973094.0
1677485897.40625,-86.01,,,1970541.0
1677485897.421875,-69.95,,,1969309.0
1677485897.4375,-50.41,,,1968992.0
1677485897.453125,-29.69,,,1968688.0
1677485897.46875,-9.76,,,1968764.0
1677485897.484375,8.2,,,1969916.0
1677485897.5,23.63,,,1969921.0
1677485897.515625,36.44,,,1970514.0
1677485897.53125,46.63,,,1970880.0
1677485897.546875,54.16,,,1971761.0
1677485897.5625,58.99,,,1972791.0
1677485897.578125,61.19,,,1973232.0
1677485897.59375,61.05,,,1974224.0
1677485897.609375,59.13,,,1975093.0
1677485897.625,56.1,,,1975010.0
1677485897.640625,52.56,,,1974034.0
1677485897.65625,48.9,,,1972205.0
1677485897.671875,45.25,,,1970238.0
1677485897.6875,41.6,,,1967889.0
1677485897.703125,37.89,,,1966945.0
1677485897.71875,34.2,,,1966212.0
1677485897.734375,30.72,,,1965941.0
1677485897.75,27.58,,,1966243.0
1677485897.765625,24.69,,,1966766.0
1677485897.78125,21.66,,,1967443.0
1677485897.796875,17.92,,,1967509.0
1677485897.8125,12.98,,,1968305.0
1677485897.828125,6.68,,,1969972.0
1677485897.84375,-0.67,,,1971305.0
1677485897.859375,-8.4,,,1973807.0
1677485897.875,-15.81,,,1975565.0
1677485897.890625,-22.45,,,1976805.0
1677485897.90625,-28.3,,,1977158.0
1677485897.921875,-33.79,,,1975577.0
1677485897.9375,-39.57,,,1974142.0
1677485897.953125,-46.34,,,1972811.0
1677485897.96875,-54.51,,,1971738.0
1677485897.984375,-63.98,,,1970626.0
1677485898.0,-73.98,,,1970309.0
1677485898.015625,-83.06,,,1970778.0
1677485898.03125,-89.29,,,1970655.0
1677485898.046875,-90.8,,,1971488.0
1677485898.0625,-86.34,,,1972587.0
1677485898.078125,-75.69,,,1974392.0
1677485898.09375,-59.83,,,1976102.0
1677485898.109375,-40.62,,,1977684.0
1677485898.125,-20.17,,,1979755.0
1677485898.140625,-0.37,,,1981536.0
1677485898.15625,17.54,,,1983105.0
1677485898.171875,32.89,,,1984432.0
1677485898.1875,45.43,,,1986111.0
1677485898.203125,55.05,,,1986773.0
1677485898.21875,61.7,,,1986020.0
1677485898.234375,65.43,,,1985482.0
1677485898.25,66.53,,,1984702.0
1677485898.265625,65.53,,,1984473.0
1677485898.28125,63.06,,,1984707.0
1677485898.296875,59.7,,,1985100.0
1677485898.3125,55.86,,,1985864.0
1677485898.328125,51.74,,,1986337.0
1677485898.34375,47.43,,,1987369.0
1677485898.359375,43.02,,,1988262.0
1677485898.375,38.66,,,1989343.0
1677485898.390625,34.51,,,1990622.0
1677485898.40625,30.7,,,1991651.0
1677485898.421875,27.2,,,1992938.0
1677485898.4375,23.8,,,1994329.0
1677485898.453125,20.14,,,1995622.0
1677485898.46875,15.79,,,1997070.0
1677485898.484375,10.37,,,1997470.0
1677485898.5,3.7,,,1997032.0
1677485898.515625,-4.1,,,1996155.0
1677485898.53125,-12.61,,,1995564.0
1677485898.546875,-21.19,,,1994754.0
1677485898.5625,-29.19,,,1994367.0
1677485898.578125,-36.21,,,1994694.0
1677485898.59375,-42.27,,,1994931.0
1677485898.609375,-47.86,,,1993886.0
1677485898.625,-53.79,,,1992038.0
1677485898.640625,-60.91,,,1991702.0
1677485898.65625,-69.68,,,1990748.0
1677485898.671875,-79.89,,,1990215.0
1677485898.6875,-90.45,,,1991659.0
1677485898.703125,-99.51,,,1992523.0
1677485898.71875,-104.85,,,1993942.0
1677485898.734375,-104.56,,,1997843.0
1677485898.75,-97.64,,,2005158.0
1677485898.765625,-84.35,,,2012506.0
1677485898.78125,-66.16,,,2013703.0
1677485898.796875,-45.2,,,2020797.0
1677485898.8125,-23.72,,,2024048.0
1677485898.828125,-3.42,,,2022205.0
1677485898.84375,14.75,,,2020255.0
1677485898.859375,30.43,,,2020912.0
1677485898.875,43.64,,,2021243.0
1677485898.890625,54.39,,,2022368.0
1677485898.90625,62.63,,,2024155.0
1677485898.921875,68.25,,,2026857.0
1677485898.9375,71.21,,,2029114.0
1677485898.953125,71.75,,,2031090.0
1677485898.96875,70.31,,,2034104.0
1677485898.984375,67.48,,,2035907.0
1677485899.0,63.89,,,2038711.0
1677485899.015625,60.03,,,2041255.0
1677485899.03125,56.24,,,2043492.0
1677485899.046875,52.7,,,2044916.0
1677485899.0625,49.48,,,2045395.0
1677485899.078125,46.63,,,2045494.0
1677485899.09375,44.16,,,2045689.0
1677485899.109375,41.99,,,2046577.0
1677485899.125,39.92,,,2049113.0
1677485899.140625,37.68,,,2052220.0
1677485899.15625,34.95,,,2055108.0
1677485899.171875,31.55,,,2057291.0
1677485899.1875,27.45,,,2058889.0
1677485899.203125,22.81,,,2060886.0
1677485899.21875,17.92,,,2063314.0
1677485899.234375,13.09,,,2065476.0
1677485899.25,8.53,,,2068124.0
1677485899.265625,4.32,,,2070688.0
1677485899.28125,0.39,,,2073911.0
1677485899.296875,-3.43,,,2077817.0
1677485899.3125,-7.38,,,2080933.0
1677485899.328125,-11.65,,,2083712.0
1677485899.34375,-16.29,,,2085552.0
1677485899.359375,-21.16,,,2087289.0
1677485899.375,-25.79,,,2088702.0
1677485899.390625,-29.36,,,2090231.0
1677485899.40625,-30.73,,,2091016.0
1677485899.421875,-28.71,,,2092313.0
1677485899.4375,-22.27,,,2091053.0
1677485899.453125,-10.97,,,2088901.0
1677485899.46875,4.91,,,2087037.0
1677485899.484375,24.38,,,2089329.0
1677485899.5,46.03,,,2092304.0
1677485899.515625,68.31,,,2095626.0
1677485899.53125,89.69,,,2096532.0
1677485899.546875,108.54,,,2096967.0
1677485899.5625,123.01,,,2097072.0
1677485899.578125,131.02,,,2097295.0
1677485899.59375,130.6,,,2097959.0
1677485899.609375,120.55,,,2097456.0
1677485899.625,101.1,,,2095626.0
1677485899.640625,74.22,,,2094197.0
1677485899.65625,43.22,,,2091611.0
1677485899.671875,11.9,,,2090415.0
1677485899.6875,-16.47,,,2088886.0
1677485899.703125,-39.85,,,2089279.0
1677485899.71875,-57.59,,,2089464.0
1677485899.734375,-70.13,,,2090118.0
1677485899.75,-78.37,,,2091379.0
1677485899.765625,-83.29,,,2092648.0
1677485899.78125,-85.66,,,2093439.0
1677485899.796875,-86.11,,,2095577.0
1677485899.8125,-85.21,,,2097755.0
1677485899.828125,-83.47,,,2100248.0
1677485899.84375,-81.4,,,2102332.0
1677485899.859375,-79.39,,,2104902.0
1677485899.875,-77.72,,,2108006.0
1677485899.890625,-76.49,,,2108328.0
1677485899.90625,-75.71,,,2107860.0
1677485899.921875,-75.25,,,2107330.0
1677485899.9375,-74.99,,,2105666.0
1677485899.953125,-74.8,,,2103410.0
1677485899.96875,-74.62,,,2102305.0
1677485899.984375,-74.48,,,2101824.0
1677485900.0,-74.49,,,2101163.0
1677485900.015625,-74.79,,,2100533.0
1677485900.03125,-75.51,,,2100869.0
1677485900.046875,-76.8,,,2100527.0
1677485900.0625,-78.86,,,2101180.0
1677485900.078125,-81.91,,,2100983.0
1677485900.09375,-86.04,,,2101586.0
1677485900.109375,-90.93,,,2102511.0
1677485900.125,-95.62,,,2103463.0
1677485900.140625,-98.55,,,2104111.0
1677485900.15625,-97.86,,,2105095.0
1677485900.171875,-92.02,,,2104487.0
1677485900.1875,-80.4,,,2102635.0
1677485900.203125,-63.62,,,2099710.0
1677485900.21875,-43.35,,,2096115.0
1677485900.234375,-21.73,,,2092467.0
1677485900.25,-0.76,,,2089944.0
1677485900.265625,18.16,,,2089632.0
1677485900.28125,34.3,,,2092846.0
1677485900.296875,47.44,,,2100231.0
1677485900.3125,57.59,,,2109170.0
1677485900.328125,64.8,,,2117351.0
1677485900.34375,69.15,,,2128206.0
1677485900.359375,70.87,,,2142456.0
1677485900.375,70.42,,,2148787.0
1677485900.390625,68.44,,,2139724.0
1677485900.40625,65.66,,,2131824.0
1677485900.421875,62.69,,,2143461.0
1677485900.4375,59.88,,,2162211.0
1677485900.453125,57.34,,,2177291.0
1677485900.46875,54.98,,,2177294.0
1677485900.484375,52.67,,,2163386.0
1677485900.5,50.32,,,2154297.0
1677485900.515625,47.91,,,2158712.0
1677485900.53125,45.45,,,2166155.0
1677485900.546875,42.89,,,2172453.0
1677485900.5625,40.05,,,2177958.0
1677485900.578125,36.67,,,2180626.0
1677485900.59375,32.55,,,2182776.0
1677485900.609375,27.66,,,2184957.0
1677485900.625,22.26,,,2185175.0
1677485900.640625,16.86,,,2184049.0
1677485900.65625,11.98,,,2178179.0
1677485900.671875,8.0,,,2169258.0
1677485900.6875,4.96,,,2161299.0
1677485900.703125,2.54,,,2157327.0
1677485900.71875,0.1,,,2155660.0
1677485900.734375,-3.1,,,2155776.0
1677485900.75,-7.64,,,2155571.0
1677485900.765625,-13.64,,,2155992.0
1677485900.78125,-20.52,,,2154526.0
1677485900.796875,-26.98,,,2152124.0
1677485900.8125,-31.22,,,2148773.0
1677485900.828125,-31.46,,,2146630.0
1677485900.84375,-26.56,,,2143636.0
1677485900.859375,-16.51,,,2141665.0
1677485900.875,-2.53,,,2140162.0
1677485900.890625,13.34,,,2139302.0
1677485900.90625,28.84,,,2138538.0
1677485900.921875,42.26,,,2138205.0
1677485900.9375,52.78,,,2138861.0
1677485900.953125,60.45,,,2140763.0
1677485900.96875,65.79,,,2141786.0
1677485900.984375,69.29,,,2142847.0
1677485901.0,71.12,,,2144232.0
1677485901.015625,71.09,,,2145700.0
1677485901.03125,68.9,,,2146037.0
1677485901.046875,64.44,,,2146298.0
1677485901.0625,57.95,,,2147230.0
1677485901.078125,49.95,,,2147145.0
1677485901.09375,41.13,,,2144660.0
1677485901.109375,32.1,,,2140549.0
1677485901.125,23.4,,,2137215.0
1677485901.140625,15.43,,,2137973.0
1677485901.15625,8.51,,,2139924.0
1677485901.171875,2.82,,,2141656.0
1677485901.1875,-1.77,,,2141845.0
1677485901.203125,-5.73,,,2139153.0
1677485901.21875,-9.81,,,2136815.0
1677485901.234375,-14.78,,,2137652.0
1677485901.25,-21.11,,,2140028.0
1677485901.265625,-28.69,,,2142101.0
1677485901.28125,-36.92,,,2143768.0
1677485901.296875,-44.92,,,2145062.0
1677485901.3125,-51.94,,,2145277.0
1677485901.328125,-57.6,,,2145949.0
1677485901.34375,-61.96,,,2145754.0
1677485901.359375,-65.39,,,2144575.0
1677485901.375,-68.43,,,2142442.0
1677485901.390625,-71.61,,,2139828.0
1677485901.40625,-75.45,,,2138130.0
1677485901.421875,-80.36,,,2137132.0
1677485901.4375,-86.49,,,2136413.0
1677485901.453125,-93.56,,,2136178.0
1677485901.46875,-100.66,,,2135702.0
1677485901.484375,-106.37,,,2135421.0
1677485901.5,-109.09,,,2135348.0
1677485901.515625,-107.5,,,2135768.0
1677485901.53125,-101.01,,,2136629.0
1677485901.546875,-89.94,,,2136933.0
1677485901.5625,-75.37,,,2137467.0
1677485901.578125,-58.77,,,2138642.0
1677485901.59375,-41.57,,,2139555.0
1677485901.609375,-24.9,,,2140933.0
1677485901.625,-9.48,,,2141729.0
1677485901.640625,4.32,,,2140877.0
1677485901.65625,16.27,,,2139343.0
1677485901.671875,26.16,,,2137165.0
1677485901.6875,33.73,,,2135246.0
1677485901.703125,38.75,,,2133572.0
1677485901.71875,41.11,,,2133136.0
1677485901.734375,40.92,,,2132385.0
1677485901.75,38.65,,,2132138.0
1677485901.765625,35.04,,,2132309.0
1677485901.78125,30.98,,,2132721.0
1677485901.796875,27.24,,,2132731.0
1677485901.8125,24.31,,,2133975.0
1677485901.828125,22.39,,,2134353.0
1677485901.84375,21.36,,,2135318.0
1677485901.859375,21.02,,,2136127.0
1677485901.875,21.17,,,2136717.0
1677485901.890625,21.61,,,2137253.0
1677485901.90625,22.05,,,2137972.0
1677485901.921875,22.1,,,2138068.0
1677485901.9375,21.34,,,2135903.0
1677485901.953125,19.51,,,2133672.0
1677485901.96875,16.66,,,2132130.0
1677485901.984375,13.2,,,2130249.0
1677485902.0,9.76,,,2129175.0
1677485902.015625,6.84,,,2128634.0
1677485902.03125,4.57,,,2128570.0
1677485902.046875,2.52,,,2128021.0
1677485902.0625,-0.1,,,2127500.0
1677485902.078125,-4.15,,,2127356.0
1677485902.09375,-10.11,,,2127129.0
1677485902.109375,-17.7,,,2127537.0
1677485902.125,-25.79,,,2126875.0
1677485902.140625,-32.6,,,2127345.0
1677485902.15625,-36.13,,,2127271.0
1677485902.171875,-34.85,,,2127562.0
1677485902.1875,-28.16,,,2128157.0
1677485902.203125,-16.6,,,2126832.0
1677485902.21875,-1.66,,,2124894.0
1677485902.234375,14.69,,,2122888.0
1677485902.25,30.58,,,2120547.0
1677485902.265625,44.68,,,2119126.0
1677485902.28125,56.28,,,2118509.0
1677485902.296875,65.15,,,2118630.0
1677485902.3125,71.28,,,2118534.0
1677485902.328125,74.61,,,2118505.0
1677485902.34375,75.11,,,2119058.0
1677485902.359375,72.82,,,2120107.0
1677485902.375,67.98,,,2120203.0
1677485902.390625,61.15,,,2120900.0
1677485902.40625,53.08,,,2122319.0
1677485902.421875,44.59,,,2122783.0
1677485902.4375,36.32,,,2123992.0
1677485902.453125,28.72,,,2124753.0
1677485902.46875,21.99,,,2124791.0
1677485902.484375,16.22,,,2125496.0
1677485902.5,11.43,,,2122134.0
1677485902.515625,7.58,,,2119140.0
1677485902.53125,4.46,,,2115922.0
1677485902.546875,1.68,,,2113849.0
1677485902.5625,-1.35,,,2112062.0
1677485902.578125,-5.25,,,2110994.0
1677485902.59375,-10.44,,,2110186.0
1677485902.609375,-16.96,,,2109550.0
1677485902.625,-24.49,,,2109376.0
1677485902.640625,-32.42,,,2109016.0
1677485902.65625,-40.13,,,2109562.0
1677485902.671875,-47.2,,,2109618.0
1677485902.6875,-53.56,,,2109940.0
1677485902.703125,-59.52,,,2110863.0
1677485902.71875,-65.63,,,2111541.0
1677485902.734375,-72.57,,,2112104.0
1677485902.75,-80.75,,,2112837.0
1677485902.765625,-90.12,,,2112605.0
1677485902.78125,-99.87,,,2111187.0
1677485902.796875,-108.4,,,2108241.0
1677485902.8125,-113.63,,,2105349.0
1677485902.828125,-113.6,,,2102029.0
1677485902.84375,-107.12,,,2099278.0
1677485902.859375,-94.23,,,2098074.0
1677485902.875,-76.27,,,2097534.0
1677485902.890625,-55.41,,,2096445.0
1677485902.90625,-33.95,,,2096039.0
1677485902.921875,-13.73,,,2096172.0
1677485902.9375,4.21,,,2095907.0
1677485902.953125,19.54,,,2096320.0
1677485902.96875,32.27,,,2096972.0
1677485902.984375,42.42,,,2097547.0
1677485903.0,49.77,,,2098114.0
1677485903.015625,53.99,,,2099744.0
1677485903.03125,54.84,,,2100764.0
1677485903.046875,52.44,,,2101562.0
1677485903.0625,47.44,,,2102092.0
1677485903.078125,40.97,,,2100105.0
1677485903.09375,34.35,,,2097975.0
1677485903.109375,28.81,,,2095330.0
1677485903.125,25.06,,,2092667.0
1677485903.140625,23.21,,,2090990.0
1677485903.15625,22.74,,,2090315.0
1677485903.171875,22.77,,,2090136.0
1677485903.1875,22.45,,,2089502.0
1677485903.203125,21.22,,,2090309.0
1677485903.21875,18.87,,,2090195.0
1677485903.234375,15.53,,,2090469.0
1677485903.25,11.46,,,2091650.0
1677485903.265625,6.92,,,2092499.0
1677485903.28125,2.12,,,2093347.0
1677485903.296875,-2.78,,,2094032.0
1677485903.3125,-7.64,,,2094783.0
1677485903.328125,-12.45,,,2095312.0
1677485903.34375,-17.34,,,2096618.0
1677485903.359375,-22.67,,,2095102.0
1677485903.375,-28.92,,,2092900.0
1677485903.390625,-36.45,,,2092242.0
1677485903.40625,-45.19,,,2088725.0
1677485903.421875,-54.35,,,2082756.0
1677485903.4375,-62.49,,,2076097.0
1677485903.453125,-67.82,,,2071112.0
1677485903.46875,-68.77,,,2072704.0
1677485903.484375,-64.54,,,2084402.0
1677485903.5,-55.4,,,2100911.0
1677485903.515625,-42.58,,,2110811.0
1677485903.53125,-27.78,,,2117910.0
1677485903.546875,-12.64,,,2124847.0
1677485903.5625,1.77,,,2111478.0
1677485903.578125,15.02,,,2101563.0
1677485903.59375,27.15,,,2099177.0
1677485903.609375,38.2,,,2101385.0
1677485903.625,48.0,,,2107918.0
1677485903.640625,56.05,,,2112600.0
1677485903.65625,61.81,,,2112506.0
1677485903.671875,64.97,,,2111243.0
1677485903.6875,65.77,,,2108509.0
1677485903.703125,64.86,,,2107320.0
1677485903.71875,63.1,,,2107157.0
1677485903.734375,61.17,,,2107769.0
1677485903.75,59.37,,,2109062.0
1677485903.765625,57.61,,,2110210.0
1677485903.78125,55.65,,,2111499.0
1677485903.796875,53.32,,,2113680.0
1677485903.8125,50.69,,,2114894.0
1677485903.828125,47.94,,,2116829.0
1677485903.84375,45.2,,,2118271.0
1677485903.859375,42.35,,,2119722.0
1677485903.875,38.99,,,2122439.0
1677485903.890625,34.6,,,2124449.0
1677485903.90625,28.76,,,2126166.0
1677485903.921875,21.35,,,2128389.0
1677485903.9375,12.65,,,2130116.0
1677485903.953125,3.22,,,2130669.0
1677485903.96875,-6.31,,,2131314.0
1677485903.984375,-15.34,,,2130485.0
1677485904.0,-23.59,,,2129904.0
1677485904.015625,-31.08,,,2130880.0
1677485904.03125,-38.14,,,2131947.0
1677485904.046875,-45.33,,,2133545.0
1677485904.0625,-53.32,,,2135213.0
1677485904.078125,-62.62,,,2137340.0
1677485904.09375,-73.31,,,2139348.0
1677485904.109375,-84.79,,,2141316.0
1677485904.125,-95.64,,,2142784.0
1677485904.140625,-103.77,,,2143089.0
1677485904.15625,-107.02,,,2143642.0
1677485904.171875,-103.73,,,2145498.0
1677485904.1875,-93.47,,,2148383.0
1677485904.203125,-77.15,,,2151320.0
1677485904.21875,-56.75,,,2152777.0
1677485904.234375,-34.68,,,2141616.0
1677485904.25,-13.0,,,2131107.0
1677485904.265625,7.01,,,2126786.0
1677485904.28125,24.89,,,2127343.0
1677485904.296875,40.58,,,2130537.0
1677485904.3125,53.99,,,2129827.0
1677485904.328125,64.7,,,2126932.0
1677485904.34375,72.1,,,2125168.0
1677485904.359375,75.73,,,2124559.0
1677485904.375,75.73,,,2125232.0
1677485904.390625,72.88,,,2126183.0
1677485904.40625,68.46,,,2128730.0
1677485904.421875,63.66,,,2132527.0
1677485904.4375,59.27,,,2137084.0
1677485904.453125,55.38,,,2141175.0
1677485904.46875,51.58,,,2145533.0
1677485904.484375,47.32,,,2152556.0
1677485904.5,42.3,,,2160176.0
1677485904.515625,36.66,,,2163437.0
1677485904.53125,30.89,,,2165518.0
1677485904.546875,25.56,,,2168233.0
1677485904.5625,21.0,,,2169502.0
1677485904.578125,17.14,,,2170500.0
1677485904.59375,13.52,,,2170617.0
1677485904.609375,9.5,,,2171506.0
1677485904.625,4.53,,,2171812.0
1677485904.640625,-1.62,,,2173398.0
1677485904.65625,-8.75,,,2174984.0
1677485904.671875,-16.35,,,2177173.0
1677485904.6875,-23.83,,,2178770.0
1677485904.703125,-30.71,,,2180333.0
1677485904.71875,-36.87,,,2182271.0
1677485904.734375,-42.56,,,2183706.0
1677485904.75,-48.23,,,2185264.0
1677485904.765625,-54.44,,,2186919.0
1677485904.78125,-61.57,,,2187166.0
1677485904.796875,-69.79,,,2186878.0
1677485904.8125,-78.86,,,2186182.0
1677485904.828125,-88.07,,,2185501.0
1677485904.84375,-96.15,,,2185346.0
1677485904.859375,-101.39,,,2185334.0
1677485904.875,-102.0,,,2184917.0
1677485904.890625,-96.69,,,2185034.0
1677485904.90625,-85.08,,,2185386.0
1677485904.921875,-68.0,,,2186277.0
1677485904.9375,-47.24,,,2187446.0
1677485904.953125,-24.98,,,2186446.0
1677485904.96875,-3.16,,,2180491.0
1677485904.984375,16.91,,,2177451.0
1677485905.0,34.64,,,2179422.0
1677485905.015625,49.8,,,2192135.0
1677485905.03125,62.26,,,2214027.0
1677485905.046875,71.76,,,2228214.0
1677485905.0625,77.97,,,2236904.0
1677485905.078125,80.71,,,2246065.0
1677485905.09375,80.13,,,2243660.0
1677485905.109375,76.81,,,2241057.0
1677485905.125,71.59,,,2243767.0
1677485905.140625,65.35,,,2248243.0
1677485905.15625,58.81,,,2253597.0
1677485905.171875,52.42,,,2256508.0
1677485905.1875,46.35,,,2256262.0
1677485905.203125,40.66,,,2254359.0
1677485905.21875,35.38,,,2251964.0
1677485905.234375,30.58,,,2244630.0
1677485905.25,26.39,,,2235186.0
1677485905.265625,22.81,,,2227262.0
1677485905.28125,19.71,,,2221319.0
1677485905.296875,16.67,,,2218591.0
1677485905.3125,13.14,,,2214801.0
1677485905.328125,8.59,,,2216643.0
1677485905.34375,2.74,,,2211445.0
1677485905.359375,-4.3,,,2212898.0
1677485905.375,-11.98,,,2207645.0
1677485905.390625,-19.52,,,2209092.0
1677485905.40625,-26.21,,,2205639.0
1677485905.421875,-31.69,,,2204640.0
1677485905.4375,-36.14,,,2204062.0
1677485905.453125,-40.17,,,2202308.0
1677485905.46875,-44.65,,,2201544.0
1677485905.484375,-50.39,,,2200284.0
1677485905.5,-57.9,,,2199274.0
1677485905.515625,-67.2,,,2198096.0
1677485905.53125,-77.7,,,2197690.0
1677485905.546875,-88.06,,,2196973.0
1677485905.5625,-96.39,,,2196883.0
1677485905.578125,-100.6,,,2195119.0
1677485905.59375,-98.89,,,2192971.0
1677485905.609375,-90.41,,,2189754.0
1677485905.625,-75.54,,,2187466.0
1677485905.640625,-55.91,,,2185285.0
1677485905.65625,-33.79,,,2183484.0
1677485905.671875,-11.5,,,2182648.0
1677485905.6875,9.26,,,2183013.0
1677485905.703125,27.5,,,2182534.0
1677485905.71875,42.86,,,2183280.0
1677485905.734375,55.22,,,2184051.0
1677485905.75,64.41,,,2185737.0
1677485905.765625,70.23,,,2187445.0
1677485905.78125,72.65,,,2189591.0
1677485905.796875,72.05,,,2191967.0
1677485905.8125,69.19,,,2194205.0
1677485905.828125,65.1,,,2196920.0
1677485905.84375,60.66,,,2198097.0
1677485905.859375,56.39,,,2198315.0
1677485905.875,52.37,,,2196895.0
1677485905.890625,48.4,,,2194699.0
1677485905.90625,44.32,,,2192958.0
1677485905.921875,40.16,,,2191999.0
1677485905.9375,36.19,,,2191922.0
1677485905.953125,32.68,,,2194315.0
1677485905.96875,29.66,,,2195539.0
1677485905.984375,26.77,,,2197210.0
1677485906.0,23.35,,,2199841.0
1677485906.015625,18.74,,,2192983.0
1677485906.03125,12.53,,,2191694.0
1677485906.046875,4.81,,,2194668.0
1677485906.0625,-3.92,,,2203855.0
1677485906.078125,-12.9,,,2201844.0
1677485906.09375,-21.43,,,2204790.0
1677485906.109375,-29.06,,,2207395.0
1677485906.125,-35.74,,,2208089.0
1677485906.140625,-41.8,,,2207679.0
1677485906.15625,-47.89,,,2206650.0
1677485906.171875,-54.79,,,2205377.0
1677485906.1875,-63.09,,,2204613.0
1677485906.203125,-72.78,,,2203400.0
1677485906.21875,-83.03,,,2202277.0
1677485906.234375,-92.11,,,2201828.0
1677485906.25,-97.73,,,2200714.0
1677485906.265625,-97.75,,,2200217.0
1677485906.28125,-90.89,,,2201553.0
1677485906.296875,-77.23,,,2202245.0
1677485906.3125,-58.21,,,2203032.0
1677485906.328125,-36.14,,,2204083.0
1677485906.34375,-13.5,,,2203780.0
1677485906.359375,7.72,,,2200791.0
1677485906.375,26.25,,,2198757.0
1677485906.390625,41.53,,,2199485.0
1677485906.40625,53.36,,,2198809.0
1677485906.421875,61.64,,,2192933.0
1677485906.4375,66.31,,,2182131.0
1677485906.453125,67.45,,,2177068.0
1677485906.46875,65.45,,,2178264.0
1677485906.484375,61.13,,,2181038.0
1677485906.5,55.6,,,2184413.0
1677485906.515625,49.96,,,2185495.0
1677485906.53125,45.02,,,2186307.0
1677485906.546875,41.03,,,2186569.0
1677485906.5625,37.76,,,2187084.0
1677485906.578125,34.66,,,2187526.0
1677485906.59375,31.28,,,2188051.0
1677485906.609375,27.42,,,2188866.0
1677485906.625,23.32,,,2189764.0
1677485906.640625,19.43,,,2190844.0
1677485906.65625,16.19,,,2191610.0
1677485906.671875,13.69,,,2191477.0
1677485906.6875,11.5,,,2189688.0
1677485906.703125,8.84,,,2187462.0
1677485906.71875,4.71,,,2185411.0
1677485906.734375,-1.56,,,2184866.0
1677485906.75,-9.99,,,2184678.0
1677485906.765625,-19.82,,,2185077.0
1677485906.78125,-29.6,,,2186075.0
1677485906.796875,-37.68,,,2187019.0
1677485906.8125,-42.65,,,2187643.0
1677485906.828125,-43.88,,,2191071.0
1677485906.84375,-41.63,,,2189486.0
1677485906.859375,-36.99,,,2193059.0
1677485906.875,-31.52,,,2195285.0
1677485906.890625,-26.81,,,2197890.0
1677485906.90625,-24.06,,,2199883.0
1677485906.921875,-23.83,,,2202368.0
1677485906.9375,-25.84,,,2204118.0
1677485906.953125,-29.05,,,2205932.0
1677485906.96875,-31.95,,,2206980.0
1677485906.984375,-32.93,,,2206493.0
1677485907.0,-30.88,,,2204607.0
1677485907.015625,-25.48,,,2203481.0
1677485907.03125,-17.27,,,2202956.0
1677485907.046875,-7.39,,,2203184.0
1677485907.0625,2.83,,,2203423.0
1677485907.078125,12.3,,,2204619.0
1677485907.09375,20.31,,,2205513.0
1677485907.109375,26.52,,,2203005.0
1677485907.125,30.8,,,2196266.0
1677485907.140625,33.1,,,2189367.0
1677485907.15625,33.5,,,2183430.0
1677485907.171875,32.23,,,2178217.0
1677485907.1875,29.75,,,2170621.0
1677485907.203125,26.71,,,2164522.0
1677485907.21875,23.8,,,2160593.0
1677485907.234375,21.6,,,2161824.0
1677485907.25,20.38,,,2166980.0
1677485907.265625,20.06,,,2166742.0
1677485907.28125,20.26,,,2167646.0
1677485907.296875,20.36,,,2170351.0
1677485907.3125,19.66,,,2172897.0
1677485907.328125,17.63,,,2178314.0
1677485907.34375,14.02,,,2183045.0
1677485907.359375,8.96,,,2185849.0
1677485907.375,2.91,,,2188923.0
1677485907.390625,-3.47,,,2193358.0
1677485907.40625,-9.6,,,2200245.0
1677485907.421875,-15.16,,,2207261.0
1677485907.4375,-20.18,,,2212906.0
1677485907.453125,-25.07,,,2216707.0
1677485907.46875,-30.46,,,2216550.0
1677485907.484375,-37.04,,,2215427.0
1677485907.5,-45.26,,,2215281.0
1677485907.515625,-55.09,,,2214747.0
1677485907.53125,-65.83,,,2214584.0
1677485907.546875,-76.05,,,2215180.0
1677485907.5625,-83.85,,,2215461.0
1677485907.578125,-87.26,,,2216513.0
1677485907.59375,-84.79,,,2217529.0
1677485907.609375,-75.86,,,2217422.0
1677485907.625,-60.99,,,2219274.0
1677485907.640625,-41.64,,,2221259.0
1677485907.65625,-19.8,,,2222355.0
1677485907.671875,2.53,,,2223705.0
1677485907.6875,23.66,,,2225394.0
1677485907.703125,42.52,,,2227375.0
1677485907.71875,58.48,,,2229329.0
1677485907.734375,71.33,,,2229488.0
1677485907.75,80.98,,,2228584.0
1677485907.765625,87.42,,,2228208.0
1677485907.78125,90.64,,,2225958.0
1677485907.796875,90.75,,,2224502.0
1677485907.8125,88.03,,,2223573.0
1677485907.828125,83.02,,,2227335.0
1677485907.84375,76.48,,,2227679.0
1677485907.859375,69.25,,,2221148.0
1677485907.875,62.06,,,2222936.0
1677485907.890625,55.48,,,2217326.0
1677485907.90625,49.79,,,2213822.0
1677485907.921875,45.02,,,2218170.0
1677485907.9375,41.01,,,2215408.0
1677485907.953125,37.43,,,2219886.0
1677485907.96875,33.87,,,2221539.0
1677485907.984375,29.91,,,2226562.0
1677485908.0,25.17,,,2224422.0
1677485908.015625,19.47,,,2227227.0
1677485908.03125,12.83,,,2227166.0
1677485908.046875,5.47,,,2224634.0
1677485908.0625,-2.32,,,2221247.0
1677485908.078125,-10.24,,,2221442.0
1677485908.09375,-18.08,,,2223463.0
1677485908.109375,-25.78,,,2226322.0
1677485908.125,-33.37,,,2229238.0
1677485908.140625,-41.09,,,2231236.0
1677485908.15625,-49.29,,,2233178.0
1677485908.171875,-58.34,,,2234652.0
1677485908.1875,-68.27,,,2236275.0
1677485908.203125,-78.43,,,2238220.0
1677485908.21875,-87.32,,,2240251.0
1677485908.234375,-92.81,,,2241546.0
1677485908.25,-92.73,,,2243252.0
1677485908.265625,-85.68,,,2243973.0
1677485908.28125,-71.67,,,2243824.0
1677485908.296875,-52.18,,,2243569.0
1677485908.3125,-29.7,,,2242406.0
1677485908.328125,-6.87,,,2242314.0
1677485908.34375,14.21,,,2241910.0
1677485908.359375,32.37,,,2242132.0
1677485908.375,47.17,,,2242849.0
1677485908.390625,58.59,,,2244160.0
1677485908.40625,66.64,,,2245096.0
1677485908.421875,71.3,,,2245522.0
1677485908.4375,72.64,,,2246213.0
1677485908.453125,70.99,,,2247162.0
1677485908.46875,66.96,,,2248041.0
1677485908.484375,61.3,,,2248815.0
1677485908.5,54.66,,,2248782.0
1677485908.515625,47.56,,,2248020.0
1677485908.53125,40.33,,,2247228.0
1677485908.546875,33.25,,,2244388.0
1677485908.5625,26.63,,,2240918.0
1677485908.578125,20.81,,,2239474.0
1677485908.59375,15.98,,,2239065.0
1677485908.609375,12.11,,,2235821.0
1677485908.625,8.87,,,2233318.0
1677485908.640625,5.7,,,2232837.0
1677485908.65625,1.98,,,2231136.0
1677485908.671875,-2.87,,,2228032.0
1677485908.6875,-9.22,,,2224763.0
1677485908.703125,-17.1,,,2220379.0
1677485908.71875,-26.13,,,2217723.0
1677485908.734375,-35.35,,,2214666.0
1677485908.75,-43.32,,,2210883.0
1677485908.765625,-48.44,,,2203269.0
1677485908.78125,-49.44,,,2195261.0
1677485908.796875,-46.01,,,2197579.0
1677485908.8125,-39.07,,,2208070.0
1677485908.828125,-30.65,,,2227818.0
1677485908.84375,-23.23,,,2233513.0
1677485908.859375,-18.8,,,2239977.0
1677485908.875,-18.11,,,2249193.0
1677485908.890625,-20.37,,,2246273.0
1677485908.90625,-23.76,,,2235836.0
1677485908.921875,-26.18,,,2230748.0
1677485908.9375,-26.11,,,2233009.0
1677485908.953125,-23.03,,,2237932.0
1677485908.96875,-17.32,,,2239133.0
1677485908.984375,-9.81,,,2238274.0
1677485909.0,-1.29,,,2237983.0
1677485909.015625,7.67,,,2238808.0
1677485909.03125,16.63,,,2237404.0
1677485909.046875,25.01,,,2234518.0
1677485909.0625,31.98,,,2227259.0
1677485909.078125,36.66,,,2220883.0
1677485909.09375,38.43,,,2218830.0
1677485909.109375,37.29,,,2217376.0
1677485909.125,33.96,,,2218025.0
1677485909.140625,29.62,,,2221514.0
1677485909.15625,25.45,,,2225163.0
1677485909.171875,22.19,,,2227074.0
1677485909.1875,19.93,,,2228181.0
1677485909.203125,18.16,,,2229879.0
1677485909.21875,16.11,,,2232163.0
1677485909.234375,13.08,,,2233116.0
1677485909.25,8.82,,,2235436.0
1677485909.265625,3.52,,,2236345.0
1677485909.28125,-2.23,,,2235517.0
1677485909.296875,-7.8,,,2235175.0
1677485909.3125,-12.77,,,2234135.0
1677485909.328125,-17.13,,,2232579.0
1677485909.34375,-21.28,,,2231474.0
1677485909.359375,-25.85,,,2230319.0
1677485909.375,-31.45,,,2228948.0
1677485909.390625,-38.47,,,2228520.0
1677485909.40625,-46.86,,,2228947.0
1677485909.421875,-56.0,,,2228682.0
1677485909.4375,-64.63,,,2228034.0
1677485909.453125,-71.01,,,2223921.0
1677485909.46875,-73.31,,,2220489.0
1677485909.484375,-70.07,,,2222038.0
1677485909.5,-60.79,,,2227294.0
1677485909.515625,-46.17,,,2225401.0
1677485909.53125,-27.94,,,2231495.0
1677485909.546875,-8.4,,,2233869.0
1677485909.5625,10.33,,,2223910.0
1677485909.578125,26.79,,,2213931.0
1677485909.59375,40.34,,,2209968.0
1677485909.609375,50.9,,,2212569.0
1677485909.625,58.52,,,2217610.0
1677485909.640625,63.09,,,2220723.0
1677485909.65625,64.39,,,2222840.0
1677485909.671875,62.26,,,2223338.0
1677485909.6875,57.02,,,2223794.0
1677485909.703125,49.52,,,2224762.0
1677485909.71875,41.02,,,2225624.0
1677485909.734375,32.82,,,2226965.0
1677485909.75,25.84,,,2228059.0
1677485909.765625,20.38,,,2229653.0
1677485909.78125,16.12,,,2231042.0
1677485909.796875,12.38,,,2231120.0
1677485909.8125,8.51,,,2229600.0
1677485909.828125,4.2,,,2228254.0
1677485909.84375,-0.44,,,2226330.0
1677485909.859375,-4.99,,,2223637.0
1677485909.875,-9.04,,,2220493.0
1677485909.890625,-12.44,,,2218392.0
1677485909.90625,-15.44,,,2217681.0
1677485909.921875,-18.64,,,2216693.0
1677485909.9375,-22.71,,,2215325.0
1677485909.953125,-28.26,,,2214662.0
1677485909.96875,-35.53,,,2214107.0
1677485909.984375,-44.3,,,2213168.0
1677485910.0,-53.76,,,2213304.0
1677485910.015625,-62.51,,,2212641.0
1677485910.03125,-68.72,,,2212188.0
1677485910.046875,-70.53,,,2212203.0
1677485910.0625,-66.57,,,2210392.0
1677485910.078125,-56.53,,,2207607.0
1677485910.09375,-41.32,,,2205407.0
1677485910.109375,-22.93,,,2203262.0
1677485910.125,-3.75,,,2202265.0
1677485910.140625,14.17,,,2201737.0
1677485910.15625,29.54,,,2200881.0
1677485910.171875,41.92,,,2201500.0
1677485910.1875,51.31,,,2202230.0
1677485910.203125,57.74,,,2201665.0
1677485910.21875,60.99,,,2201151.0
1677485910.234375,60.77,,,2202007.0
1677485910.25,57.08,,,2203256.0
1677485910.265625,50.54,,,2203883.0
1677485910.28125,42.38,,,2204766.0
1677485910.296875,34.15,,,2206234.0
1677485910.3125,27.13,,,2207298.0
1677485910.328125,21.85,,,2207002.0
1677485910.34375,18.06,,,2206299.0
1677485910.359375,14.9,,,2204580.0
1677485910.375,11.47,,,2203135.0
1677485910.390625,7.23,,,2202133.0
1677485910.40625,2.19,,,2201765.0
1677485910.421875,-3.24,,,2201698.0
1677485910.4375,-8.59,,,2202126.0
1677485910.453125,-13.61,,,2202658.0
1677485910.46875,-18.42,,,2203495.0
1677485910.484375,-23.38,,,2205019.0
1677485910.5,-28.94,,,2206043.0
1677485910.515625,-35.42,,,2206937.0
1677485910.53125,-43.0,,,2207758.0
1677485910.546875,-51.71,,,2208062.0
1677485910.5625,-61.24,,,2208530.0
1677485910.578125,-70.81,,,2209215.0
1677485910.59375,-79.02,,,2208395.0
1677485910.609375,-83.95,,,2206419.0
1677485910.625,-83.74,,,2204429.0
1677485910.640625,-77.14,,,2203541.0
1677485910.65625,-64.2,,,2201820.0
1677485910.671875,-46.33,,,2201107.0
1677485910.6875,-25.85,,,2201692.0
1677485910.703125,-5.32,,,2201353.0
1677485910.71875,13.26,,,2201925.0
1677485910.734375,28.79,,,2203609.0
1677485910.75,40.98,,,2204689.0
1677485910.765625,50.01,,,2205535.0
1677485910.78125,56.1,,,2206944.0
1677485910.796875,59.37,,,2208110.0
1677485910.8125,59.84,,,2208908.0
1677485910.828125,57.67,,,2208289.0
1677485910.84375,53.21,,,2206685.0
1677485910.859375,47.13,,,2204748.0
1677485910.875,40.28,,,2202679.0
1677485910.890625,33.46,,,2202172.0
1677485910.90625,27.21,,,2201219.0
1677485910.921875,21.68,,,2198638.0
1677485910.9375,16.56,,,2195547.0
1677485910.953125,11.28,,,2195148.0
1677485910.96875,5.33,,,2194878.0
1677485910.984375,-1.47,,,2195907.0
1677485911.0,-8.86,,,2196903.0
1677485911.015625,-16.28,,,2197178.0
1677485911.03125,-23.11,,,2198209.0
1677485911.046875,-29.09,,,2199545.0
1677485911.0625,-34.39,,,2201064.0
1677485911.078125,-39.58,,,2202121.0
1677485911.09375,-45.38,,,2201288.0
1677485911.109375,-52.44,,,2199909.0
1677485911.125,-61.16,,,2198263.0
1677485911.140625,-71.55,,,2196082.0
1677485911.15625,-83.14,,,2195355.0
1677485911.171875,-94.83,,,2194395.0
1677485911.1875,-104.85,,,2194227.0
1677485911.203125,-110.99,,,2194248.0
1677485911.21875,-111.08,,,2194822.0
1677485911.234375,-103.67,,,2194952.0
1677485911.25,-88.58,,,2195580.0
1677485911.265625,-67.05,,,2196852.0
1677485911.28125,-41.45,,,2197007.0
1677485911.296875,-14.52,,,2197809.0
1677485911.3125,11.35,,,2199012.0
1677485911.328125,34.63,,,2200367.0
1677485911.34375,54.67,,,2200446.0
1677485911.359375,71.41,,,2199107.0
1677485911.375,84.91,,,2197060.0
1677485911.390625,95.13,,,2194305.0
1677485911.40625,101.84,,,2191275.0
1677485911.421875,104.81,,,2192378.0
1677485911.4375,104.06,,,2190032.0
1677485911.453125,99.97,,,2190653.0
1677485911.46875,93.29,,,2190109.0
1677485911.484375,84.99,,,2190836.0
1677485911.5,76.07,,,2191281.0
1677485911.515625,67.35,,,2192832.0
1677485911.53125,59.34,,,2191983.0
1677485911.546875,52.23,,,2193614.0
1677485911.5625,45.86,,,2193016.0
1677485911.578125,39.87,,,2192983.0
1677485911.59375,33.86,,,2193875.0
1677485911.609375,27.52,,,2190820.0
1677485911.625,20.72,,,2187100.0
1677485911.640625,13.44,,,2183270.0
1677485911.65625,5.77,,,2185106.0
1677485911.671875,-2.26,,,2186342.0
1677485911.6875,-10.62,,,2194252.0
1677485911.703125,-19.29,,,2191915.0
1677485911.71875,-28.26,,,2173006.0
1677485911.734375,-37.58,,,2182383.0
1677485911.75,-47.49,,,2170993.0
1677485911.765625,-58.34,,,2176141.0
1677485911.78125,-70.4,,,2184338.0
1677485911.796875,-83.4,,,2190950.0
1677485911.8125,-96.15,,,2195128.0
1677485911.828125,-106.54,,,2198546.0
1677485911.84375,-111.92,,,2201049.0
1677485911.859375,-110.02,,,2202262.0
1677485911.875,-99.68,,,2202296.0
1677485911.890625,-81.4,,,2201966.0
1677485911.90625,-57.07,,,2201137.0
1677485911.921875,-29.46,,,2202395.0
1677485911.9375,-1.35,,,2201109.0
1677485911.953125,25.08,,,2201710.0
1677485911.96875,48.42,,,2203899.0
1677485911.984375,67.94,,,2202261.0
1677485912.0,83.34,,,2206368.0
1677485912.015625,94.53,,,2204928.0
1677485912.03125,101.57,,,2208133.0
1677485912.046875,104.73,,,2210773.0
1677485912.0625,104.55,,,2208953.0
1677485912.078125,101.75,,,2213307.0
1677485912.09375,97.14,,,2216570.0
1677485912.109375,91.36,,,2211577.0
1677485912.125,84.87,,,2214620.0
1677485912.140625,77.89,,,2217630.0
1677485912.15625,70.5,,,2217192.0
1677485912.171875,62.86,,,2215902.0
1677485912.1875,55.28,,,2214084.0
1677485912.203125,48.22,,,2211795.0
1677485912.21875,42.06,,,2210431.0
1677485912.234375,36.89,,,2209975.0
1677485912.25,32.34,,,2210100.0
1677485912.265625,27.6,,,2210983.0
1677485912.28125,21.78,,,2212175.0
1677485912.296875,14.22,,,2212619.0
1677485912.3125,4.87,,,2212808.0
1677485912.328125,-5.74,,,2213702.0
1677485912.34375,-16.63,,,2214267.0
1677485912.359375,-26.81,,,2215492.0
1677485912.375,-35.63,,,2215706.0
1677485912.390625,-43.04,,,2214285.0
1677485912.40625,-49.58,,,2212613.0
1677485912.421875,-56.24,,,2215701.0
1677485912.4375,-64.12,,,2211285.0
1677485912.453125,-73.98,,,2216519.0
1677485912.46875,-85.89,,,2206621.0
1677485912.484375,-98.89,,,2209063.0
1677485912.5,-110.93,,,2196444.0
1677485912.515625,-119.23,,,2200379.0
1677485912.53125,-121.1,,,2195788.0
1677485912.546875,-114.75,,,2197037.0
1677485912.5625,-99.95,,,2198268.0
1677485912.578125,-78.16,,,2198651.0
1677485912.59375,-51.97,,,2201230.0
1677485912.609375,-24.28,,,2199753.0
1677485912.625,2.46,,,2203744.0
1677485912.640625,26.75,,,2202671.0
1677485912.65625,47.91,,,2204877.0
1677485912.671875,65.75,,,2206278.0
1677485912.6875,80.11,,,2207259.0
1677485912.703125,90.73,,,2208111.0
1677485912.71875,97.29,,,2208217.0
1677485912.734375,99.74,,,2207208.0
1677485912.75,98.45,,,2206717.0
1677485912.765625,94.33,,,2205319.0
1677485912.78125,88.55,,,2204402.0
1677485912.796875,82.33,,,2204294.0
1677485912.8125,76.51,,,2203289.0
1677485912.828125,71.41,,,2201780.0
1677485912.84375,66.84,,,2197019.0
1677485912.859375,62.31,,,2195018.0
1677485912.875,57.38,,,2193311.0
1677485912.890625,51.91,,,2192072.0
1677485912.90625,46.1,,,2191638.0
1677485912.921875,40.43,,,2193139.0
1677485912.9375,35.25,,,2194102.0
1677485912.953125,30.59,,,2195048.0
1677485912.96875,26.05,,,2195811.0
1677485912.984375,20.89,,,2194972.0
1677485913.0,14.39,,,2192917.0
1677485913.015625,6.18,,,2189766.0
1677485913.03125,-3.59,,,2186295.0
1677485913.046875,-14.23,,,2183672.0
1677485913.0625,-24.8,,,2181642.0
1677485913.078125,-34.41,,,2180907.0
1677485913.09375,-42.53,,,2181814.0
1677485913.109375,-49.11,,,2178762.0
1677485913.125,-54.58,,,2175042.0
1677485913.140625,-59.7,,,2175559.0
1677485913.15625,-65.43,,,2177086.0
1677485913.171875,-72.63,,,2177768.0
1677485913.1875,-81.79,,,2179334.0
1677485913.203125,-92.69,,,2179908.0
1677485913.21875,-104.12,,,2180676.0
1677485913.234375,-113.94,,,2180163.0
1677485913.25,-119.5,,,2178726.0
1677485913.265625,-118.4,,,2177478.0
1677485913.28125,-109.28,,,2175995.0
1677485913.296875,-92.32,,,2174770.0
1677485913.3125,-69.25,,,2173456.0
1677485913.328125,-42.67,,,2172242.0
1677485913.34375,-15.34,,,2172520.0
1677485913.359375,10.57,,,2173157.0
1677485913.375,33.74,,,2173638.0
1677485913.390625,53.6,,,2172577.0
1677485913.40625,69.95,,,2171559.0
1677485913.421875,82.67,,,2170005.0
1677485913.4375,91.62,,,2165978.0
1677485913.453125,96.72,,,2163808.0
1677485913.46875,98.12,,,2163913.0
1677485913.484375,96.3,,,2162993.0
1677485913.5,92.12,,,2161912.0
1677485913.515625,86.57,,,2160472.0
1677485913.53125,80.62,,,2159435.0
1677485913.546875,74.92,,,2159272.0
1677485913.5625,69.75,,,2159606.0
1677485913.578125,64.96,,,2159175.0
1677485913.59375,60.26,,,2158694.0
1677485913.609375,55.32,,,2156652.0
1677485913.625,50.08,,,2152376.0
1677485913.640625,44.73,,,2150506.0
1677485913.65625,39.55,,,2150302.0
1677485913.671875,34.75,,,2149831.0
1677485913.6875,30.22,,,2149974.0
1677485913.703125,25.53,,,2150449.0
1677485913.71875,20.11,,,2150327.0
1677485913.734375,13.52,,,2149653.0
1677485913.75,5.64,,,2147555.0
1677485913.765625,-3.2,,,2145691.0
1677485913.78125,-12.34,,,2143090.0
1677485913.796875,-21.08,,,2140393.0
1677485913.8125,-28.92,,,2139266.0
1677485913.828125,-35.73,,,2137350.0
1677485913.84375,-41.75,,,2135196.0
1677485913.859375,-47.45,,,2133639.0
1677485913.875,-53.35,,,2133072.0
1677485913.890625,-59.92,,,2132796.0
1677485913.90625,-67.52,,,2132205.0
1677485913.921875,-76.2,,,2132460.0
1677485913.9375,-85.56,,,2131333.0
1677485913.953125,-94.51,,,2129737.0
1677485913.96875,-101.26,,,2127985.0
1677485913.984375,-103.62,,,2125746.0
1677485914.0,-99.7,,,2128662.0
1677485914.015625,-88.61,,,2129576.0
1677485914.03125,-70.88,,,2127488.0
1677485914.046875,-48.39,,,2123733.0
1677485914.0625,-23.7,,,2119879.0
1677485914.078125,0.74,,,2118582.0
1677485914.09375,23.26,,,2118786.0
1677485914.109375,43.06,,,2119185.0
1677485914.125,59.95,,,2120036.0
1677485914.140625,73.81,,,2120258.0
1677485914.15625,84.33,,,2119729.0
1677485914.171875,91.04,,,2119511.0
1677485914.1875,93.65,,,2116918.0
1677485914.203125,92.46,,,2114267.0
1677485914.21875,88.41,,,2111758.0
1677485914.234375,82.87,,,2109972.0
1677485914.25,77.33,,,2107591.0
1677485914.265625,72.83,,,2107209.0
1677485914.28125,69.73,,,2106126.0
1677485914.296875,67.7,,,2104876.0
1677485914.3125,65.89,,,2104519.0
1677485914.328125,63.4,,,2104208.0
1677485914.34375,59.66,,,2104542.0
1677485914.359375,54.7,,,2104323.0
1677485914.375,49.16,,,2103788.0
1677485914.390625,43.96,,,2103510.0
1677485914.40625,39.92,,,2101786.0
1677485914.421875,37.3,,,2099482.0
1677485914.4375,35.63,,,2097033.0
1677485914.453125,33.85,,,2095011.0
1677485914.46875,30.75,,,2092974.0
1677485914.484375,25.47,,,2091973.0
1677485914.5,17.82,,,2091802.0
1677485914.515625,8.33,,,2091100.0
1677485914.53125,-2.01,,,2090314.0
1677485914.546875,-12.15,,,2089992.0
1677485914.5625,-21.29,,,2090207.0
1677485914.578125,-29.01,,,2089848.0
1677485914.59375,-35.29,,,2090357.0
1677485914.609375,-40.47,,,2090468.0
1677485914.625,-45.26,,,2090729.0
1677485914.640625,-50.67,,,2089258.0
1677485914.65625,-57.64,,,2087141.0
1677485914.671875,-66.59,,,2085180.0
1677485914.6875,-76.88,,,2084154.0
1677485914.703125,-86.6,,,2087649.0
1677485914.71875,-93.04,,,2094608.0
1677485914.734375,-93.61,,,2101439.0
1677485914.75,-86.93,,,2102995.0
1677485914.765625,-73.39,,,2100065.0
1677485914.78125,-54.97,,,2098330.0
1677485914.796875,-34.4,,,2098934.0
1677485914.8125,-14.22,,,2099525.0
1677485914.828125,3.9,,,2100538.0
1677485914.84375,19.13,,,2101061.0
1677485914.859375,31.04,,,2100289.0
1677485914.875,39.22,,,2098855.0
1677485914.890625,43.15,,,2096713.0
1677485914.90625,42.52,,,2094897.0
1677485914.921875,37.69,,,2093390.0
1677485914.9375,29.87,,,2092635.0
1677485914.953125,20.91,,,2092511.0
1677485914.96875,12.75,,,2091869.0
1677485914.984375,6.81,,,2091756.0
1677485915.0,3.62,,,2091033.0
1677485915.015625,2.83,,,2091286.0
1677485915.03125,3.68,,,2091040.0
1677485915.046875,5.45,,,2091515.0
1677485915.0625,7.83,,,2092303.0
1677485915.078125,10.95,,,2090138.0
1677485915.09375,15.03,,,2091754.0
1677485915.109375,20.07,,,2091574.0
1677485915.125,25.58,,,2087821.0
1677485915.140625,30.59,,,2086654.0
1677485915.15625,33.93,,,2084923.0
1677485915.171875,34.71,,,2083945.0
1677485915.1875,32.62,,,2083494.0
1677485915.203125,28.1,,,2083753.0
1677485915.21875,22.1,,,2083412.0
1677485915.234375,15.8,,,2083165.0
1677485915.25,10.1,,,2083286.0
1677485915.265625,5.38,,,2083199.0
1677485915.28125,1.5,,,2083512.0
1677485915.296875,-1.99,,,2083749.0
1677485915.3125,-5.57,,,2084070.0
1677485915.328125,-9.46,,,2084876.0
1677485915.34375,-13.64,,,2085048.0
1677485915.359375,-17.89,,,2084292.0
1677485915.375,-22.03,,,2082566.0
1677485915.390625,-26.06,,,2080887.0
1677485915.40625,-30.16,,,2080575.0
1677485915.421875,-34.64,,,2079030.0
1677485915.4375,-39.71,,,2078521.0
1677485915.453125,-45.43,,,2078453.0
1677485915.46875,-51.64,,,2077547.0
1677485915.484375,-57.99,,,2077736.0
1677485915.5,-63.93,,,2078643.0
1677485915.515625,-68.78,,,2075232.0
1677485915.53125,-71.88,,,2071560.0
1677485915.546875,-72.65,,,2069910.0
1677485915.5625,-70.86,,,2070764.0
1677485915.578125,-66.66,,,2071210.0
1677485915.59375,-60.61,,,2072158.0
1677485915.609375,-53.54,,,2074067.0
1677485915.625,-46.35,,,2075791.0
1677485915.640625,-39.78,,,2076882.0
1677485915.65625,-34.29,,,2079564.0
1677485915.671875,-30.06,,,2082156.0
1677485915.6875,-27.08,,,2081439.0
1677485915.703125,-25.31,,,2082008.0
1677485915.71875,-24.71,,,2082765.0
1677485915.734375,-25.26,,,2083139.0
1677485915.75,-26.88,,,2082901.0
1677485915.765625,-29.35,,,2083781.0
1677485915.78125,-32.31,,,2085085.0
1677485915.796875,-35.33,,,2085954.0
1677485915.8125,-38.03,,,2086303.0
1677485915.828125,-40.22,,,2087379.0
1677485915.84375,-41.96,,,2088400.0
1677485915.859375,-43.54,,,2089418.0
1677485915.875,-45.41,,,2090451.0
1677485915.890625,-47.95,,,2092336.0
1677485915.90625,-51.33,,,2093796.0
1677485915.921875,-55.48,,,2095118.0
1677485915.9375,-60.03,,,2095392.0
1677485915.953125,-64.54,,,2094721.0
1677485915.96875,-68.61,,,2093881.0
1677485915.984375,-72.06,,,2093404.0
1677485916.0,-74.93,,,2093429.0
1677485916.015625,-77.52,,,2094434.0
1677485916.03125,-80.25,,,2094996.0
1677485916.046875,-83.62,,,2095640.0
1677485916.0625,-88.07,,,2096181.0
1677485916.078125,-93.81,,,2097467.0
1677485916.09375,-100.49,,,2098401.0
1677485916.109375,-107.06,,,2099415.0
1677485916.125,-111.76,,,2100297.0
1677485916.140625,-112.49,,,2100571.0
1677485916.15625,-107.41,,,2100938.0
1677485916.171875,-95.58,,,2099927.0
1677485916.1875,-77.29,,,2100471.0
1677485916.203125,-53.97,,,2099675.0
1677485916.21875,-27.75,,,2096765.0
1677485916.234375,-0.82,,,2094163.0
1677485916.25,24.95,,,2092968.0
1677485916.265625,48.18,,,2092477.0
1677485916.28125,67.95,,,2092901.0
1677485916.296875,83.63,,,2093427.0
1677485916.3125,94.92,,,2093567.0
1677485916.328125,101.87,,,2093837.0
1677485916.34375,104.96,,,2093976.0
1677485916.359375,105.07,,,2094083.0
1677485916.375,103.3,,,2094290.0
1677485916.390625,100.69,,,2094656.0
1677485916.40625,97.98,,,2094900.0
1677485916.421875,95.51,,,2095280.0
1677485916.4375,93.21,,,2095791.0
1677485916.453125,90.84,,,2096599.0
1677485916.46875,88.08,,,2096323.0
1677485916.484375,84.76,,,2095902.0
1677485916.5,80.83,,,2094150.0
1677485916.515625,76.33,,,2093096.0
1677485916.53125,71.35,,,2092231.0
1677485916.546875,65.87,,,2091773.0
1677485916.5625,59.83,,,2091622.0
1677485916.578125,53.09,,,2091358.0
1677485916.59375,45.56,,,2091955.0
1677485916.609375,37.3,,,2092179.0
1677485916.625,28.58,,,2092283.0
1677485916.640625,19.74,,,2092860.0
1677485916.65625,11.05,,,2093395.0
1677485916.671875,2.49,,,2093714.0
1677485916.6875,-6.33,,,2094726.0
1677485916.703125,-16.18,,,2095226.0
1677485916.71875,-27.92,,,2095953.0
1677485916.734375,-42.15,,,2095464.0
1677485916.75,-58.85,,,2093972.0
1677485916.765625,-77.08,,,2092950.0
1677485916.78125,-95.02,,,2091434.0
1677485916.796875,-110.25,,,2090924.0
1677485916.8125,-120.28,,,2090819.0
1677485916.828125,-123.24,,,2090744.0
1677485916.84375,-118.25,,,2090673.0
1677485916.859375,-105.73,,,2090303.0
1677485916.875,-87.19,,,2090368.0
1677485916.890625,-64.82,,,2090659.0
1677485916.90625,-40.91,,,2090846.0
1677485916.921875,-17.53,,,2091717.0
1677485916.9375,3.83,,,2092669.0
1677485916.953125,22.17,,,2092766.0
1677485916.96875,36.95,,,2093867.0
1677485916.984375,47.89,,,2093594.0
1677485917.0,54.98,,,2092164.0
1677485917.015625,58.51,,,2089997.0
1677485917.03125,59.02,,,2087622.0
1677485917.046875,57.29,,,2086418.0
1677485917.0625,54.19,,,2086015.0
1677485917.078125,50.57,,,2085636.0
1677485917.09375,47.06,,,2085811.0
1677485917.109375,43.99,,,2085835.0
1677485917.125,41.39,,,2084970.0
1677485917.140625,39.0,,,2084987.0
1677485917.15625,36.48,,,2085023.0
1677485917.171875,33.48,,,2085215.0
1677485917.1875,29.8,,,2085076.0
1677485917.203125,25.35,,,2085365.0
1677485917.21875,20.17,,,2085945.0
1677485917.234375,14.26,,,2086231.0
1677485917.25,7.63,,,2084482.0
1677485917.265625,0.33,,,2082213.0
1677485917.28125,-7.54,,,2079911.0
1677485917.296875,-15.68,,,2077938.0
1677485917.3125,-23.7,,,2076218.0
1677485917.328125,-31.2,,,2074986.0
1677485917.34375,-37.95,,,2074487.0
1677485917.359375,-44.04,,,2073871.0
1677485917.375,-49.99,,,2073423.0
1677485917.390625,-56.59,,,2073201.0
1677485917.40625,-64.69,,,2072792.0
1677485917.421875,-74.81,,,2072870.0
1677485917.4375,-86.77,,,2073228.0
1677485917.453125,-99.44,,,2073872.0
1677485917.46875,-110.74,,,2074262.0
1677485917.484375,-118.08,,,2074163.0
1677485917.5,-118.96,,,2075251.0
1677485917.515625,-111.75,,,2073891.0
1677485917.53125,-96.25,,,2071838.0
1677485917.546875,-73.7,,,2068949.0
1677485917.5625,-46.44,,,2066505.0
1677485917.578125,-17.15,,,2064093.0
1677485917.59375,11.76,,,2062371.0
1677485917.609375,38.61,,,2061617.0
1677485917.625,62.45,,,2060478.0
1677485917.640625,82.82,,,2060067.0
1677485917.65625,99.43,,,2059316.0
1677485917.671875,112.06,,,2059433.0
1677485917.6875,120.53,,,2059499.0
1677485917.703125,124.85,,,2060100.0
1677485917.71875,125.38,,,2060533.0
1677485917.734375,122.78,,,2060553.0
1677485917.75,117.91,,,2061290.0
1677485917.765625,111.68,,,2060005.0
1677485917.78125,104.85,,,2058921.0
1677485917.796875,97.97,,,2058843.0
1677485917.8125,91.42,,,2058889.0
1677485917.828125,85.36,,,2060780.0
1677485917.84375,79.75,,,2068089.0
1677485917.859375,74.4,,,2078161.0
1677485917.875,68.92,,,2085893.0
1677485917.890625,62.79,,,2077499.0
1677485917.90625,55.48,,,2070092.0
1677485917.921875,46.61,,,2068405.0
1677485917.9375,36.03,,,2070322.0
1677485917.953125,23.93,,,2070590.0
1677485917.96875,10.74,,,2070094.0
1677485917.984375,-2.94,,,2069252.0
1677485918.0,-16.51,,,2069337.0
1677485918.015625,-29.56,,,2070497.0
1677485918.03125,-41.99,,,2071318.0
1677485918.046875,-54.06,,,2072392.0
1677485918.0625,-66.31,,,2071607.0
1677485918.078125,-79.28,,,2070348.0
1677485918.09375,-93.01,,,2068403.0
1677485918.109375,-106.72,,,2065825.0
1677485918.125,-118.65,,,2065025.0
1677485918.140625,-126.42,,,2064047.0
1677485918.15625,-127.76,,,2063690.0
1677485918.171875,-121.36,,,2063240.0
1677485918.1875,-107.34,,,2062893.0
1677485918.203125,-87.28,,,2062866.0
1677485918.21875,-63.62,,,2062778.0
1677485918.234375,-38.88,,,2062515.0
1677485918.25,-14.97,,,2062537.0
1677485918.265625,7.0,,,2063527.0
1677485918.28125,26.5,,,2063943.0
1677485918.296875,43.21,,,2064542.0
1677485918.3125,56.68,,,2065953.0
1677485918.328125,66.35,,,2066332.0
1677485918.34375,71.86,,,2065134.0
1677485918.359375,73.34,,,2063115.0
1677485918.375,71.54,,,2061167.0
1677485918.390625,67.6,,,2058830.0
1677485918.40625,62.76,,,2057851.0
1677485918.421875,58.04,,,2057068.0
1677485918.4375,54.01,,,2056484.0
1677485918.453125,50.86,,,2056357.0
1677485918.46875,48.48,,,2055618.0
1677485918.484375,46.59,,,2055602.0
1677485918.5,44.85,,,2055130.0
1677485918.515625,42.85,,,2053612.0
1677485918.53125,40.16,,,2052883.0
1677485918.546875,36.38,,,2053351.0
1677485918.5625,31.27,,,2054640.0
1677485918.578125,24.8,,,2055558.0
1677485918.59375,17.21,,,2055792.0
1677485918.609375,8.87,,,2054095.0
1677485918.625,0.19,,,2051264.0
1677485918.640625,-8.5,,,2049201.0
1677485918.65625,-17.07,,,2046512.0
1677485918.671875,-25.63,,,2045087.0
1677485918.6875,-34.54,,,2043143.0
1677485918.703125,-44.24,,,2042371.0
1677485918.71875,-55.08,,,2041210.0
1677485918.734375,-66.96,,,2040049.0
1677485918.75,-79.06,,,2038862.0
1677485918.765625,-89.79,,,2038528.0
1677485918.78125,-97.06,,,2037062.0
1677485918.796875,-98.73,,,2034129.0
1677485918.8125,-93.31,,,2032113.0
1677485918.828125,-80.39,,,2032377.0
1677485918.84375,-60.85,,,2032809.0
1677485918.859375,-36.6,,,2032679.0
1677485918.875,-10.06,,,2031380.0
1677485918.890625,16.46,,,2031024.0
1677485918.90625,41.16,,,2030152.0
1677485918.921875,62.97,,,2029482.0
1677485918.9375,81.42,,,2028571.0
1677485918.953125,96.38,,,2028828.0
1677485918.96875,107.84,,,2029120.0
1677485918.984375,115.82,,,2029661.0
1677485919.0,120.36,,,2030725.0
1677485919.015625,121.72,,,2031766.0
1677485919.03125,120.46,,,2032300.0
1677485919.046875,117.41,,,2033235.0
1677485919.0625,113.49,,,2034177.0
1677485919.078125,109.55,,,2035169.0
1677485919.09375,106.12,,,2037002.0
1677485919.109375,103.44,,,2038034.0
1677485919.125,101.55,,,2038626.0
1677485919.140625,100.41,,,2038176.0
1677485919.15625,99.96,,,2037052.0
1677485919.171875,100.04,,,2035883.0
1677485919.1875,100.33,,,2035085.0
1677485919.203125,100.25,,,2034494.0
1677485919.21875,99.14,,,2034725.0
1677485919.234375,96.44,,,2034980.0
1677485919.25,92.02,,,2035504.0
1677485919.265625,86.2,,,2035760.0
1677485919.28125,79.7,,,2036333.0
1677485919.296875,73.26,,,2037095.0
1677485919.3125,67.35,,,2037976.0
1677485919.328125,61.92,,,2039288.0
1677485919.34375,56.35,,,2040381.0
1677485919.359375,49.64,,,2041948.0
1677485919.375,40.73,,,2043170.0
1677485919.390625,29.0,,,2043644.0
1677485919.40625,14.71,,,2042887.0
1677485919.421875,-0.68,,,2041683.0
1677485919.4375,-14.53,,,2040928.0
1677485919.453125,-23.6,,,2038884.0
1677485919.46875,-24.96,,,2037848.0
1677485919.484375,-16.94,,,2038379.0
1677485919.5,0.14,,,2038784.0
1677485919.515625,23.96,,,2038569.0
1677485919.53125,50.9,,,2038487.0
1677485919.546875,77.03,,,2038424.0
1677485919.5625,99.19,,,2039088.0
1677485919.578125,115.51,,,2039509.0
1677485919.59375,125.46,,,2040207.0
1677485919.609375,129.46,,,2042120.0
1677485919.625,128.29,,,2043074.0
1677485919.640625,122.69,,,2043686.0
1677485919.65625,113.16,,,2044014.0
1677485919.671875,100.01,,,2043113.0
1677485919.6875,83.45,,,2041899.0
1677485919.703125,63.7,,,2040543.0
1677485919.71875,41.15,,,2040195.0
1677485919.734375,16.48,,,2039988.0
1677485919.75,-9.26,,,2039758.0
1677485919.765625,-34.58,,,2040169.0
1677485919.78125,-57.66,,,2040214.0
1677485919.796875,-76.75,,,2040819.0
1677485919.8125,-90.55,,,2041487.0
1677485919.828125,-98.72,,,2042694.0
1677485919.84375,-102.01,,,2044049.0
1677485919.859375,-102.14,,,2045286.0
1677485919.875,-101.18,,,2047618.0
1677485919.890625,-100.97,,,2049311.0
1677485919.90625,-102.55,,,2050001.0
1677485919.921875,-106.02,,,2050504.0
1677485919.9375,-110.78,,,2049629.0
1677485919.953125,-115.96,,,2049349.0
1677485919.96875,-120.75,,,2048481.0
1677485919.984375,-124.73,,,2048447.0
1677485920.0,-127.79,,,2048586.0
1677485920.015625,-130.15,,,2049702.0
1677485920.03125,-132.24,,,2050511.0
1677485920.046875,-134.64,,,2051356.0
1677485920.0625,-137.88,,,2052333.0
1677485920.078125,-142.11,,,2053527.0
1677485920.09375,-146.84,,,2054535.0
1677485920.109375,-150.68,,,2055715.0
1677485920.125,-151.64,,,2056989.0
1677485920.140625,-147.69,,,2058486.0
1677485920.15625,-137.5,,,2059603.0
1677485920.171875,-120.97,,,2059215.0
1677485920.1875,-99.3,,,2057345.0
1677485920.203125,-74.58,,,2055956.0
1677485920.21875,-49.14,,,2054249.0
1677485920.234375,-25.03,,,2053302.0
1677485920.25,-3.62,,,2052926.0
1677485920.265625,14.24,,,2049633.0
1677485920.28125,28.15,,,2047611.0
1677485920.296875,37.92,,,2046656.0
1677485920.3125,43.59,,,2048869.0
1677485920.328125,45.47,,,2052527.0
1677485920.34375,44.31,,,2053323.0
1677485920.359375,41.1,,,2054668.0
1677485920.375,37.05,,,2055481.0
1677485920.390625,33.24,,,2055852.0
1677485920.40625,30.45,,,2055208.0
1677485920.421875,29.03,,,2055197.0
1677485920.4375,28.97,,,2054888.0
1677485920.453125,29.98,,,2054108.0
1677485920.46875,31.61,,,2054007.0
1677485920.484375,33.25,,,2053398.0
1677485920.5,34.2,,,2052957.0
1677485920.515625,33.67,,,2052006.0
1677485920.53125,30.96,,,2051845.0
1677485920.546875,25.58,,,2052427.0
1677485920.5625,17.6,,,2053344.0
1677485920.578125,7.61,,,2053959.0
1677485920.59375,-3.37,,,2055231.0
1677485920.609375,-14.24,,,2055895.0
1677485920.625,-24.14,,,2057137.0
1677485920.640625,-32.71,,,2058546.0
1677485920.65625,-40.08,,,2059703.0
1677485920.671875,-46.79,,,2060773.0
1677485920.6875,-53.63,,,2061253.0
1677485920.703125,-61.35,,,2061942.0
1677485920.71875,-70.49,,,2060990.0
1677485920.734375,-80.97,,,2060187.0
1677485920.75,-91.9,,,2058608.0
1677485920.765625,-101.47,,,2058432.0
1677485920.78125,-107.24,,,2058660.0
1677485920.796875,-106.84,,,2058940.0
1677485920.8125,-98.7,,,2059536.0
1677485920.828125,-82.73,,,2060460.0
1677485920.84375,-60.32,,,2061120.0
1677485920.859375,-33.98,,,2061832.0
1677485920.875,-6.49,,,2062431.0
1677485920.890625,19.82,,,2063736.0
1677485920.90625,43.54,,,2064602.0
1677485920.921875,64.14,,,2066582.0
1677485920.9375,81.59,,,2067826.0
1677485920.953125,95.93,,,2068978.0
1677485920.96875,107.05,,,2069820.0
1677485920.984375,114.7,,,2069804.0
1677485921.0,118.76,,,2069255.0
1677485921.015625,119.44,,,2067859.0
1677485921.03125,117.31,,,2066694.0
1677485921.046875,113.21,,,2067378.0
1677485921.0625,108.02,,,2068056.0
1677485921.078125,102.47,,,2068864.0
1677485921.09375,97.03,,,2069497.0
1677485921.109375,91.97,,,2069435.0
1677485921.125,87.44,,,2069918.0
1677485921.140625,83.5,,,2070781.0
1677485921.15625,80.13,,,2071294.0
1677485921.171875,77.17,,,2071719.0
1677485921.1875,74.28,,,2072497.0
1677485921.203125,71.07,,,2073510.0
1677485921.21875,67.29,,,2074033.0
1677485921.234375,62.96,,,2073437.0
1677485921.25,58.45,,,2072785.0
1677485921.265625,54.28,,,2071500.0
1677485921.28125,50.93,,,2070267.0
1677485921.296875,48.58,,,2070291.0
1677485921.3125,47.02,,,2070183.0
1677485921.328125,45.67,,,2070120.0
1677485921.34375,43.75,,,2069038.0
1677485921.359375,40.47,,,2068165.0
1677485921.375,35.31,,,2066222.0
1677485921.390625,28.27,,,2065706.0
1677485921.40625,20.05,,,2066696.0
1677485921.421875,12.1,,,2066600.0
1677485921.4375,6.34,,,2067024.0
1677485921.453125,4.68,,,2067395.0
1677485921.46875,8.4,,,2067718.0
1677485921.484375,17.6,,,2068343.0
1677485921.5,31.07,,,2068021.0
1677485921.515625,46.66,,,2066099.0
1677485921.53125,61.96,,,2064840.0
1677485921.546875,75.07,,,2063463.0
1677485921.5625,85.01,,,2062894.0
1677485921.578125,91.7,,,2063125.0
1677485921.59375,95.49,,,2062656.0
1677485921.609375,96.66,,,2062226.0
1677485921.625,94.94,,,2062422.0
1677485921.640625,89.57,,,2062003.0
1677485921.65625,79.57,,,2061951.0
1677485921.671875,64.32,,,2061851.0
1677485921.6875,43.99,,,2061859.0
1677485921.703125,19.62,,,2061699.0
1677485921.71875,-7.01,,,2061901.0
1677485921.734375,-33.81,,,2061997.0
1677485921.75,-58.87,,,2061284.0
1677485921.765625,-80.72,,,2059259.0
1677485921.78125,-98.45,,,2057484.0
1677485921.796875,-111.7,,,2057210.0
1677485921.8125,-120.52,,,2062170.0
1677485921.828125,-125.41,,,2065880.0
1677485921.84375,-127.21,,,2064475.0
1677485921.859375,-127.04,,,2055053.0
1677485921.875,-126.17,,,2052495.0
1677485921.890625,-125.65,,,2052794.0
1677485921.90625,-126.15,,,2053520.0
1677485921.921875,-127.8,,,2052721.0
1677485921.9375,-130.26,,,2052269.0
1677485921.953125,-132.96,,,2052464.0
1677485921.96875,-135.34,,,2053232.0
1677485921.984375,-137.04,,,2054330.0
1677485922.0,-138.0,,,2053483.0
1677485922.015625,-138.37,,,2053676.0
1677485922.03125,-138.49,,,2052929.0
1677485922.046875,-138.79,,,2050902.0
1677485922.0625,-139.66,,,2048879.0
1677485922.078125,-141.17,,,2048201.0
1677485922.09375,-142.82,,,2047082.0
1677485922.109375,-143.42,,,2047171.0
1677485922.125,-141.17,,,2047348.0
1677485922.140625,-134.1,,,2048718.0
1677485922.15625,-120.76,,,2049486.0
1677485922.171875,-100.73,,,2050759.0
1677485922.1875,-74.92,,,2051571.0
1677485922.203125,-45.27,,,2050397.0
1677485922.21875,-14.25,,,2048985.0
1677485922.234375,15.88,,,2048201.0
1677485922.25,43.54,,,2046256.0
1677485922.265625,67.85,,,2043939.0
1677485922.28125,88.41,,,2042196.0
1677485922.296875,104.97,,,2039973.0
1677485922.3125,117.24,,,2038933.0
1677485922.328125,124.9,,,2038076.0
1677485922.34375,127.98,,,2038108.0
1677485922.359375,127.03,,,2038193.0
1677485922.375,123.13,,,2037989.0
1677485922.390625,117.61,,,2037949.0
1677485922.40625,111.7,,,2037762.0
1677485922.421875,106.12,,,2038028.0
1677485922.4375,101.06,,,2038525.0
1677485922.453125,96.32,,,2039225.0
1677485922.46875,91.57,,,2040021.0
1677485922.484375,86.61,,,2040671.0
1677485922.5,81.46,,,2039763.0
1677485922.515625,76.23,,,2038234.0
1677485922.53125,71.08,,,2037172.0
1677485922.546875,66.08,,,2034703.0
1677485922.5625,61.29,,,2033008.0
1677485922.578125,56.72,,,2031238.0
1677485922.59375,52.33,,,2030625.0
1677485922.609375,48.03,,,2029837.0
1677485922.625,43.65,,,2030042.0
1677485922.640625,39.03,,,2032938.0
1677485922.65625,33.99,,,2034797.0
1677485922.671875,28.4,,,2035411.0
1677485922.6875,22.02,,,2035021.0
1677485922.703125,14.41,,,2034878.0
1677485922.71875,5.07,,,2034721.0
1677485922.734375,-6.33,,,2032946.0
1677485922.75,-19.49,,,2032620.0
1677485922.765625,-33.19,,,2032538.0
1677485922.78125,-45.33,,,2033136.0
1677485922.796875,-53.47,,,2033797.0
1677485922.8125,-55.65,,,2032612.0
1677485922.828125,-51.14,,,2031199.0
1677485922.84375,-40.73,,,2029844.0
1677485922.859375,-26.46,,,2028849.0
1677485922.875,-10.8,,,2028432.0
1677485922.890625,4.1,,,2028347.0
1677485922.90625,16.96,,,2028417.0
1677485922.921875,27.38,,,2028762.0
1677485922.9375,35.48,,,2029310.0
1677485922.953125,41.49,,,2030136.0
1677485922.96875,45.38,,,2030125.0
1677485922.984375,46.91,,,2030890.0
1677485923.0,45.87,,,2032195.0
1677485923.015625,42.36,,,2033997.0
1677485923.03125,36.91,,,2037240.0
1677485923.046875,30.44,,,2035210.0
1677485923.0625,23.94,,,2037721.0
1677485923.078125,18.17,,,2038162.0
1677485923.09375,13.4,,,2036928.0
1677485923.109375,9.45,,,2036819.0
1677485923.125,5.92,,,2035877.0
1677485923.140625,2.42,,,2035833.0
1677485923.15625,-1.27,,,2036580.0
1677485923.171875,-5.24,,,2036834.0
1677485923.1875,-9.55,,,2038085.0
1677485923.203125,-14.43,,,2038329.0
1677485923.21875,-20.23,,,2039212.0
1677485923.234375,-27.26,,,2040209.0
1677485923.25,-35.52,,,2041212.0
1677485923.265625,-44.59,,,2043065.0
1677485923.28125,-53.69,,,2044732.0
1677485923.296875,-62.04,,,2046690.0
1677485923.3125,-69.22,,,2048518.0
1677485923.328125,-75.38,,,2049613.0
1677485923.34375,-81.25,,,2049648.0
1677485923.359375,-87.79,,,2049272.0
1677485923.375,-95.83,,,2049074.0
1677485923.390625,-105.52,,,2048838.0
1677485923.40625,-116.05,,,2048869.0
1677485923.421875,-125.71,,,2048786.0
1677485923.4375,-132.18,,,2048756.0
1677485923.453125,-133.17,,,2049444.0
1677485923.46875,-127.05,,,2049515.0
1677485923.484375,-113.34,,,2049911.0
1677485923.5,-92.82,,,2050821.0
1677485923.515625,-67.29,,,2051445.0
1677485923.53125,-38.99,,,2052079.0
1677485923.546875,-10.08,,,2053144.0
1677485923.5625,17.85,,,2053777.0
1677485923.578125,43.81,,,2055256.0
1677485923.59375,67.37,,,2056140.0
1677485923.609375,88.3,,,2056682.0
1677485923.625,106.3,,,2056330.0
1677485923.640625,120.97,,,2055842.0
1677485923.65625,131.77,,,2055335.0
1677485923.671875,138.23,,,2055575.0
1677485923.6875,140.18,,,2054992.0
1677485923.703125,137.77,,,2055127.0
1677485923.71875,131.45,,,2055969.0
1677485923.734375,121.88,,,2056790.0
1677485923.75,109.73,,,2057240.0
1677485923.765625,95.65,,,2058027.0
1677485923.78125,80.26,,,2058751.0
1677485923.796875,64.11,,,2059365.0
1677485923.8125,47.72,,,2060942.0
1677485923.828125,31.52,,,2061854.0
1677485923.84375,15.85,,,2063120.0
1677485923.859375,0.94,,,2064057.0
1677485923.875,-13.07,,,2065831.0
1677485923.890625,-26.09,,,2066182.0
1677485923.90625,-37.97,,,2065508.0
1677485923.921875,-48.48,,,2064918.0
1677485923.9375,-57.34,,,2064242.0
1677485923.953125,-64.27,,,2063644.0
1677485923.96875,-69.06,,,2063518.0
1677485923.984375,-71.74,,,2064037.0
1677485924.0,-72.59,,,2063986.0
1677485924.015625,-72.26,,,2064042.0
1677485924.03125,-71.7,,,2064044.0
1677485924.046875,-71.99,,,2064540.0
1677485924.0625,-74.07,,,2064799.0
1677485924.078125,-78.5,,,2065652.0
1677485924.09375,-85.11,,,2066730.0
1677485924.109375,-92.84,,,2067540.0
1677485924.125,-99.85,,,2068645.0
1677485924.140625,-103.84,,,2069448.0
1677485924.15625,-102.63,,,2068535.0
1677485924.171875,-94.91,,,2067575.0
1677485924.1875,-80.67,,,2065338.0
1677485924.203125,-61.23,,,2062710.0
1677485924.21875,-38.86,,,2060727.0
1677485924.234375,-16.0,,,2058886.0
1677485924.25,5.41,,,2058740.0
1677485924.265625,24.25,,,2068734.0
1677485924.28125,40.22,,,2079818.0
1677485924.296875,53.46,,,2085265.0
1677485924.3125,64.14,,,2093516.0
1677485924.328125,72.3,,,2102631.0
1677485924.34375,77.8,,,2103496.0
1677485924.359375,80.56,,,2091500.0
1677485924.375,80.73,,,2089728.0
1677485924.390625,78.8,,,2089786.0
1677485924.40625,75.5,,,2093283.0
1677485924.421875,71.73,,,2094635.0
1677485924.4375,68.21,,,2092099.0
1677485924.453125,65.36,,,2090000.0
1677485924.46875,63.18,,,2089556.0
1677485924.484375,61.3,,,2089665.0
1677485924.5,59.14,,,2089521.0
1677485924.515625,56.19,,,2088104.0
1677485924.53125,52.29,,,2087367.0
1677485924.546875,47.62,,,2086621.0
1677485924.5625,42.52,,,2085459.0
1677485924.578125,37.31,,,2085143.0
1677485924.59375,31.93,,,2083814.0
1677485924.609375,26.03,,,2082949.0
1677485924.625,19.12,,,2081954.0
1677485924.640625,10.85,,,2080918.0
1677485924.65625,1.3,,,2078496.0
1677485924.671875,-9.05,,,2074970.0
1677485924.6875,-19.46,,,2071416.0
1677485924.703125,-29.27,,,2069122.0
1677485924.71875,-38.1,,,2067593.0
1677485924.734375,-45.97,,,2066881.0
1677485924.75,-53.23,,,2066186.0
1677485924.765625,-60.44,,,2065778.0
1677485924.78125,-68.17,,,2065372.0
1677485924.796875,-76.92,,,2065019.0
1677485924.8125,-86.92,,,2064975.0
1677485924.828125,-97.87,,,2064700.0
1677485924.84375,-108.76,,,2064697.0
1677485924.859375,-117.86,,,2064711.0
1677485924.875,-123.01,,,2064316.0
1677485924.890625,-122.26,,,2064550.0
1677485924.90625,-114.47,,,2063828.0
1677485924.921875,-99.81,,,2062838.0
1677485924.9375,-79.72,,,2059778.0
1677485924.953125,-56.46,,,2057353.0
1677485924.96875,-32.38,,,2055721.0
1677485924.984375,-9.34,,,2054221.0
1677485925.0,11.54,,,2053845.0
1677485925.015625,29.8,,,2053495.0
1677485925.03125,45.29,,,2052771.0
1677485925.046875,57.88,,,2052312.0
1677485925.0625,67.38,,,2051176.0
1677485925.078125,73.53,,,2048053.0
1677485925.09375,76.31,,,2044619.0
1677485925.109375,75.98,,,2042868.0
1677485925.125,73.15,,,2046674.0
1677485925.140625,68.64,,,2048895.0
1677485925.15625,63.35,,,2053568.0
1677485925.171875,58.06,,,2051119.0
1677485925.1875,53.31,,,2046211.0
1677485925.203125,49.33,,,2040427.0
1677485925.21875,46.1,,,2036260.0
1677485925.234375,43.37,,,2033998.0
1677485925.25,40.82,,,2033455.0
1677485925.265625,38.19,,,2034504.0
1677485925.28125,35.29,,,2035526.0
1677485925.296875,32.03,,,2036450.0
1677485925.3125,28.33,,,2037088.0
1677485925.328125,24.08,,,2038138.0
1677485925.34375,19.14,,,2038187.0
1677485925.359375,13.42,,,2039194.0
1677485925.375,7.03,,,2040360.0
1677485925.390625,0.27,,,2041561.0
1677485925.40625,-6.33,,,2042826.0
1677485925.421875,-12.16,,,2044297.0
1677485925.4375,-16.75,,,2044633.0
1677485925.453125,-19.95,,,2043641.0
1677485925.46875,-21.97,,,2041760.0
1677485925.484375,-23.43,,,2039496.0
1677485925.5,-25.1,,,2037955.0
1677485925.515625,-27.68,,,2035351.0
1677485925.53125,-31.56,,,2034193.0
1677485925.546875,-36.7,,,2032427.0
1677485925.5625,-42.7,,,2031429.0
1677485925.578125,-48.89,,,2030941.0
1677485925.59375,-54.53,,,2031038.0
1677485925.609375,-58.97,,,2030399.0
1677485925.625,-61.74,,,2030219.0
1677485925.640625,-62.5,,,2030787.0
1677485925.65625,-61.07,,,2030717.0
1677485925.671875,-57.37,,,2030611.0
1677485925.6875,-51.48,,,2030829.0
1677485925.703125,-43.63,,,2031299.0
1677485925.71875,-34.31,,,2029099.0
1677485925.734375,-24.14,,,2027063.0
1677485925.75,-13.9,,,2022054.0
1677485925.765625,-4.36,,,2024778.0
1677485925.78125,3.84,,,2020678.0
1677485925.796875,10.21,,,2019899.0
1677485925.8125,14.59,,,2019581.0
1677485925.828125,17.09,,,2017710.0
1677485925.84375,18.03,,,2016942.0
1677485925.859375,17.87,,,2016573.0
1677485925.875,17.12,,,2015035.0
1677485925.890625,16.21,,,2013284.0
1677485925.90625,15.37,,,2012585.0
1677485925.921875,14.67,,,2012925.0
1677485925.9375,13.9,,,2012539.0
1677485925.953125,12.78,,,2012415.0
1677485925.96875,11.04,,,2011342.0
1677485925.984375,8.66,,,2009780.0
1677485926.0,5.78,,,2006869.0
1677485926.015625,2.75,,,2004787.0
1677485926.03125,-0.17,,,2002670.0
1677485926.046875,-2.97,,,2002438.0
1677485926.0625,-5.92,,,2003093.0
1677485926.078125,-9.48,,,2003477.0
1677485926.09375,-14.07,,,2003862.0
1677485926.109375,-19.82,,,2004128.0
1677485926.125,-26.44,,,2004668.0
1677485926.140625,-33.38,,,2004711.0
1677485926.15625,-40.06,,,2005039.0
1677485926.171875,-46.09,,,2004943.0
1677485926.1875,-51.4,,,2004620.0
1677485926.203125,-56.2,,,2004910.0
1677485926.21875,-60.89,,,2005927.0
1677485926.234375,-66.05,,,2006660.0
1677485926.25,-72.31,,,2006901.0
1677485926.265625,-80.22,,,2006010.0
1677485926.28125,-89.87,,,2004589.0
1677485926.296875,-100.57,,,2002903.0
1677485926.3125,-110.64,,,2003258.0
1677485926.328125,-117.59,,,2003746.0
1677485926.34375,-118.87,,,2003826.0
1677485926.359375,-112.72,,,2003702.0
1677485926.375,-98.81,,,2004039.0
1677485926.390625,-78.45,,,2005761.0
1677485926.40625,-54.13,,,2006594.0
1677485926.421875,-28.61,,,2007215.0
1677485926.4375,-4.13,,,2004820.0
1677485926.453125,18.01,,,2003143.0
1677485926.46875,37.45,,,2008470.0
1677485926.484375,54.28,,,2010211.0
1677485926.5,68.54,,,2011140.0
1677485926.515625,79.97,,,2010324.0
1677485926.53125,88.08,,,2008635.0
1677485926.546875,92.49,,,2007021.0
1677485926.5625,93.29,,,2005232.0
1677485926.578125,91.2,,,2003902.0
1677485926.59375,87.41,,,2003326.0
1677485926.609375,83.2,,,2002374.0
1677485926.625,79.43,,,2002542.0
1677485926.640625,76.32,,,2002174.0
1677485926.65625,73.51,,,2002456.0
1677485926.671875,70.41,,,2002050.0
1677485926.6875,66.6,,,2002694.0
1677485926.703125,62.11,,,2003152.0
1677485926.71875,57.25,,,2004019.0
1677485926.734375,52.44,,,2004935.0
