timestamp,bvp,eda,temp,PPG GREEN
1534404559.5625,9.36,0.644582,31.95,1772574.0
1534404559.578125,9.46,0.653549,31.95,1769861.0
1534404559.59375,6.4,0.647144,31.95,1766495.0
1534404559.609375,1.09,0.647144,31.95,1762611.0
1534404559.625,-5.02,0.645863,31.95,1758858.0
1534404559.640625,-10.47,0.65483,31.95,1755754.0
1534404559.65625,-14.13,0.657392,31.97,1752693.0
1534404559.671875,-15.33,0.653549,31.97,1750371.0
1534404559.6875,-13.78,0.644582,31.97,1747762.0
1534404559.703125,-9.54,0.649706,31.97,1745492.0
1534404559.71875,-2.99,0.656111,31.95,1743393.0
1534404559.734375,5.04,0.662516,31.95,1741444.0
1534404559.75,13.28,0.666358,31.95,1739499.0
1534404559.765625,20.17,0.666358,31.95,1737055.0
1534404559.78125,24.21,0.663796,31.93,1733545.0
1534404559.796875,24.33,0.661235,31.93,1730393.0
1534404559.8125,20.27,0.662516,31.93,1728073.0
1534404559.828125,12.73,0.665077,31.93,1724914.0
1534404559.84375,3.17,0.667639,31.93,1721339.0
1534404559.859375,-6.43,0.665077,31.93,1719173.0
1534404559.875,-14.15,0.656111,31.93,1717444.0
1534404559.890625,-18.58,0.666358,31.93,1716105.0
1534404559.90625,-19.17,0.672763,31.93,1715221.0
1534404559.921875,-16.33,0.671482,31.93,1715209.0
1534404559.9375,-11.29,0.675325,31.93,1716072.0
1534404559.953125,-5.75,0.675325,31.93,1715684.0
1534404559.96875,-1.54,0.671482,31.91,1714290.0
1534404559.984375,-0.17,0.670201,31.91,1709382.0
1534404560.0,-2.53,0.671482,31.91,1705200.0
1534404560.015625,-8.53,0.676606,31.91,1699545.0
1534404560.03125,-17.15,0.674044,31.91,1693647.0
1534404560.046875,-26.57,0.677887,31.91,1690085.0
1534404560.0625,-34.77,0.675325,31.91,1689759.0
1534404560.078125,-40.22,0.674044,31.91,1688571.0
1534404560.09375,-42.44,0.676606,31.93,1687297.0
1534404560.109375,-42.1,0.680449,31.93,1686898.0
1534404560.125,-40.59,0.685573,31.93,1686400.0
1534404560.140625,-39.32,0.68173,31.93,1686019.0
1534404560.15625,-39.03,0.677887,31.91,1685010.0
1534404560.171875,-39.79,0.675325,31.91,1682924.0
1534404560.1875,-41.15,0.671482,31.91,1680258.0
1534404560.203125,-42.68,0.683011,31.91,1678202.0
1534404560.21875,-44.3,0.684292,31.91,1675957.0
1534404560.234375,-46.17,0.684292,31.91,1674348.0
1534404560.25,-48.38,0.68173,31.91,1672508.0
1534404560.265625,-50.67,0.680449,31.91,1670588.0
1534404560.28125,-52.33,0.679168,31.93,1669121.0
1534404560.296875,-52.65,0.684292,31.93,1668398.0
1534404560.3125,-51.23,0.685573,31.93,1668055.0
1534404560.328125,-48.32,0.684292,31.93,1667661.0
1534404560.34375,-44.8,0.685573,31.93,1667909.0
1534404560.359375,-41.88,0.680449,31.93,1666953.0
1534404560.375,-40.73,0.677887,31.93,1664552.0
1534404560.390625,-42.0,0.688134,31.93,1661531.0
1534404560.40625,-45.63,0.693258,31.89,1659176.0
1534404560.421875,-50.75,0.702225,31.89,1657907.0
1534404560.4375,-55.85,0.703506,31.89,1657678.0
1534404560.453125,-59.38,0.707349,31.89,1657033.0
1534404560.46875,-60.18,0.709911,31.91,1656809.0
1534404560.484375,-58.08,0.704787,31.91,1656759.0
1534404560.5,-53.92,0.707349,31.91,1656783.0
1534404560.515625,-49.08,0.704787,31.91,1657509.0
1534404560.53125,-44.73,0.712472,31.91,1658334.0
1534404560.546875,-41.07,0.709911,31.91,1658093.0
1534404560.5625,-37.0,0.711191,31.91,1657155.0
1534404560.578125,-30.48,0.707349,31.91,1655440.0
1534404560.59375,-19.18,0.711191,31.91,1653718.0
1534404560.609375,-1.33,0.715034,31.91,1652625.0
1534404560.625,23.69,0.709911,31.91,1652393.0
1534404560.640625,55.36,0.707349,31.91,1654370.0
1534404560.65625,92.29,0.69582,31.87,1656982.0
1534404560.671875,132.59,0.699663,31.87,1660148.0
1534404560.6875,174.45,0.703506,31.87,1663847.0
1534404560.703125,216.38,0.707349,31.87,1668153.0
1534404560.71875,257.43,0.709911,31.91,1672471.0
1534404560.734375,297.03,0.711191,31.91,1675690.0
1534404560.75,334.86,0.704787,31.91,1678101.0
1534404560.765625,370.47,0.704787,31.91,1678892.0
1534404560.78125,402.83,0.702225,31.91,1680045.0
1534404560.796875,430.0,0.709911,31.91,1681693.0
1534404560.8125,448.95,0.70863,31.91,1684695.0
1534404560.828125,455.78,0.706068,31.91,1688736.0
1534404560.84375,446.41,0.711191,31.91,1692135.0
1534404560.859375,417.99,0.707349,31.91,1696975.0
1534404560.875,370.4,0.709911,31.91,1701920.0
1534404560.890625,307.09,0.716315,31.91,1706416.0
1534404560.90625,234.66,0.72272,31.89,1711057.0
1534404560.921875,160.96,0.730406,31.89,1715050.0
1534404560.9375,92.53,0.729125,31.89,1717241.0
1534404560.953125,32.6,0.729125,31.89,1718061.0
1534404560.96875,-19.07,0.732968,31.89,1717554.0
1534404560.984375,-64.64,0.738091,31.89,1717964.0
1534404561.0,-105.75,0.745777,31.89,1717425.0
1534404561.015625,-141.78,0.750901,31.89,1717509.0
1534404561.03125,-170.0,0.74962,31.89,1717733.0
1534404561.046875,-187.34,0.747058,31.89,1717936.0
1534404561.0625,-192.7,0.750901,31.89,1718605.0
1534404561.078125,-188.11,0.753463,31.89,1719013.0
1534404561.09375,-178.02,0.756025,31.89,1719824.0
1534404561.109375,-167.13,0.761148,31.89,1721029.0
1534404561.125,-158.21,0.764991,31.89,1722088.0
1534404561.140625,-151.14,0.771396,31.89,1723265.0
1534404561.15625,-143.64,0.767553,31.87,1723816.0
1534404561.171875,-133.27,0.770115,31.87,1723301.0
1534404561.1875,-119.08,0.773958,31.87,1723204.0
1534404561.203125,-102.26,0.781643,31.87,1723079.0
1534404561.21875,-85.38,0.784205,31.87,1722972.0
1534404561.234375,-71.08,0.771396,31.87,1723507.0
1534404561.25,-60.67,0.771396,31.87,1724218.0
1534404561.265625,-53.68,0.77652,31.87,1725505.0
1534404561.28125,-48.53,0.775239,31.87,1726560.0
1534404561.296875,-43.62,0.780362,31.87,1727417.0
1534404561.3125,-38.29,0.782924,31.87,1729374.0
1534404561.328125,-33.08,0.786767,31.87,1731119.0
1534404561.34375,-29.19,0.79061,31.87,1733240.0
1534404561.359375,-27.53,0.782924,31.87,1735680.0
1534404561.375,-28.02,0.786767,31.87,1737482.0
1534404561.390625,-29.48,0.789329,31.87,1738667.0
1534404561.40625,-30.09,0.793172,31.89,1738841.0
1534404561.421875,-28.23,0.786767,31.89,1738941.0
1534404561.4375,-23.02,0.789329,31.89,1738844.0
1534404561.453125,-14.63,0.786767,31.89,1739356.0
1534404561.46875,-4.04,0.789329,31.87,1740570.0
1534404561.484375,7.36,0.786767,31.87,1741740.0
1534404561.5,18.21,0.789329,31.87,1743678.0
1534404561.515625,27.33,0.789329,31.87,1745194.0
1534404561.53125,33.74,0.786767,31.89,1747705.0
1534404561.546875,36.56,0.775239,31.89,1750364.0
1534404561.5625,34.96,0.773958,31.89,1752980.0
1534404561.578125,28.45,0.773958,31.89,1756147.0
1534404561.59375,17.23,0.781643,31.87,1758922.0
1534404561.609375,2.39,0.785486,31.87,1761954.0
1534404561.625,-14.2,0.788048,31.87,1764065.0
1534404561.640625,-30.33,0.789329,31.87,1765579.0
1534404561.65625,-44.02,0.791891,31.85,1765629.0
1534404561.671875,-54.07,0.788048,31.85,1765629.0
1534404561.6875,-60.12,0.788048,31.85,1766070.0
1534404561.703125,-62.48,0.780362,31.85,1768533.0
1534404561.71875,-61.8,0.788048,31.87,1772866.0
1534404561.734375,-58.84,0.789329,31.87,1778405.0
1534404561.75,-54.41,0.794453,31.87,1784309.0
1534404561.765625,-49.47,0.79061,31.87,1790314.0
1534404561.78125,-45.04,0.793172,31.87,1796765.0
1534404561.796875,-42.1,0.793172,31.87,1800005.0
1534404561.8125,-41.34,0.800858,31.87,1803382.0
1534404561.828125,-43.02,0.807262,31.87,1810842.0
1534404561.84375,-46.96,0.798296,31.87,1819846.0
1534404561.859375,-52.7,0.797015,31.87,1827158.0
1534404561.875,-59.59,0.802139,31.87,1834436.0
1534404561.890625,-66.8,0.80342,31.87,1840465.0
1534404561.90625,-73.28,0.808543,31.87,1847125.0
1534404561.921875,-77.92,0.821353,31.87,1853015.0
1534404561.9375,-79.76,0.826477,31.87,1858708.0
1534404561.953125,-78.32,0.823915,31.87,1864712.0
1534404561.96875,-73.79,0.825196,31.87,1870368.0
1534404561.984375,-66.94,0.822634,31.87,1875543.0
1534404562.0,-58.77,0.825196,31.87,1880179.0
1534404562.015625,-50.08,0.826477,31.87,1885663.0
1534404562.03125,-41.25,0.829038,31.85,1890738.0
1534404562.046875,-32.23,0.830319,31.85,1895844.0
1534404562.0625,-22.9,0.820072,31.85,1901092.0
1534404562.078125,-13.35,0.822634,31.85,1906064.0
1534404562.09375,-3.98,0.813667,31.87,1909415.0
1534404562.109375,4.63,0.812386,31.87,1911655.0
1534404562.125,12.03,0.813667,31.87,1914100.0
1534404562.140625,18.04,0.809824,31.87,1916327.0
1534404562.15625,22.8,0.805981,31.89,1918680.0
1534404562.171875,26.45,0.805981,31.89,1921024.0
1534404562.1875,28.98,0.808543,31.89,1923979.0
1534404562.203125,30.11,0.818791,31.89,1926326.0
1534404562.21875,29.5,0.825196,31.87,1928953.0
1534404562.234375,27.02,0.827757,31.87,1931118.0
1534404562.25,22.98,0.827757,31.87,1933663.0
1534404562.265625,18.04,0.822634,31.87,1935396.0
1534404562.28125,12.97,0.823915,31.87,1937668.0
1534404562.296875,8.35,0.81751,31.87,1939568.0
1534404562.3125,4.36,0.821353,31.87,1942159.0
1534404562.328125,0.85,0.821353,31.87,1943539.0
1534404562.34375,-2.5,0.820072,31.89,1943742.0
1534404562.359375,-5.95,0.814948,31.89,1942682.0
1534404562.375,-9.64,0.811105,31.89,1942625.0
1534404562.390625,-13.5,0.812386,31.89,1941942.0
1534404562.40625,-17.35,0.811105,31.87,1941914.0
1534404562.421875,-20.89,0.812386,31.87,1942025.0
1534404562.4375,-23.76,0.816229,31.87,1942853.0
1534404562.453125,-25.72,0.812386,31.87,1943608.0
1534404562.46875,-26.72,0.81751,31.87,1944866.0
1534404562.484375,-26.78,0.816229,31.87,1946010.0
1534404562.5,-25.7,0.818791,31.87,1946562.0
1534404562.515625,-22.79,0.81751,31.87,1947544.0
1534404562.53125,-17.1,0.822634,31.85,1947515.0
1534404562.546875,-7.9,0.822634,31.85,1946929.0
1534404562.5625,4.54,0.822634,31.85,1946735.0
1534404562.578125,18.66,0.826477,31.85,1946350.0
1534404562.59375,31.96,0.829038,31.87,1946013.0
1534404562.609375,42.08,0.829038,31.87,1946346.0
1534404562.625,48.0,0.832881,31.87,1947073.0
1534404562.640625,50.45,0.834162,31.87,1948392.0
1534404562.65625,51.49,0.829038,31.85,1949566.0
1534404562.671875,53.21,0.825196,31.85,1950930.0
1534404562.6875,56.52,0.823915,31.85,1952190.0
1534404562.703125,60.74,0.823915,31.85,1953750.0
1534404562.71875,64.19,0.827757,31.85,1955181.0
1534404562.734375,65.3,0.823915,31.85,1956736.0
1534404562.75,63.59,0.81751,31.85,1958352.0
1534404562.765625,59.79,0.81751,31.85,1959680.0
1534404562.78125,55.25,0.81751,31.85,1959626.0
1534404562.796875,51.07,0.818791,31.85,1959740.0
1534404562.8125,47.49,0.822634,31.85,1959876.0
1534404562.828125,43.87,0.823915,31.85,1959902.0
1534404562.84375,39.24,0.826477,31.87,1960529.0
1534404562.859375,32.89,0.822634,31.87,1962048.0
1534404562.875,24.82,0.823915,31.87,1971241.0
1534404562.890625,15.76,0.829038,31.87,1966473.0
1534404562.90625,6.85,0.825196,31.87,1969949.0
1534404562.921875,-0.97,0.827757,31.87,1970861.0
1534404562.9375,-7.28,0.832881,31.87,1970774.0
1534404562.953125,-12.41,0.829038,31.87,1970531.0
1534404562.96875,-17.11,0.836724,31.85,1971049.0
1534404562.984375,-22.15,0.832881,31.85,1968052.0
1534404563.0,-27.8,0.836724,31.85,1961231.0
1534404563.015625,-33.65,0.838005,31.85,1963389.0
1534404563.03125,-38.86,0.836724,31.85,1971794.0
1534404563.046875,-42.62,0.834162,31.85,1972151.0
1534404563.0625,-44.65,0.830319,31.85,1964704.0
1534404563.078125,-45.37,0.836724,31.85,1971353.0
1534404563.09375,-45.69,0.834162,31.87,1972840.0
1534404563.109375,-46.47,0.835443,31.87,1972840.0
1534404563.125,-48.0,0.834162,31.87,1973239.0
1534404563.140625,-49.83,0.8316,31.87,1960213.0
1534404563.15625,-50.98,0.8316,31.85,1974238.0
1534404563.171875,-50.39,0.826477,31.85,1975482.0
1534404563.1875,-47.5,0.827757,31.85,1976182.0
1534404563.203125,-42.5,0.832881,31.85,1977623.0
1534404563.21875,-36.18,0.836724,31.85,1978030.0
1534404563.234375,-29.62,0.848253,31.85,1978098.0
1534404563.25,-23.64,0.848253,31.85,1977287.0
1534404563.265625,-18.65,0.854657,31.85,1978247.0
1534404563.28125,-14.6,0.849534,31.85,1977498.0
1534404563.296875,-11.27,0.848253,31.85,1978956.0
1534404563.3125,-8.53,0.852095,31.85,1979848.0
1534404563.328125,-6.47,0.854657,31.85,1977364.0
1534404563.34375,-5.38,0.857219,31.85,1981525.0
1534404563.359375,-5.43,0.861062,31.85,1980451.0
1534404563.375,-6.61,0.867467,31.85,1983213.0
1534404563.390625,-8.58,0.876433,31.85,1985228.0
1534404563.40625,-10.85,0.884119,31.85,1986193.0
1534404563.421875,-12.89,0.891805,31.85,1985961.0
1534404563.4375,-14.36,0.896929,31.85,1983799.0
1534404563.453125,-15.12,0.896929,31.85,1982551.0
1534404563.46875,-15.23,0.914862,31.83,1985362.0
1534404563.484375,-14.9,0.914862,31.83,1984384.0
1534404563.5,-14.37,0.9392,31.83,1983902.0
1534404563.515625,-13.91,0.9392,31.83,1983671.0
1534404563.53125,-13.74,0.9392,31.85,1983723.0
1534404563.546875,-14.01,0.934076,31.85,1983722.0
1534404563.5625,-14.76,0.931514,31.85,1984007.0
1534404563.578125,-15.9,0.928952,31.85,1984546.0
1534404563.59375,-17.29,0.928952,31.85,1984893.0
1534404563.609375,-18.74,0.931514,31.85,1984788.0
1534404563.625,-19.99,0.919986,31.85,1984527.0
1534404563.640625,-20.74,0.928952,31.85,1985564.0
1534404563.65625,-20.71,0.923828,31.87,1986227.0
1534404563.671875,-19.68,0.922547,31.87,1984569.0
1534404563.6875,-17.62,0.930233,31.87,1985589.0
1534404563.703125,-14.73,0.934076,31.87,1983767.0
1534404563.71875,-11.38,0.935357,31.85,1982598.0
1534404563.734375,-7.97,0.934076,31.85,1982330.0
1534404563.75,-4.75,0.932795,31.85,1982594.0
1534404563.765625,-1.75,0.940481,31.85,1982697.0
1534404563.78125,1.15,0.943043,31.85,1982794.0
1534404563.796875,4.05,0.946885,31.85,1983224.0
1534404563.8125,6.94,0.95329,31.85,1983138.0
1534404563.828125,9.59,0.957133,31.85,1983177.0
1534404563.84375,11.74,0.957133,31.87,1983800.0
1534404563.859375,13.19,0.959695,31.87,1984295.0
1534404563.875,13.91,0.967381,31.87,1984282.0
1534404563.890625,14.08,0.964819,31.87,1983065.0
1534404563.90625,13.9,0.967381,31.83,1981235.0
1534404563.921875,13.51,0.967381,31.83,1979889.0
1534404563.9375,12.95,0.967381,31.83,1978553.0
1534404563.953125,12.12,0.969942,31.83,1977831.0
1534404563.96875,10.99,0.973785,31.85,1977539.0
1534404563.984375,9.61,0.978909,31.85,1976930.0
1534404564.0,8.2,0.987876,31.85,1976840.0
1534404564.015625,6.97,0.991718,31.85,1976871.0
1534404564.03125,6.14,0.99428,31.85,1976936.0
1534404564.046875,5.73,0.99428,31.85,1977408.0
1534404564.0625,5.61,0.999404,31.85,1977899.0
1534404564.078125,5.54,1.001966,31.85,1978471.0
1534404564.09375,5.23,1.000685,31.85,1978081.0
1534404564.109375,4.42,1.005809,31.85,1976247.0
1534404564.125,2.99,1.005809,31.85,1974161.0
1534404564.140625,0.96,1.003247,31.85,1972185.0
1534404564.15625,-1.43,1.008371,31.85,1971161.0
1534404564.171875,-3.75,1.003247,31.85,1970226.0
1534404564.1875,-5.43,1.005809,31.85,1969989.0
1534404564.203125,-5.97,1.008371,31.85,1969528.0
1534404564.21875,-5.08,1.009652,31.83,1969323.0
1534404564.234375,-2.85,1.009652,31.83,1969641.0
1534404564.25,0.31,1.005809,31.83,1969773.0
1534404564.265625,3.83,1.00709,31.83,1970043.0
1534404564.28125,7.33,1.009652,31.83,1970930.0
1534404564.296875,10.8,1.009652,31.83,1971702.0
1534404564.3125,14.63,1.014776,31.83,1971364.0
1534404564.328125,19.41,1.019899,31.83,1969942.0
1534404564.34375,25.49,1.018618,31.81,1967904.0
1534404564.359375,32.71,1.018618,31.81,1966107.0
1534404564.375,40.29,1.019899,31.81,1964763.0
1534404564.390625,47.09,1.023742,31.81,1963674.0
1534404564.40625,52.0,0.941831,31.87,1963101.0
1534404564.421875,54.44,0.948235,31.87,1962915.0
1534404564.4375,54.57,0.949516,31.87,1963027.0
1534404564.453125,53.11,0.950797,31.87,1963113.0
1534404564.46875,51.02,0.95464,31.83,1963824.0
1534404564.484375,48.98,0.949516,31.83,1964842.0
1534404564.5,47.17,0.945674,31.83,1965990.0
1534404564.515625,45.24,0.963607,31.83,1967146.0
1534404564.53125,42.53,0.972573,31.83,1966898.0
1534404564.546875,38.37,0.963607,31.83,1966898.0
1534404564.5625,32.37,0.964888,31.83,1965413.0
1534404564.578125,24.47,0.958483,31.83,1963976.0
1534404564.59375,15.01,0.961045,31.83,1962270.0
1534404564.609375,4.76,0.964888,31.83,1961360.0
1534404564.625,-5.26,0.96745,31.83,1961236.0
1534404564.640625,-13.95,0.971292,31.83,1961689.0
1534404564.65625,-20.44,0.973854,31.81,1961259.0
1534404564.671875,-24.33,0.968731,31.81,1960902.0
1534404564.6875,-25.83,0.970012,31.81,1961102.0
1534404564.703125,-25.65,0.970012,31.81,1961855.0
1534404564.71875,-24.65,0.976416,31.83,1963380.0
1534404564.734375,-23.52,0.987945,31.83,1964379.0
1534404564.75,-22.61,0.996911,31.83,1964653.0
1534404564.765625,-21.93,1.007159,31.83,1962620.0
1534404564.78125,-21.35,1.021249,31.83,1959388.0
1534404564.796875,-20.82,1.023811,31.83,1957038.0
1534404564.8125,-20.42,1.040463,31.83,1954808.0
1534404564.828125,-20.36,1.066082,31.83,1953829.0
1534404564.84375,-20.82,1.082735,31.83,1953052.0
1534404564.859375,-21.85,1.084016,31.83,1952130.0
1534404564.875,-23.23,1.09042,31.83,1952032.0
1534404564.890625,-24.54,1.089139,31.83,1951570.0
1534404564.90625,-25.24,1.086578,31.81,1951480.0
1534404564.921875,-24.87,1.091701,31.81,1952170.0
1534404564.9375,-23.24,1.10323,31.81,1953020.0
1534404564.953125,-20.65,1.101949,31.81,1953311.0
1534404564.96875,-17.86,1.096825,31.81,1953832.0
1534404564.984375,-15.83,1.100668,31.81,1952472.0
1534404565.0,-15.42,1.092982,31.81,1949843.0
1534404565.015625,-16.97,1.087858,31.81,1947350.0
1534404565.03125,-20.18,1.087858,31.83,1945167.0
1534404565.046875,-24.15,1.086578,31.83,1943371.0
1534404565.0625,-27.71,1.089139,31.83,1942965.0
1534404565.078125,-29.8,1.089139,31.83,1942220.0
1534404565.09375,-29.78,1.091701,31.79,1941612.0
1534404565.109375,-27.64,1.082735,31.79,1941616.0
1534404565.125,-23.98,1.073768,31.79,1941172.0
1534404565.140625,-19.72,1.07633,31.79,1941676.0
1534404565.15625,-15.62,1.080173,31.81,1941934.0
1534404565.171875,-11.88,1.087858,31.81,1942220.0
1534404565.1875,-7.94,1.09042,31.81,1942632.0
1534404565.203125,-2.77,1.099387,31.81,1940877.0
1534404565.21875,4.23,1.10323,31.79,1938534.0
1534404565.234375,12.59,1.110916,31.79,1936195.0
1534404565.25,20.57,1.113477,31.79,1934198.0
1534404565.265625,25.78,1.118601,31.79,1932781.0
1534404565.28125,26.42,1.126287,31.81,1931862.0
1534404565.296875,22.35,1.125006,31.81,1931603.0
1534404565.3125,15.37,1.13013,31.81,1931379.0
1534404565.328125,8.41,1.127568,31.81,1931414.0
1534404565.34375,4.05,1.132692,31.83,1931768.0
1534404565.359375,3.53,1.125006,31.83,1932203.0
1534404565.375,6.53,1.127568,31.83,1932807.0
1534404565.390625,11.82,1.132692,31.83,1933638.0
1534404565.40625,18.17,1.135253,31.79,1934282.0
1534404565.421875,24.83,1.132692,31.79,1933872.0
1534404565.4375,31.29,1.125006,31.79,1932057.0
1534404565.453125,36.85,1.125006,31.79,1930125.0
1534404565.46875,40.52,1.128849,31.79,1928759.0
1534404565.484375,41.43,1.137815,31.79,1927942.0
1534404565.5,39.52,1.141658,31.79,1927246.0
1534404565.515625,35.87,1.141658,31.79,1927438.0
1534404565.53125,32.3,1.139096,31.79,1927955.0
1534404565.546875,30.37,1.149344,31.79,1928363.0
1534404565.5625,30.39,1.140377,31.79,1929231.0
1534404565.578125,31.2,1.140377,31.79,1929912.0
1534404565.59375,30.8,1.148063,31.77,1930817.0
1534404565.609375,27.48,1.148063,31.77,1932029.0
1534404565.625,20.76,1.150625,31.77,1933707.0
1534404565.640625,11.6,1.153187,31.77,1933690.0
1534404565.65625,1.85,1.146782,31.81,1933079.0
1534404565.671875,-6.58,1.148063,31.81,1931593.0
1534404565.6875,-12.49,1.155749,31.81,1930585.0
1534404565.703125,-15.56,1.154468,31.81,1929038.0
1534404565.71875,-16.12,1.154468,31.77,1928748.0
1534404565.734375,-14.88,1.160872,31.77,1929165.0
1534404565.75,-12.59,1.176244,31.77,1930282.0
1534404565.765625,-9.98,1.181368,31.77,1931015.0
1534404565.78125,-7.69,1.186491,31.81,1931850.0
1534404565.796875,-6.39,1.187772,31.81,1932420.0
1534404565.8125,-6.6,1.195458,31.81,1933035.0
1534404565.828125,-8.49,1.210829,31.81,1934159.0
1534404565.84375,-11.78,1.21211,31.79,1934940.0
1534404565.859375,-15.72,1.201863,31.79,1934685.0
1534404565.875,-19.31,1.217234,31.79,1932594.0
1534404565.890625,-21.66,1.215953,31.79,1930643.0
1534404565.90625,-22.33,1.21211,31.77,1928863.0
1534404565.921875,-21.54,1.209548,31.77,1927432.0
1534404565.9375,-20.01,1.215953,31.77,1926705.0
1534404565.953125,-18.64,1.214672,31.77,1926089.0
1534404565.96875,-18.07,1.210829,31.79,1926217.0
1534404565.984375,-18.38,1.214672,31.79,1926910.0
1534404566.0,-19.08,1.219796,31.79,1927152.0
1534404566.015625,-19.34,1.227481,31.79,1927836.0
1534404566.03125,-18.43,1.237729,31.79,1928198.0
1534404566.046875,-16.06,1.262067,31.79,1929273.0
1534404566.0625,-12.47,1.267191,31.79,1930188.0
1534404566.078125,-8.29,1.274876,31.79,1930266.0
1534404566.09375,-4.27,1.274876,31.79,1929412.0
1534404566.109375,-0.95,1.276157,31.79,1927682.0
1534404566.125,1.44,1.286405,31.79,1926158.0
1534404566.140625,3.04,1.28,31.79,1925460.0
1534404566.15625,4.11,1.276157,31.79,1925346.0
1534404566.171875,4.9,1.29281,31.79,1925768.0
1534404566.1875,5.51,1.308181,31.79,1926384.0
1534404566.203125,5.85,1.305619,31.79,1927067.0
1534404566.21875,5.77,1.301776,31.77,1928444.0
1534404566.234375,5.1,1.299214,31.77,1929383.0
1534404566.25,3.81,1.294091,31.77,1930860.0
1534404566.265625,2.01,1.300495,31.77,1932113.0
1534404566.28125,-0.1,1.286405,31.77,1933801.0
1534404566.296875,-2.28,1.276157,31.77,1934203.0
1534404566.3125,-4.33,1.281281,31.77,1933474.0
1534404566.328125,-6.05,1.283843,31.77,1932186.0
1534404566.34375,-7.29,1.291529,31.77,1931133.0
1534404566.359375,-7.85,1.287686,31.77,1930322.0
1534404566.375,-7.58,1.290248,31.77,1930490.0
1534404566.390625,-6.44,1.288967,31.77,1931209.0
1534404566.40625,-4.66,1.288967,31.77,1932126.0
1534404566.421875,-2.7,1.272315,31.77,1933119.0
1534404566.4375,-1.16,1.281281,31.77,1934147.0
1534404566.453125,-0.62,1.269753,31.77,1935367.0
1534404566.46875,-1.4,1.271034,31.77,1936771.0
1534404566.484375,-3.5,1.29281,31.77,1938107.0
1534404566.5,-6.62,1.299214,31.77,1940037.0
1534404566.515625,-10.27,1.291529,31.77,1941002.0
1534404566.53125,-13.89,1.290248,31.77,1940410.0
1534404566.546875,-16.92,1.290248,31.77,1939209.0
1534404566.5625,-18.93,1.291529,31.77,1938343.0
1534404566.578125,-19.62,1.297934,31.77,1937518.0
1534404566.59375,-18.9,1.291529,31.77,1937731.0
1534404566.609375,-16.92,1.290248,31.77,1938603.0
1534404566.625,-14.06,1.290248,31.77,1939987.0
1534404566.640625,-10.73,1.287686,31.77,1941192.0
1534404566.65625,-7.27,1.303057,31.77,1942782.0
1534404566.671875,-3.85,1.3069,31.77,1944003.0
1534404566.6875,-0.44,1.31971,31.77,1944969.0
1534404566.703125,2.99,1.328676,31.77,1946443.0
1534404566.71875,6.44,1.337643,31.77,1947983.0
1534404566.734375,9.74,1.342767,31.77,1948410.0
1534404566.75,12.58,1.344048,31.77,1947392.0
1534404566.765625,14.64,1.336362,31.77,1945950.0
1534404566.78125,15.72,1.327395,31.75,1945082.0
1534404566.796875,15.73,1.359419,31.75,1943743.0
1534404566.8125,14.77,1.361981,31.75,1943521.0
1534404566.828125,13.1,1.363262,31.75,1943384.0
1534404566.84375,11.07,1.353014,31.79,1943864.0
1534404566.859375,9.09,1.350452,31.79,1944615.0
1534404566.875,7.55,1.350452,31.79,1945312.0
1534404566.890625,6.79,1.346609,31.79,1946435.0
1534404566.90625,6.89,1.350452,31.77,1947630.0
1534404566.921875,7.73,1.351733,31.77,1948642.0
1534404566.9375,8.92,1.3338,31.77,1949861.0
1534404566.953125,9.99,1.324833,31.77,1949927.0
1534404566.96875,10.56,1.340205,31.77,1948542.0
1534404566.984375,10.46,1.340205,31.77,1947427.0
1534404567.0,9.84,1.342767,31.77,1945659.0
1534404567.015625,9.03,1.350452,31.77,1945131.0
1534404567.03125,8.41,1.349171,31.75,1944626.0
1534404567.046875,8.21,1.346609,31.75,1944571.0
1534404567.0625,8.5,1.341486,31.75,1945010.0
1534404567.078125,9.15,1.341486,31.75,1945142.0
1534404567.09375,9.96,1.324833,31.75,1945620.0
1534404567.109375,10.71,1.320991,31.75,1946702.0
1534404567.125,11.3,1.344048,31.75,1947224.0
1534404567.140625,11.69,1.346609,31.75,1948116.0
1534404567.15625,11.91,1.34789,31.75,1948537.0
1534404567.171875,12.09,1.3607,31.75,1948424.0
1534404567.1875,12.45,1.376071,31.75,1946917.0
1534404567.203125,13.32,1.391443,31.75,1945645.0
1534404567.21875,15.07,1.409376,31.75,1944276.0
1534404567.234375,17.94,1.410657,31.75,1943271.0
1534404567.25,21.94,1.417061,31.75,1943182.0
1534404567.265625,26.7,1.429871,31.75,1943776.0
1534404567.28125,31.54,1.443961,31.75,1944214.0
1534404567.296875,35.72,1.446523,31.75,1945708.0
1534404567.3125,38.56,1.447804,31.75,1944893.0
1534404567.328125,39.66,1.443961,31.75,1946538.0
1534404567.34375,38.82,1.451647,31.75,1947805.0
1534404567.359375,35.98,1.450366,31.75,1949035.0
1534404567.375,31.07,1.446523,31.75,1950278.0
1534404567.390625,24.17,1.438838,31.75,1950208.0
1534404567.40625,15.67,1.426028,31.75,1948996.0
1534404567.421875,6.41,1.426028,31.75,1947673.0
1534404567.4375,-2.38,1.443961,31.75,1946347.0
1534404567.453125,-9.47,1.458052,31.75,1945331.0
1534404567.46875,-14.05,1.478547,31.75,1945485.0
1534404567.484375,-16.17,1.451746,31.75,1949994.0
1534404567.5,-16.57,1.460713,31.75,1950417.0
1534404567.515625,-16.38,1.473522,31.75,1951344.0
1534404567.53125,-16.58,1.460713,31.73,1948720.0
1534404567.546875,-17.6,1.451746,31.73,1952285.0
1534404567.5625,-19.39,1.478646,31.73,1953418.0
1534404567.578125,-21.69,1.48377,31.73,1953995.0
1534404567.59375,-24.36,1.48377,31.75,1947789.0
1534404567.609375,-27.43,1.476084,31.75,1946650.0
1534404567.625,-30.93,1.477365,31.75,1952684.0
1534404567.640625,-34.53,1.487612,31.75,1950924.0
1534404567.65625,-37.49,1.488893,31.75,1949008.0
1534404567.671875,-39.02,1.473522,31.75,1947439.0
1534404567.6875,-38.71,1.472241,31.75,1947251.0
1534404567.703125,-36.94,1.486332,31.75,1947065.0
1534404567.71875,-34.77,1.479927,31.73,1947333.0
1534404567.734375,-33.41,1.481208,31.73,1947298.0
1534404567.75,-33.41,1.482489,31.73,1947587.0
1534404567.765625,-34.25,1.485051,31.73,1946983.0
1534404567.78125,-34.49,1.491455,31.75,1948100.0
1534404567.796875,-32.36,1.500422,31.75,1948607.0
1534404567.8125,-26.78,1.496579,31.75,1949279.0
1534404567.828125,-17.92,1.477365,31.75,1948287.0
1534404567.84375,-7.13,1.487612,31.75,1946747.0
1534404567.859375,3.62,1.494017,31.75,1944071.0
1534404567.875,12.73,1.496579,31.75,1941842.0
1534404567.890625,19.44,1.509389,31.75,1940408.0
1534404567.90625,23.97,1.515793,31.75,1939015.0
1534404567.921875,26.87,1.528603,31.75,1938745.0
1534404567.9375,28.49,1.532446,31.75,1938132.0
1534404567.953125,28.75,1.53885,31.75,1938037.0
1534404567.96875,27.5,1.519636,31.73,1938168.0
1534404567.984375,24.96,1.53885,31.73,1938201.0
1534404568.0,22.06,1.552941,31.73,1938696.0
1534404568.015625,20.12,1.556784,31.73,1939112.0
1534404568.03125,20.15,1.556784,31.75,1939917.0
1534404568.046875,22.17,1.555503,31.75,1939584.0
1534404568.0625,25.13,1.554222,31.75,1935702.0
1534404568.078125,27.44,1.555503,31.75,1937962.0
1534404568.09375,27.85,1.554222,31.73,1933506.0
1534404568.109375,26.14,1.550379,31.73,1931898.0
1534404568.125,23.1,1.555503,31.73,1930697.0
1534404568.140625,19.94,1.550379,31.73,1930382.0
1534404568.15625,17.48,1.563188,31.73,1930457.0
1534404568.171875,15.77,1.563188,31.73,1930176.0
1534404568.1875,14.13,1.568312,31.73,1930410.0
1534404568.203125,11.73,1.572155,31.73,1930551.0
1534404568.21875,8.06,1.567031,31.75,1931361.0
1534404568.234375,3.16,1.563188,31.75,1931939.0
1534404568.25,-2.56,1.55166,31.75,1932739.0
1534404568.265625,-8.6,1.526041,31.75,1932485.0
1534404568.28125,-14.57,1.549098,31.73,1933821.0
1534404568.296875,-20.16,1.555503,31.73,1928879.0
1534404568.3125,-25.12,1.560626,31.73,1930849.0
1534404568.328125,-29.09,1.573436,31.73,1926611.0
1534404568.34375,-31.72,1.584964,31.73,1927238.0
1534404568.359375,-32.71,1.59265,31.73,1926695.0
1534404568.375,-32.01,1.597774,31.73,1926407.0
1534404568.390625,-29.86,1.584964,31.73,1926869.0
1534404568.40625,-26.76,1.582402,31.73,1927178.0
1534404568.421875,-23.3,1.570874,31.73,1927641.0
1534404568.4375,-20.01,1.597774,31.73,1928801.0
1534404568.453125,-17.19,1.605459,31.73,1930396.0
1534404568.46875,-14.9,1.608021,31.73,1931858.0
1534404568.484375,-13.06,1.609302,31.73,1933090.0
1534404568.5,-11.54,1.611864,31.73,1933006.0
1534404568.515625,-10.24,1.623393,31.73,1931344.0
1534404568.53125,-9.18,1.627236,31.75,1930299.0
1534404568.546875,-8.32,1.632359,31.75,1929371.0
1534404568.5625,-7.64,1.628516,31.75,1928777.0
1534404568.578125,-7.07,1.623393,31.75,1928679.0
1534404568.59375,-6.53,1.643888,31.75,1929268.0
1534404568.609375,-5.96,1.640045,31.75,1929471.0
1534404568.625,-5.37,1.647731,31.75,1929858.0
1534404568.640625,-4.81,1.651574,31.75,1930907.0
1534404568.65625,-4.37,1.651574,31.75,1931388.0
1534404568.671875,-4.14,1.652854,31.75,1932293.0
1534404568.6875,-4.21,1.651574,31.75,1933535.0
1534404568.703125,-4.6,1.636202,31.75,1934367.0
1534404568.71875,-5.29,1.625955,31.73,1934331.0
1534404568.734375,-6.2,1.637483,31.73,1932374.0
1534404568.75,-7.18,1.643888,31.73,1930537.0
1534404568.765625,-8.08,1.641326,31.73,1929396.0
1534404568.78125,-8.8,1.645169,31.73,1928172.0
1534404568.796875,-9.29,1.645169,31.73,1927749.0
1534404568.8125,-9.59,1.641326,31.73,1927737.0
1534404568.828125,-9.75,1.63364,31.73,1928263.0
1534404568.84375,-9.82,1.616988,31.75,1928703.0
1534404568.859375,-9.78,1.620831,31.75,1929201.0
1534404568.875,-9.55,1.616988,31.75,1929892.0
1534404568.890625,-8.98,1.643888,31.75,1930964.0
1534404568.90625,-7.96,1.645169,31.73,1931868.0
1534404568.921875,-6.44,1.641326,31.73,1933380.0
1534404568.9375,-4.5,1.641326,31.73,1933886.0
1534404568.953125,-2.31,1.638764,31.73,1932984.0
1534404568.96875,-0.1,1.651574,31.73,1931064.0
1534404568.984375,1.96,1.647731,31.73,1929662.0
1534404569.0,3.79,1.642607,31.73,1928251.0
1534404569.015625,5.4,1.637483,31.73,1927473.0
1534404569.03125,6.82,1.64645,31.75,1927553.0
1534404569.046875,8.0,1.64645,31.75,1928082.0
1534404569.0625,8.82,1.647731,31.75,1928280.0
1534404569.078125,9.08,1.64645,31.75,1928980.0
1534404569.09375,8.71,1.654135,31.73,1930105.0
1534404569.109375,7.79,1.656697,31.73,1931248.0
1534404569.125,6.64,1.656697,31.73,1932061.0
1534404569.140625,5.61,1.63364,31.73,1933782.0
1534404569.15625,5.02,1.647731,31.71,1935026.0
1534404569.171875,4.91,1.649012,31.71,1935309.0
1534404569.1875,5.16,1.659259,31.71,1934164.0
1534404569.203125,5.45,1.659259,31.71,1932440.0
1534404569.21875,5.58,1.656697,31.73,1930613.0
1534404569.234375,5.43,1.656697,31.73,1928885.0
1534404569.25,5.1,1.652854,31.73,1928468.0
1534404569.265625,4.7,1.652854,31.73,1928301.0
1534404569.28125,4.32,1.655416,31.73,1928646.0
1534404569.296875,3.91,1.654135,31.73,1929111.0
1534404569.3125,3.39,1.657978,31.73,1929796.0
1534404569.328125,2.63,1.696407,31.73,1930603.0
1534404569.34375,1.62,1.707935,31.73,1931347.0
1534404569.359375,0.38,1.711778,31.73,1932863.0
1534404569.375,-1.03,1.715621,31.73,1934170.0
1534404569.390625,-2.53,1.719464,31.73,1935618.0
1534404569.40625,-3.98,1.723306,31.71,1935611.0
1534404569.421875,-5.21,1.729711,31.71,1934710.0
1534404569.4375,-5.92,1.72843,31.71,1933256.0
1534404569.453125,-5.84,1.697688,31.71,1932259.0
1534404569.46875,-4.8,1.707935,31.73,1931815.0
1534404569.484375,-2.88,1.709216,31.73,1932219.0
1534404569.5,-0.4,1.71434,31.73,1932119.0
1534404569.515625,2.19,1.713059,31.73,1932801.0
1534404569.53125,4.53,1.724587,31.75,1933352.0
1534404569.546875,6.49,1.720745,31.75,1933890.0
1534404569.5625,8.17,1.720745,31.75,1934622.0
1534404569.578125,9.77,1.718183,31.75,1935464.0
1534404569.59375,11.38,1.716902,31.71,1936992.0
1534404569.609375,12.88,1.71434,31.71,1938629.0
1534404569.625,13.91,1.697688,31.71,1940166.0
1534404569.640625,14.13,1.720745,31.71,1939931.0
1534404569.65625,13.38,1.723306,31.71,1939206.0
1534404569.671875,11.84,1.727149,31.71,1938889.0
1534404569.6875,9.97,1.72843,31.71,1938119.0
1534404569.703125,8.32,1.720745,31.71,1938421.0
1534404569.71875,7.33,1.725868,31.73,1938719.0
1534404569.734375,7.15,1.74124,31.73,1939440.0
1534404569.75,7.59,1.756611,31.73,1940411.0
1534404569.765625,8.25,1.765578,31.73,1941197.0
1534404569.78125,8.69,1.775825,31.73,1942189.0
1534404569.796875,8.6,1.748925,31.73,1943618.0
1534404569.8125,7.9,1.793758,31.73,1945333.0
1534404569.828125,6.62,1.784792,31.73,1947171.0
1534404569.84375,4.94,1.778387,31.73,1948443.0
1534404569.859375,2.94,1.766859,31.73,1948387.0
1534404569.875,0.62,1.769421,31.73,1947811.0
1534404569.890625,-2.01,1.763016,31.73,1946477.0
1534404569.90625,-4.98,1.757892,31.71,1945827.0
1534404569.921875,-8.22,1.750206,31.71,1945562.0
1534404569.9375,-11.62,1.756611,31.71,1945780.0
1534404569.953125,-14.88,1.736116,31.71,1946413.0
1534404569.96875,-17.64,1.763016,31.71,1947403.0
1534404569.984375,-19.41,1.765578,31.71,1948266.0
1534404570.0,-19.67,1.766859,31.71,1949166.0
1534404570.015625,-18.08,1.765578,31.71,1950510.0
1534404570.03125,-14.65,1.760454,31.73,1951634.0
1534404570.046875,-9.84,1.756611,31.73,1953181.0
1534404570.0625,-4.56,1.75533,31.73,1954626.0
1534404570.078125,0.17,1.754049,31.73,1954716.0
1534404570.09375,3.49,1.746364,31.71,1953509.0
1534404570.109375,5.01,1.745082,31.71,1952109.0
1534404570.125,4.87,1.754049,31.71,1950617.0
1534404570.140625,3.52,1.760454,31.71,1949873.0
1534404570.15625,1.44,1.759173,31.71,1949303.0
1534404570.171875,-0.98,1.764297,31.71,1949335.0
1534404570.1875,-3.48,1.768139,31.71,1949575.0
1534404570.203125,-5.83,1.771982,31.71,1949872.0
1534404570.21875,-7.82,1.783511,31.73,1950432.0
1534404570.234375,-9.42,1.78223,31.73,1951154.0
1534404570.25,-10.98,1.754049,31.73,1952639.0
1534404570.265625,-13.2,1.775825,31.73,1953853.0
1534404570.28125,-16.71,1.777106,31.71,1955307.0
1534404570.296875,-21.46,1.773263,31.71,1955650.0
1534404570.3125,-26.2,1.774544,31.71,1954230.0
1534404570.328125,-28.7,1.779668,31.71,1952523.0
1534404570.34375,-26.71,1.779668,31.71,1950680.0
1534404570.359375,-19.15,1.777106,31.71,1949043.0
1534404570.375,-6.88,1.752768,31.71,1948276.0
1534404570.390625,7.55,1.743802,31.71,1947812.0
1534404570.40625,21.1,1.757892,31.71,1947523.0
1534404570.421875,31.64,1.771982,31.71,1947081.0
1534404570.4375,38.67,1.780949,31.71,1946582.0
1534404570.453125,42.99,1.784792,31.71,1946758.0
1534404570.46875,45.75,1.784792,31.73,1947288.0
1534404570.484375,47.36,1.78223,31.73,1947708.0
1534404570.5,47.42,1.761735,31.73,1948372.0
1534404570.515625,45.14,1.734835,31.73,1948756.0
1534404570.53125,40.23,1.773263,31.71,1948132.0
1534404570.546875,33.27,1.777106,31.71,1946155.0
1534404570.5625,25.55,1.789916,31.71,1944535.0
1534404570.578125,18.42,1.797601,31.71,1942879.0
1534404570.59375,12.68,1.800163,31.73,1942094.0
1534404570.609375,8.42,1.800163,31.73,1942087.0
1534404570.625,5.36,1.802725,31.73,1941947.0
1534404570.640625,3.26,1.814254,31.73,1942350.0
1534404570.65625,2.06,1.825782,31.71,1943090.0
1534404570.671875,1.8,1.837311,31.71,1943956.0
1534404570.6875,2.37,1.824501,31.71,1944676.0
1534404570.703125,3.38,1.851401,31.71,1946036.0
1534404570.71875,4.33,1.847558,31.73,1947362.0
1534404570.734375,4.73,1.847558,31.73,1948956.0
1534404570.75,4.38,1.841153,31.73,1949005.0
1534404570.765625,3.29,1.839872,31.73,1948212.0
1534404570.78125,1.54,1.842434,31.75,1946568.0
1534404570.796875,-0.73,1.837311,31.75,1945575.0
1534404570.8125,-3.42,1.810411,31.75,1944633.0
1534404570.828125,-6.39,1.821939,31.75,1944787.0
1534404570.84375,-9.43,1.821939,31.73,1944894.0
1534404570.859375,-12.3,1.824501,31.73,1945874.0
1534404570.875,-14.75,1.834749,31.73,1946363.0
1534404570.890625,-16.63,1.846277,31.73,1947366.0
1534404570.90625,-17.95,1.853963,31.73,1948372.0
1534404570.921875,-18.78,1.859087,31.73,1949315.0
1534404570.9375,-19.25,1.861649,31.73,1950551.0
1534404570.953125,-19.46,1.862929,31.73,1952058.0
1534404570.96875,-19.49,1.844996,31.71,1952239.0
1534404570.984375,-19.44,1.838592,31.71,1950791.0
1534404571.0,-19.42,1.865491,31.71,1949341.0
1534404571.015625,-19.55,1.862929,31.71,1947512.0
1534404571.03125,-19.9,1.860368,31.73,1946735.0
1534404571.046875,-20.44,1.848839,31.73,1946831.0
1534404571.0625,-21.03,1.844996,31.73,1947495.0
1534404571.078125,-21.42,1.853963,31.73,1948482.0
1534404571.09375,-21.35,1.851401,31.71,1949048.0
1534404571.109375,-20.56,1.828344,31.71,1949715.0
1534404571.125,-18.93,1.855244,31.71,1950316.0
1534404571.140625,-16.45,1.857806,31.71,1951212.0
1534404571.15625,-13.24,1.861649,31.71,1951895.0
1534404571.171875,-9.54,1.856525,31.71,1952443.0
1534404571.1875,-5.63,1.861649,31.71,1952892.0
1534404571.203125,-1.77,1.860368,31.71,1951643.0
1534404571.21875,1.84,1.868053,31.75,1949710.0
1534404571.234375,5.03,1.853963,31.75,1948186.0
1534404571.25,7.63,1.865491,31.75,1946736.0
1534404571.265625,9.48,1.86421,31.75,1946612.0
1534404571.28125,10.45,1.86421,31.73,1946770.0
1534404571.296875,10.52,1.866772,31.73,1946857.0
1534404571.3125,9.82,1.866772,31.73,1946891.0
1534404571.328125,8.6,1.868053,31.73,1946751.0
1534404571.34375,7.14,1.869334,31.73,1947100.0
1534404571.359375,5.69,1.892391,31.73,1947412.0
1534404571.375,4.33,1.865491,31.73,1948308.0
1534404571.390625,3.1,1.871896,31.73,1949380.0
1534404571.40625,1.93,1.873177,31.73,1949706.0
1534404571.421875,0.85,1.865491,31.73,1948347.0
1534404571.4375,-0.03,1.871896,31.73,1946354.0
1534404571.453125,-0.6,1.868053,31.73,1944001.0
1534404571.46875,-0.72,1.865491,31.73,1942156.0
1534404571.484375,-0.31,1.860368,31.73,1940511.0
1534404571.5,0.59,1.866772,31.73,1939877.0
1534404571.515625,1.77,1.839872,31.73,1939518.0
1534404571.53125,2.89,1.874458,31.71,1939065.0
1534404571.546875,3.53,1.873177,31.71,1938953.0
1534404571.5625,3.32,1.875739,31.71,1938990.0
1534404571.578125,2.09,1.87702,31.71,1939710.0
1534404571.59375,-0.02,1.868053,31.73,1940202.0
1534404571.609375,-2.61,1.86421,31.73,1941248.0
1534404571.625,-5.08,1.869334,31.73,1942341.0
1534404571.640625,-6.87,1.871896,31.73,1942709.0
1534404571.65625,-7.61,1.873177,31.73,1941659.0
1534404571.671875,-7.24,1.853963,31.73,1939498.0
1534404571.6875,-5.93,1.87702,31.73,1936928.0
1534404571.703125,-3.98,1.871896,31.73,1935347.0
1534404571.71875,-1.69,1.869334,31.71,1934071.0
1534404571.734375,0.75,1.869334,31.71,1933885.0
1534404571.75,3.21,1.874458,31.71,1933961.0
1534404571.765625,5.59,1.875739,31.71,1939664.0
1534404571.78125,7.73,1.873177,31.73,1940546.0
1534404571.796875,9.43,1.868053,31.73,1935836.0
1534404571.8125,10.54,1.834749,31.73,1936835.0
1534404571.828125,11.04,1.860368,31.73,1934125.0
1534404571.84375,11.04,1.862929,31.71,1934720.0
1534404571.859375,10.78,1.860368,31.71,1935287.0
1534404571.875,10.47,1.866772,31.71,1939639.0
1534404571.890625,10.17,1.873177,31.71,1938007.0
1534404571.90625,9.78,1.884706,31.73,1938699.0
1534404571.921875,9.14,1.888548,31.73,1937195.0
1534404571.9375,8.14,1.87702,31.73,1935880.0
1534404571.953125,6.82,1.871896,31.73,1935884.0
1534404571.96875,5.39,1.923134,31.75,1936017.0
1534404571.984375,4.13,1.942348,31.75,1939223.0
1534404572.0,3.27,1.929738,31.75,1938140.0
1534404572.015625,2.92,1.9323,31.75,1940517.0
1534404572.03125,3.1,1.933581,31.73,1941719.0
1534404572.046875,3.67,1.927176,31.73,1942951.0
1534404572.0625,4.44,1.927176,31.73,1943910.0
1534404572.078125,5.26,1.916928,31.73,1944107.0
1534404572.09375,5.99,1.916928,31.73,1942751.0
1534404572.109375,6.5,1.928457,31.73,1937219.0
1534404572.125,6.7,1.928457,31.73,1941274.0
1534404572.140625,6.55,1.934862,31.73,1939401.0
1534404572.15625,5.98,1.9323,31.73,1938667.0
1534404572.171875,5.06,1.923333,31.73,1936968.0
1534404572.1875,3.94,1.920771,31.73,1938173.0
1534404572.203125,2.92,1.916928,31.73,1938707.0
1534404572.21875,2.41,1.918209,31.73,1939424.0
1534404572.234375,2.77,1.906681,31.73,1940108.0
1534404572.25,4.18,1.920771,31.73,1941287.0
1534404572.265625,6.63,1.91949,31.73,1942495.0
1534404572.28125,9.85,1.910524,31.75,1943657.0
1534404572.296875,13.48,1.909243,31.75,1945205.0
1534404572.3125,17.17,1.910524,31.75,1942220.0
1534404572.328125,20.68,1.915648,31.75,1940499.0
1534404572.34375,23.86,1.923333,31.73,1939505.0
1534404572.359375,26.52,1.929738,31.73,1946352.0
1534404572.375,28.49,1.897714,31.73,1947163.0
1534404572.390625,29.52,1.918209,31.73,1939037.0
1534404572.40625,29.41,1.922052,31.73,1939231.0
1534404572.421875,28.18,1.923333,31.73,1939052.0
1534404572.4375,25.98,1.931019,31.73,1944126.0
1534404572.453125,23.1,1.931019,31.73,1946285.0
1534404572.46875,19.79,1.934862,31.73,1939728.0
1534404572.484375,16.18,1.936143,31.73,1940144.0
1534404572.5,12.27,1.952795,31.73,1941497.0
1534404572.515625,8.08,1.948952,31.73,1942620.0
1534404572.53125,3.75,1.957919,31.73,1943878.0
1534404572.546875,-0.42,1.947671,31.73,1945070.0
1534404572.5625,-4.0,1.941266,31.73,1944099.0
1534404572.578125,-6.69,1.94639,31.73,1942012.0
1534404572.59375,-8.38,1.947671,31.75,1939878.0
1534404572.609375,-9.2,1.942547,31.75,1938588.0
1534404572.625,-9.45,1.916928,31.75,1937601.0
1534404572.640625,-9.48,1.913086,31.75,1937349.0
1534404572.65625,-9.6,1.9323,31.71,1937726.0
1534404572.671875,-10.05,1.9323,31.71,1937125.0
1534404572.6875,-10.98,1.941266,31.71,1938077.0
1534404572.703125,-12.45,1.948952,31.71,1939103.0
1534404572.71875,-14.33,1.945109,31.73,1939739.0
1534404572.734375,-16.28,1.938704,31.73,1941949.0
1534404572.75,-17.77,1.937424,31.73,1940889.0
1534404572.765625,-18.35,1.914367,31.73,1943269.0
1534404572.78125,-17.87,1.948952,31.71,1943565.0
1534404572.796875,-16.67,1.943828,31.71,1939366.0
1534404572.8125,-15.39,1.955357,31.71,1937607.0
1534404572.828125,-14.67,1.955357,31.71,1936346.0
1534404572.84375,-14.78,1.957919,31.71,1935816.0
1534404572.859375,-15.38,1.955357,31.71,1941800.0
1534404572.875,-15.76,1.955357,31.71,1936029.0
1534404572.890625,-15.28,1.957919,31.71,1936590.0
1534404572.90625,-13.73,1.947671,31.75,1936734.0
1534404572.921875,-11.5,1.950233,31.75,1937637.0
1534404572.9375,-9.44,1.970728,31.75,1939312.0
1534404572.953125,-8.39,1.972009,31.75,1938046.0
1534404572.96875,-8.66,1.97329,31.73,1940567.0
1534404572.984375,-10.01,1.979695,31.73,1941658.0
1534404573.0,-11.66,1.998909,31.73,1942904.0
1534404573.015625,-12.85,2.00019,31.73,1941743.0
1534404573.03125,-13.23,2.007876,31.73,1940055.0
1534404573.046875,-13.12,2.007876,31.73,1938078.0
1534404573.0625,-13.43,1.986099,31.73,1936546.0
1534404573.078125,-15.21,2.005314,31.73,1936256.0
1534404573.09375,-19.08,2.011719,31.71,1936442.0
1534404573.109375,-24.84,2.001471,31.71,1937100.0
1534404573.125,-31.37,1.996347,31.71,1937576.0
1534404573.140625,-36.99,2.004033,31.71,1937843.0
1534404573.15625,-40.1,2.025809,31.73,1939091.0
1534404573.171875,-39.7,2.012999,31.73,1940116.0
1534404573.1875,-35.77,2.016842,31.73,1941401.0
1534404573.203125,-29.17,2.018123,31.73,1942599.0
1534404573.21875,-21.34,1.988661,31.73,1943856.0
1534404573.234375,-13.81,2.012999,31.73,1943903.0
1534404573.25,-7.84,2.028371,31.73,1941611.0
1534404573.265625,-4.19,2.025809,31.73,1939562.0
1534404573.28125,-3.0,2.024528,31.73,1937550.0
1534404573.296875,-3.82,2.025809,31.73,1936262.0
1534404573.3125,-5.65,2.01428,31.73,1935344.0
1534404573.328125,-7.06,2.021966,31.73,1935574.0
1534404573.34375,-6.44,2.012999,31.73,1935376.0
1534404573.359375,-2.49,1.983538,31.73,1935395.0
1534404573.375,5.19,2.006595,31.73,1935614.0
1534404573.390625,15.79,2.01428,31.73,1936180.0
1534404573.40625,27.39,2.012999,31.73,1937085.0
1534404573.421875,37.62,2.001471,31.73,1938049.0
1534404573.4375,44.65,2.001471,31.73,1939081.0
1534404573.453125,47.9,1.998909,31.73,1939928.0
1534404573.46875,48.24,1.995066,31.71,1938493.0
1534404573.484375,47.4,2.004033,31.71,1935904.0
1534404573.5,47.0,2.004033,31.71,1934141.0
1534404573.515625,47.72,1.968166,31.71,1932667.0
1534404573.53125,49.11,1.991223,31.71,1931810.0
1534404573.546875,50.08,1.993785,31.71,1931979.0
1534404573.5625,49.79,1.992504,31.71,1931821.0
1534404573.578125,48.12,2.005314,31.71,1932346.0
1534404573.59375,45.82,2.007876,31.71,1932395.0
1534404573.609375,43.81,2.006595,31.71,1933306.0
1534404573.625,42.53,2.007876,31.71,1934355.0
1534404573.640625,41.63,1.972009,31.71,1935460.0
1534404573.65625,40.12,1.960481,31.71,1936615.0
1534404573.671875,36.93,1.987381,31.71,1938066.0
1534404573.6875,31.58,1.997628,31.71,1938694.0
1534404573.703125,24.33,2.015561,31.71,1937452.0
1534404573.71875,16.1,2.036056,31.73,1935459.0
1534404573.734375,7.96,2.045023,31.73,1933583.0
1534404573.75,0.71,2.056551,31.73,1931971.0
1534404573.765625,-5.41,2.052709,31.73,1931461.0
1534404573.78125,-10.62,2.056551,31.71,1931738.0
1534404573.796875,-15.39,2.033494,31.71,1932312.0
1534404573.8125,-20.09,2.061675,31.71,1932767.0
1534404573.828125,-24.77,2.05399,31.71,1932971.0
1534404573.84375,-29.13,2.066799,31.73,1933729.0
1534404573.859375,-32.63,2.057832,31.73,1934414.0
1534404573.875,-34.75,2.061675,31.73,1935384.0
1534404573.890625,-35.18,2.059114,31.73,1936926.0
1534404573.90625,-33.99,2.065518,31.73,1938511.0
1534404573.921875,-31.6,2.065518,31.73,1939398.0
1534404573.9375,-28.62,2.070642,31.73,1938043.0
1534404573.953125,-25.64,2.078328,31.73,1935900.0
1534404573.96875,-23.02,2.060394,31.71,1933336.0
1534404573.984375,-20.82,2.073204,31.71,1930413.0
1534404574.0,-18.88,2.065518,31.71,1931512.0
1534404574.015625,-16.94,2.064237,31.71,1931125.0
1534404574.03125,-14.88,2.070642,31.71,1930429.0
1534404574.046875,-12.82,2.089856,31.71,1931524.0
1534404574.0625,-11.04,2.124442,31.71,1932987.0
1534404574.078125,-9.85,2.15006,31.71,1934037.0
1534404574.09375,-9.34,2.159027,31.73,1935560.0
1534404574.109375,-9.33,2.171837,31.73,1936923.0
1534404574.125,-9.43,2.207703,31.73,1937725.0
1534404574.140625,-9.23,2.205141,31.73,1938924.0
1534404574.15625,-8.47,2.211546,31.73,1939438.0
1534404574.171875,-7.16,2.197455,31.73,1936307.0
1534404574.1875,-5.56,2.198736,31.73,1938186.0
1534404574.203125,-3.98,2.193613,31.73,1932904.0
1534404574.21875,-2.7,2.183365,31.71,1932356.0
1534404574.234375,-1.89,2.146218,31.71,1933908.0
1534404574.25,-1.56,2.153903,31.71,1932332.0
1534404574.265625,-1.63,2.15006,31.71,1932986.0
1534404574.28125,-1.84,2.141094,31.73,1932838.0
1534404574.296875,-1.95,2.141094,31.73,1933736.0
1534404574.3125,-1.72,2.130846,31.73,1934262.0
1534404574.328125,-1.1,2.124442,31.73,1935289.0
1534404574.34375,-0.31,2.116756,31.73,1936664.0
1534404574.359375,0.28,2.107789,31.73,1937562.0
1534404574.375,0.24,2.102666,31.73,1939170.0
1534404574.390625,-0.62,2.118037,31.73,1939225.0
1534404574.40625,-2.15,2.118037,31.73,1937999.0
1534404574.421875,-3.89,2.115475,31.73,1934946.0
1534404574.4375,-5.25,2.112913,31.73,1936322.0
1534404574.453125,-5.75,2.106508,31.73,1934066.0
1534404574.46875,-5.27,2.103946,31.71,1934304.0
1534404574.484375,-4.0,2.105227,31.71,1934373.0
1534404574.5,-2.34,2.107789,31.71,1935006.0
1534404574.515625,-0.66,2.106508,31.71,1935547.0
1534404574.53125,0.84,2.111632,31.71,1936329.0
1534404574.546875,2.19,2.110351,31.71,1937196.0
1534404574.5625,3.49,2.102666,31.71,1938450.0
1534404574.578125,4.84,2.112913,31.71,1939842.0
1534404574.59375,6.21,2.10907,31.71,1941198.0
1534404574.609375,7.41,2.110351,31.71,1940881.0
1534404574.625,8.24,2.106508,31.71,1941964.0
1534404574.640625,8.59,2.075766,31.71,1938923.0
1534404574.65625,8.51,2.106508,31.73,1937221.0
1534404574.671875,8.2,2.100104,31.73,1935720.0
1534404574.6875,7.84,2.100104,31.73,1934987.0
1534404574.703125,7.52,2.101385,31.73,1935674.0
1534404574.71875,7.22,2.107789,31.73,1935312.0
1534404574.734375,6.81,2.114194,31.73,1936223.0
1534404574.75,6.2,2.118037,31.73,1936539.0
1534404574.765625,5.38,2.116756,31.73,1937007.0
1534404574.78125,4.47,2.096261,31.69,1937619.0
1534404574.796875,3.61,2.132127,31.69,1938555.0
1534404574.8125,2.92,2.144937,31.69,1939960.0
1534404574.828125,2.44,2.144937,31.69,1942219.0
1534404574.84375,2.12,2.152622,31.71,1940977.0
1534404574.859375,1.93,2.153903,31.71,1938872.0
1534404574.875,1.79,2.170556,31.71,1941356.0
1534404574.890625,1.61,2.167994,31.71,1933576.0
1534404574.90625,1.26,2.13597,31.69,1936898.0
1534404574.921875,0.6,2.161589,31.69,1932869.0
1534404574.9375,-0.42,2.171837,31.69,1935068.0
1534404574.953125,-1.72,2.170556,31.69,1932146.0
1534404574.96875,-3.01,2.173118,31.73,1931420.0
1534404574.984375,-3.89,2.167994,31.73,1931120.0
1534404575.0,-4.0,2.159027,31.73,1930461.0
1534404575.015625,-3.19,2.157746,31.73,1930959.0
1534404575.03125,-1.59,2.169275,31.73,1931823.0
1534404575.046875,0.45,2.178241,31.73,1933232.0
1534404575.0625,2.55,2.147499,31.73,1934622.0
1534404575.078125,4.46,2.151341,31.73,1935150.0
1534404575.09375,6.15,2.14878,31.69,1934103.0
1534404575.109375,7.74,2.15006,31.69,1931204.0
1534404575.125,9.38,2.157746,31.69,1928365.0
1534404575.140625,11.13,2.157746,31.69,1925716.0
1534404575.15625,12.88,2.156465,31.71,1922521.0
1534404575.171875,14.49,2.159027,31.71,1923797.0
1534404575.1875,15.73,2.152622,31.71,1921206.0
1534404575.203125,16.5,2.133408,31.71,1921846.0
1534404575.21875,16.76,2.144937,31.71,1920819.0
1534404575.234375,16.55,2.15006,31.71,1920986.0
1534404575.25,15.93,2.160308,31.71,1921254.0
1534404575.265625,14.9,2.152622,31.71,1922015.0
1534404575.28125,13.49,2.141094,31.73,1922929.0
1534404575.296875,11.78,2.139813,31.73,1923867.0
1534404575.3125,9.85,2.147499,31.73,1924838.0
1534404575.328125,7.84,2.144937,31.73,1924727.0
1534404575.34375,5.84,2.12188,31.71,1923186.0
1534404575.359375,3.88,2.144937,31.71,1920660.0
1534404575.375,1.95,2.147499,31.71,1919264.0
1534404575.390625,0.04,2.167994,31.71,1917875.0
1534404575.40625,-1.86,2.196175,31.71,1917628.0
1534404575.421875,-3.66,2.210265,31.71,1917838.0
1534404575.4375,-5.21,2.241008,31.71,1918467.0
1534404575.453125,-6.42,2.253817,31.71,1918886.0
1534404575.46875,-7.32,2.266627,31.69,1919733.0
1534404575.484375,-8.14,2.266627,31.69,1920419.0
1534404575.5,-9.19,2.281998,31.69,1921935.0
1534404575.515625,-10.72,2.285841,31.69,1923093.0
1534404575.53125,-12.76,2.280717,31.69,1925058.0
1534404575.546875,-15.03,2.273031,31.69,1926706.0
1534404575.5625,-16.99,2.260222,31.69,1927066.0
1534404575.578125,-18.06,2.256379,31.69,1926079.0
1534404575.59375,-17.83,2.246131,31.71,1924237.0
1534404575.609375,-16.2,2.239727,31.71,1923393.0
1534404575.625,-13.29,2.233322,31.71,1922913.0
1534404575.640625,-9.29,2.241008,31.71,1923381.0
1534404575.65625,-4.09,2.237165,31.71,1924291.0
1534404575.671875,2.6,2.224355,31.71,1924927.0
1534404575.6875,11.1,2.220513,31.71,1925750.0
1534404575.703125,21.32,2.217951,31.71,1926613.0
1534404575.71875,32.49,2.224355,31.71,1927426.0
1534404575.734375,43.22,2.224355,31.71,1928595.0
1534404575.75,51.8,2.202579,31.71,1930039.0
1534404575.765625,56.93,2.210265,31.71,1931775.0
1534404575.78125,58.16,2.20386,31.71,1932680.0
1534404575.796875,56.06,2.202579,31.71,1930903.0
1534404575.8125,51.84,2.212827,31.71,1929089.0
1534404575.828125,46.7,2.23076,31.71,1927465.0
1534404575.84375,41.3,2.233322,31.73,1925853.0
1534404575.859375,35.59,2.233322,31.73,1924374.0
1534404575.875,29.17,2.238446,31.73,1924362.0
1534404575.890625,21.78,2.247412,31.73,1924741.0
1534404575.90625,13.74,2.246131,31.71,1926002.0
1534404575.921875,5.9,2.215389,31.71,1926366.0
1534404575.9375,-0.73,2.239727,31.71,1927443.0
1534404575.953125,-5.6,2.237165,31.71,1928249.0
1534404575.96875,-8.79,2.235884,31.73,1929290.0
1534404575.984375,-11.04,2.23076,31.73,1930916.0
1534404576.0,-13.29,2.237165,31.73,1931526.0
1534404576.015625,-16.26,2.242289,31.73,1930183.0
1534404576.03125,-20.14,2.242289,31.73,1927302.0
1534404576.046875,-24.64,2.223074,31.73,1924741.0
1534404576.0625,-29.23,2.223074,31.73,1923158.0
1534404576.078125,-33.41,2.233322,31.73,1921728.0
1534404576.09375,-36.92,2.235884,31.69,1921354.0
1534404576.109375,-39.62,2.234603,31.69,1921108.0
1534404576.125,-41.41,2.228198,31.69,1920358.0
1534404576.140625,-42.21,2.23076,31.69,1920491.0
1534404576.15625,-41.89,2.221793,31.69,1920369.0
1534404576.171875,-40.34,2.217951,31.69,1921100.0
1534404576.1875,-37.67,2.217951,31.69,1921572.0
1534404576.203125,-34.13,2.21667,31.69,1922884.0
1534404576.21875,-30.15,2.217951,31.71,1923082.0
1534404576.234375,-26.2,2.224355,31.71,1921402.0
1534404576.25,-22.7,2.226917,31.71,1918489.0
1534404576.265625,-19.94,2.228198,31.71,1915720.0
1534404576.28125,-18.0,2.221793,31.73,1913313.0
1534404576.296875,-16.8,2.233322,31.73,1911561.0
1534404576.3125,-16.08,2.242289,31.73,1910853.0
1534404576.328125,-15.62,2.247412,31.73,1910684.0
1534404576.34375,-15.26,2.233322,31.71,1910894.0
1534404576.359375,-14.95,2.249974,31.71,1911077.0
1534404576.375,-14.78,2.264065,31.71,1911267.0
1534404576.390625,-14.81,2.265346,31.71,1911885.0
1534404576.40625,-15.06,2.279436,31.73,1912747.0
1534404576.421875,-15.48,2.278155,31.73,1913884.0
1534404576.4375,-15.88,2.280717,31.73,1915017.0
1534404576.453125,-15.97,2.273031,31.73,1914591.0
1534404576.46875,-15.48,2.241008,31.73,1912079.0
1534404576.484375,-14.18,2.280717,31.73,1908922.0
1534404576.5,-11.96,2.285841,31.73,1906415.0
1534404576.515625,-8.91,2.281998,31.73,1904578.0
1534404576.53125,-5.31,2.275593,31.71,1903536.0
1534404576.546875,-1.59,2.273031,31.71,1903942.0
1534404576.5625,1.83,2.280717,31.71,1904163.0
1534404576.578125,4.55,2.283279,31.71,1904163.0
1534404576.59375,6.34,2.275593,31.73,1904806.0
1534404576.609375,7.12,2.273031,31.73,1905619.0
1534404576.625,6.89,2.266627,31.73,1906787.0
1534404576.640625,5.74,2.261503,31.73,1906303.0
1534404576.65625,3.88,2.25766,31.71,1907759.0
1534404576.671875,1.71,2.258941,31.71,1910143.0
1534404576.6875,-0.25,2.266627,31.71,1909253.0
1534404576.703125,-1.42,2.267907,31.71,1909067.0
1534404576.71875,-1.45,2.264065,31.71,1903594.0
1534404576.734375,-0.29,2.232041,31.71,1903436.0
1534404576.75,1.7,2.251255,31.71,1901334.0
1534404576.765625,3.95,2.260222,31.71,1899971.0
1534404576.78125,5.96,2.258941,31.71,1899286.0
1534404576.796875,7.49,2.262784,31.71,1899386.0
1534404576.8125,8.64,2.266627,31.71,1899743.0
1534404576.828125,9.63,2.260222,31.71,1900390.0
1534404576.84375,10.68,2.256379,31.71,1901456.0
1534404576.859375,11.77,2.24485,31.71,1902599.0
1534404576.875,12.71,2.258941,31.71,1903923.0
1534404576.890625,13.18,2.265346,31.71,1905612.0
1534404576.90625,13.04,2.264065,31.71,1907149.0
1534404576.921875,12.28,2.261503,31.71,1908235.0
1534404576.9375,11.11,2.252536,31.71,1907692.0
1534404576.953125,9.77,2.249974,31.71,1905063.0
1534404576.96875,8.41,2.247412,31.69,1902845.0
1534404576.984375,7.05,2.248693,31.69,1900919.0
1534404577.0,5.62,2.262784,31.69,1899860.0
1534404577.015625,4.12,2.261503,31.69,1899774.0
1534404577.03125,2.6,2.25766,31.73,1899956.0
1534404577.046875,1.21,2.260222,31.73,1900512.0
1534404577.0625,0.1,2.264065,31.73,1901207.0
1534404577.078125,-0.62,2.264065,31.73,1901714.0
1534404577.09375,-0.97,2.279436,31.71,1902629.0
1534404577.109375,-1.03,2.281998,31.71,1903838.0
1534404577.125,-0.95,2.285841,31.71,1905262.0
1534404577.140625,-0.88,2.279436,31.71,1906860.0
1534404577.15625,-1.02,2.273031,31.71,1904663.0
1534404577.171875,-1.51,2.266627,31.71,1902745.0
1534404577.1875,-2.47,2.256379,31.71,1901807.0
1534404577.203125,-3.86,2.258941,31.71,1901904.0
1534404577.21875,-5.47,2.267907,31.71,1906822.0
1534404577.234375,-6.91,2.267907,31.71,1907922.0
1534404577.25,-7.71,2.267907,31.71,1902576.0
1534404577.265625,-7.56,2.260222,31.71,1903059.0
1534404577.28125,-6.43,2.264065,31.71,1903684.0
1534404577.296875,-4.59,2.237165,31.71,1905103.0
1534404577.3125,-2.5,2.23076,31.71,1906384.0
1534404577.328125,-0.5,2.201298,31.71,1907852.0
1534404577.34375,1.28,2.18977,31.71,1909476.0
1534404577.359375,2.97,2.202579,31.71,1912051.0
1534404577.375,4.82,2.212827,31.71,1912841.0
1534404577.390625,6.97,,,1911217.0
1534404577.40625,9.3,,,1910232.0
1534404577.421875,11.51,,,1906882.0
1534404577.4375,13.22,,,1907845.0
1534404577.453125,14.2,,,1907187.0
1534404577.46875,14.47,,,1909309.0
1534404577.484375,14.27,,,1910039.0
1534404577.5,13.88,,,1910414.0
1534404577.515625,13.51,,,1906592.0
1534404577.53125,13.17,,,1908235.0
1534404577.546875,12.73,,,1911450.0
1534404577.5625,12.0,,,1911947.0
1534404577.578125,10.82,,,1913746.0
1534404577.59375,9.15,,,1914849.0
1534404577.609375,7.08,,,1914556.0
1534404577.625,4.77,,,1912617.0
1534404577.640625,2.41,,,1911032.0
1534404577.65625,0.17,,,1909722.0
1534404577.671875,-1.87,,,1909244.0
1534404577.6875,-3.71,,,1909914.0
1534404577.703125,-5.44,,,1910801.0
1534404577.71875,-7.12,,,1911263.0
1534404577.734375,-8.79,,,1912339.0
1534404577.75,-10.36,,,1913133.0
1534404577.765625,-11.59,,,1914079.0
1534404577.78125,-12.24,,,1914924.0
1534404577.796875,-12.09,,,1916001.0
1534404577.8125,-11.08,,,1917027.0
1534404577.828125,-9.34,,,1916765.0
1534404577.84375,-7.2,,,1914431.0
1534404577.859375,-5.04,,,1911460.0
1534404577.875,-3.23,,,1908954.0
1534404577.890625,-2.02,,,1907063.0
1534404577.90625,-1.5,,,1906857.0
1534404577.921875,-1.48,,,1906907.0
1534404577.9375,-1.37,,,1907659.0
1534404577.953125,-0.29,,,1908271.0
1534404577.96875,2.64,,,1908639.0
1534404577.984375,7.76,,,1909555.0
1534404578.0,14.45,,,1910844.0
1534404578.015625,21.03,,,1912226.0
1534404578.03125,25.33,,,1913778.0
1534404578.046875,25.59,,,1915478.0
1534404578.0625,21.4,,,1915342.0
1534404578.078125,13.96,,,1914034.0
1534404578.09375,5.65,,,1911843.0
1534404578.109375,-1.08,,,1909580.0
1534404578.125,-4.69,,,1908435.0
1534404578.140625,-5.04,,,1907966.0
1534404578.15625,-3.17,,,1908760.0
1534404578.171875,-0.41,,,1909445.0
1534404578.1875,2.27,,,1910258.0
1534404578.203125,4.58,,,1911767.0
1534404578.21875,6.63,,,1913203.0
1534404578.234375,8.48,,,1914570.0
1534404578.25,9.84,,,1916627.0
1534404578.265625,10.19,,,1918583.0
1534404578.28125,9.12,,,1920857.0
1534404578.296875,6.69,,,1922241.0
1534404578.3125,3.47,,,1922063.0
1534404578.328125,0.35,,,1920213.0
1534404578.34375,-2.02,,,1918989.0
1534404578.359375,-3.39,,,1918454.0
1534404578.375,-4.0,,,1918780.0
1534404578.390625,-4.37,,,1919512.0
1534404578.40625,-4.86,,,1920467.0
1534404578.421875,-5.56,,,1921165.0
1534404578.4375,-6.25,,,1921733.0
1534404578.453125,-6.6,,,1922311.0
1534404578.46875,-6.37,,,1923689.0
1534404578.484375,-5.55,,,1924957.0
1534404578.5,-4.31,,,1926334.0
1534404578.515625,-2.95,,,1928468.0
1534404578.53125,-1.81,,,1930739.0
1534404578.546875,-1.17,,,1932376.0
1534404578.5625,-1.25,,,1931268.0
1534404578.578125,-2.1,,,1929199.0
1534404578.59375,-3.55,,,1927149.0
1534404578.609375,-5.29,,,1925760.0
1534404578.625,-6.88,,,1925724.0
1534404578.640625,-7.97,,,1926472.0
1534404578.65625,-8.39,,,1927005.0
1534404578.671875,-8.27,,,1927562.0
1534404578.6875,-7.98,,,1928067.0
1534404578.703125,-7.94,,,1929385.0
1534404578.71875,-8.44,,,1931040.0
1534404578.734375,-9.5,,,1933162.0
1534404578.75,-10.85,,,1935510.0
1534404578.765625,-11.98,,,1938061.0
1534404578.78125,-12.45,,,1939656.0
1534404578.796875,-12.02,,,1938487.0
1534404578.8125,-10.8,,,1936254.0
1534404578.828125,-9.17,,,1934593.0
1534404578.84375,-7.61,,,1933972.0
1534404578.859375,-6.48,,,1933298.0
1534404578.875,-5.96,,,1933620.0
1534404578.890625,-5.99,,,1933615.0
1534404578.90625,-6.4,,,1933957.0
1534404578.921875,-6.92,,,1934243.0
1534404578.9375,-7.26,,,1934403.0
1534404578.953125,-7.14,,,1935361.0
1534404578.96875,-6.36,,,1936258.0
1534404578.984375,-4.84,,,1937374.0
1534404579.0,-2.74,,,1937374.0
1534404579.015625,-0.38,,,1938666.0
1534404579.03125,1.81,,,1939242.0
1534404579.046875,3.51,,,1937501.0
1534404579.0625,4.61,,,1935709.0
1534404579.078125,5.2,,,1933336.0
1534404579.09375,5.48,,,1932115.0
1534404579.109375,5.6,,,1931383.0
1534404579.125,5.6,,,1931706.0
1534404579.140625,5.39,,,1932120.0
1534404579.15625,4.88,,,1932357.0
1534404579.171875,4.1,,,1933248.0
1534404579.1875,3.2,,,1934142.0
1534404579.203125,2.36,,,1935021.0
1534404579.21875,1.72,,,1936514.0
1534404579.234375,1.27,,,1937828.0
1534404579.25,0.93,,,1939593.0
1534404579.265625,0.5,,,1940959.0
1534404579.28125,-0.08,,,1940305.0
1534404579.296875,-0.77,,,1938344.0
1534404579.3125,-1.41,,,1936952.0
1534404579.328125,-1.82,,,1935751.0
1534404579.34375,-1.94,,,1935574.0
1534404579.359375,-1.79,,,1936332.0
1534404579.375,-1.55,,,1937547.0
1534404579.390625,-1.35,,,1938362.0
1534404579.40625,-1.38,,,1939707.0
1534404579.421875,-1.7,,,1940941.0
1534404579.4375,-2.33,,,1942446.0
1534404579.453125,-3.23,,,1943955.0
1534404579.46875,-4.22,,,1946013.0
1534404579.484375,-5.04,,,1948127.0
1534404579.5,-5.34,,,1949241.0
1534404579.515625,-4.83,,,1948575.0
1534404579.53125,-3.37,,,1946584.0
1534404579.546875,-1.07,,,1945172.0
1534404579.5625,1.79,,,1944386.0
1534404579.578125,4.84,,,1944857.0
1534404579.59375,7.81,,,1946016.0
1534404579.609375,10.56,,,1946930.0
1534404579.625,13.04,,,1947125.0
1534404579.640625,15.15,,,1947545.0
1534404579.65625,16.71,,,1948514.0
1534404579.671875,17.5,,,1949946.0
1534404579.6875,17.38,,,1951750.0
1534404579.703125,16.44,,,1952904.0
1534404579.71875,15.04,,,1954195.0
1534404579.734375,13.67,,,1952975.0
1534404579.75,12.77,,,1951128.0
1534404579.765625,12.47,,,1948745.0
1534404579.78125,12.59,,,1947073.0
1534404579.796875,12.74,,,1946025.0
1534404579.8125,12.51,,,1945973.0
1534404579.828125,11.72,,,1946301.0
1534404579.84375,10.43,,,1946527.0
1534404579.859375,8.97,,,1946835.0
1534404579.875,7.73,,,1947623.0
1534404579.890625,7.0,,,1949830.0
1534404579.90625,6.84,,,1948791.0
1534404579.921875,7.08,,,1953081.0
1534404579.9375,7.39,,,1951292.0
1534404579.953125,7.45,,,1953852.0
1534404579.96875,7.08,,,1952708.0
1534404579.984375,6.24,,,1950594.0
1534404580.0,5.05,,,1946821.0
1534404580.015625,3.66,,,1948746.0
1534404580.03125,2.24,,,1945974.0
1534404580.046875,0.95,,,1945761.0
1534404580.0625,-0.02,,,1946760.0
1534404580.078125,-0.5,,,1946401.0
1534404580.09375,-0.37,,,1947500.0
1534404580.109375,0.3,,,1948406.0
1534404580.125,1.19,,,1945948.0
1534404580.140625,1.76,,,1949578.0
1534404580.15625,1.47,,,1951123.0
1534404580.171875,0.04,,,1952175.0
1534404580.1875,-2.46,,,1952380.0
1534404580.203125,-5.52,,,1949969.0
1534404580.21875,-8.51,,,1947456.0
1534404580.234375,-10.87,,,1945228.0
1534404580.25,-12.33,,,1943663.0
1534404580.265625,-12.92,,,1943368.0
1534404580.28125,-12.91,,,1943213.0
1534404580.296875,-12.63,,,1943259.0
1534404580.3125,-12.42,,,1943374.0
1534404580.328125,-12.56,,,1943971.0
1534404580.34375,-13.25,,,1944412.0
1534404580.359375,-14.59,,,1945322.0
1534404580.375,-16.48,,,1946709.0
1534404580.390625,-18.59,,,1947639.0
1534404580.40625,-20.36,,,1948805.0
1534404580.421875,-21.2,,,1949016.0
1534404580.4375,-20.75,,,1947033.0
1534404580.453125,-18.96,,,1944025.0
1534404580.46875,-16.24,,,1941699.0
1534404580.484375,-13.25,,,1939925.0
1534404580.5,-10.65,,,1939295.0
1534404580.515625,-8.9,,,1939053.0
1534404580.53125,-8.12,,,1938859.0
1534404580.546875,-8.09,,,1939034.0
1534404580.5625,-8.36,,,1939592.0
1534404580.578125,-8.41,,,1939890.0
1534404580.59375,-7.77,,,1941030.0
1534404580.609375,-6.19,,,1942105.0
1534404580.625,-3.72,,,1943310.0
1534404580.640625,-0.78,,,1944478.0
1534404580.65625,2.02,,,1944871.0
1534404580.671875,4.13,,,1942995.0
1534404580.6875,5.27,,,1940711.0
1534404580.703125,5.65,,,1938415.0
1534404580.71875,5.78,,,1936888.0
1534404580.734375,6.33,,,1936132.0
1534404580.75,7.77,,,1936567.0
1534404580.765625,10.26,,,1936808.0
1534404580.78125,13.59,,,1936940.0
1534404580.796875,17.38,,,1937406.0
1534404580.8125,21.15,,,1938095.0
1534404580.828125,24.37,,,1939256.0
1534404580.84375,26.52,,,1940789.0
1534404580.859375,27.08,,,1941468.0
1534404580.875,25.69,,,1942807.0
1534404580.890625,22.25,,,1942018.0
1534404580.90625,17.05,,,1939267.0
1534404580.921875,10.63,,,1936506.0
1534404580.9375,3.67,,,1934443.0
1534404580.953125,-3.19,,,1933237.0
1534404580.96875,-9.48,,,1932559.0
1534404580.984375,-14.88,,,1932803.0
1534404581.0,-19.16,,,1933546.0
1534404581.015625,-22.2,,,1933742.0
1534404581.03125,-23.96,,,1934307.0
1534404581.046875,-24.57,,,1935093.0
1534404581.0625,-24.35,,,1936115.0
1534404581.078125,-23.73,,,1937788.0
1534404581.09375,-23.19,,,1939212.0
1534404581.109375,-23.06,,,1940203.0
1534404581.125,-23.38,,,1938303.0
1534404581.140625,-23.93,,,1935450.0
1534404581.15625,-24.22,,,1930246.0
1534404581.171875,-23.81,,,1932631.0
1534404581.1875,-22.42,,,1928768.0
1534404581.203125,-20.08,,,1928163.0
1534404581.21875,-17.08,,,1928670.0
1534404581.234375,-13.83,,,1928689.0
1534404581.25,-10.68,,,1928981.0
1534404581.265625,-7.72,,,1929703.0
1534404581.28125,-4.85,,,1930158.0
1534404581.296875,-1.91,,,1931664.0
1534404581.3125,1.17,,,1932848.0
1534404581.328125,4.28,,,1934124.0
1534404581.34375,7.09,,,1935089.0
1534404581.359375,9.24,,,1933799.0
1534404581.375,10.52,,,1933799.0
1534404581.390625,10.96,,,1931283.0
1534404581.40625,10.81,,,1928397.0
1534404581.421875,10.41,,,1926109.0
1534404581.4375,10.08,,,1924909.0
1534404581.453125,9.92,,,1923836.0
1534404581.46875,9.86,,,1924068.0
1534404581.484375,9.7,,,1924062.0
1534404581.5,9.25,,,1923987.0
1534404581.515625,8.44,,,1924507.0
1534404581.53125,7.36,,,1924644.0
1534404581.546875,6.18,,,1925578.0
1534404581.5625,5.12,,,1926303.0
1534404581.578125,4.28,,,1927261.0
1534404581.59375,3.65,,,1928590.0
1534404581.609375,3.2,,,1929978.0
1534404581.625,2.82,,,1930057.0
1534404581.640625,2.46,,,1928034.0
1534404581.65625,2.08,,,1926023.0
1534404581.671875,1.55,,,1923812.0
1534404581.6875,0.76,,,1922415.0
1534404581.703125,-0.42,,,1921827.0
1534404581.71875,-1.96,,,1922093.0
1534404581.734375,-3.62,,,1922705.0
1534404581.75,-4.97,,,1923398.0
1534404581.765625,-5.57,,,1924188.0
1534404581.78125,-5.14,,,1925004.0
1534404581.796875,-3.73,,,1926794.0
1534404581.8125,-1.66,,,1928104.0
1534404581.828125,0.61,,,1930066.0
1534404581.84375,2.78,,,1932141.0
1534404581.859375,4.75,,,1933767.0
1534404581.875,6.6,,,1933309.0
1534404581.890625,8.5,,,1931602.0
1534404581.90625,10.45,,,1930204.0
1534404581.921875,12.23,,,1929021.0
1534404581.9375,13.47,,,1928442.0
1534404581.953125,13.84,,,1928786.0
1534404581.96875,13.19,,,1929534.0
1534404581.984375,11.68,,,1930501.0
1534404582.0,9.65,,,1931619.0
1534404582.015625,7.47,,,1932736.0
1534404582.03125,5.41,,,1933731.0
1534404582.046875,3.53,,,1935381.0
1534404582.0625,1.75,,,1936841.0
1534404582.078125,0.06,,,1938413.0
1534404582.09375,-1.48,,,1939919.0
1534404582.109375,-2.67,,,1939081.0
1534404582.125,-3.28,,,1936555.0
1534404582.140625,-3.25,,,1934991.0
1534404582.15625,-2.71,,,1933566.0
1534404582.171875,-1.95,,,1933073.0
1534404582.1875,-1.23,,,1933302.0
1534404582.203125,-0.7,,,1933876.0
1534404582.21875,-0.3,,,1934395.0
1534404582.234375,0.09,,,1935083.0
1534404582.25,0.57,,,1936489.0
1534404582.265625,1.16,,,1937619.0
1534404582.28125,1.77,,,1938708.0
1534404582.296875,2.41,,,1939894.0
1534404582.3125,3.16,,,1941117.0
1534404582.328125,4.23,,,1941886.0
1534404582.34375,5.82,,,1940015.0
1534404582.359375,8.03,,,1937793.0
1534404582.375,10.74,,,1935441.0
1534404582.390625,13.73,,,1933263.0
1534404582.40625,16.72,,,1932255.0
1534404582.421875,19.53,,,1931688.0
1534404582.4375,22.08,,,1931289.0
1534404582.453125,24.36,,,1931760.0
1534404582.46875,26.39,,,1931803.0
1534404582.484375,28.11,,,1931593.0
1534404582.5,29.45,,,1932283.0
1534404582.515625,30.31,,,1933198.0
1534404582.53125,30.61,,,1934509.0
1534404582.546875,30.29,,,1935472.0
1534404582.5625,29.29,,,1936102.0
1534404582.578125,27.54,,,1934340.0
1534404582.59375,24.95,,,1931243.0
1534404582.609375,21.53,,,1928750.0
1534404582.625,17.35,,,1926195.0
1534404582.640625,12.61,,,1924666.0
1534404582.65625,7.45,,,1924197.0
1534404582.671875,2.06,,,1924446.0
1534404582.6875,-3.41,,,1924409.0
1534404582.703125,-8.69,,,1924665.0
1534404582.71875,-13.31,,,1924999.0
1534404582.734375,-16.66,,,1925515.0
1534404582.75,-18.14,,,1926735.0
1534404582.765625,-17.49,,,1927738.0
1534404582.78125,-14.91,,,1928857.0
1534404582.796875,-11.17,,,1930024.0
1534404582.8125,-7.32,,,1929673.0
1534404582.828125,-4.33,,,1927246.0
1534404582.84375,-2.79,,,1924481.0
1534404582.859375,-2.77,,,1922219.0
1534404582.875,-3.92,,,1920447.0
1534404582.890625,-5.71,,,1919817.0
1534404582.90625,-7.72,,,1919617.0
1534404582.921875,-9.69,,,1919461.0
1534404582.9375,-11.5,,,1919832.0
1534404582.953125,-13.03,,,1920058.0
1534404582.96875,-14.09,,,1920803.0
1534404582.984375,-14.41,,,1921956.0
1534404583.0,-13.86,,,1923284.0
1534404583.015625,-12.49,,,1925020.0
1534404583.03125,-10.62,,,1926898.0
1534404583.046875,-8.71,,,1928241.0
1534404583.0625,-7.15,,,1928062.0
1534404583.078125,-6.16,,,1926095.0
1534404583.09375,-5.76,,,1924100.0
1534404583.109375,-5.79,,,1922592.0
1534404583.125,-6.14,,,1921184.0
1534404583.140625,-6.74,,,1921225.0
1534404583.15625,-7.67,,,1921570.0
1534404583.171875,-8.95,,,1921803.0
1534404583.1875,-10.58,,,1922435.0
1534404583.203125,-12.36,,,1923450.0
1534404583.21875,-14.04,,,1924481.0
1534404583.234375,-15.32,,,1925606.0
1534404583.25,-16.06,,,1927631.0
1534404583.265625,-16.23,,,1929274.0
1534404583.28125,-15.91,,,1931041.0
1534404583.296875,-15.24,,,1931361.0
1534404583.3125,-14.31,,,1929494.0
1534404583.328125,-13.18,,,1927036.0
1534404583.34375,-11.88,,,1924891.0
1534404583.359375,-10.52,,,1923602.0
1534404583.375,-9.25,,,1923034.0
1534404583.390625,-8.26,,,1923094.0
1534404583.40625,-7.71,,,1923242.0
1534404583.421875,-7.63,,,1923236.0
1534404583.4375,-7.9,,,1923490.0
1534404583.453125,-8.26,,,1924237.0
1534404583.46875,-8.41,,,1925038.0
1534404583.484375,-8.16,,,1925925.0
1534404583.5,-7.41,,,1927343.0
1534404583.515625,-6.22,,,1928655.0
1534404583.53125,-4.72,,,1929261.0
1534404583.546875,-3.02,,,1927204.0
1534404583.5625,-1.21,,,1924378.0
1534404583.578125,0.73,,,1921750.0
1534404583.59375,2.81,,,1919749.0
1534404583.609375,5.04,,,1919089.0
1534404583.625,7.3,,,1918659.0
1534404583.640625,9.35,,,1918502.0
1534404583.65625,10.84,,,1918345.0
1534404583.671875,11.46,,,1918433.0
1534404583.6875,11.1,,,1919281.0
1534404583.703125,9.91,,,1920067.0
1534404583.71875,8.27,,,1921400.0
1534404583.734375,6.69,,,1922925.0
1534404583.75,5.52,,,1924617.0
1534404583.765625,4.84,,,1925248.0
1534404583.78125,4.47,,,1923707.0
1534404583.796875,4.07,,,1923707.0
1534404583.8125,3.34,,,1920833.0
1534404583.828125,2.22,,,1917901.0
1534404583.84375,0.88,,,1915577.0
1534404583.859375,-0.39,,,1914505.0
1534404583.875,-1.37,,,1913951.0
1534404583.890625,-2.0,,,1914019.0
1534404583.90625,-2.42,,,1913962.0
1534404583.921875,-2.85,,,1913716.0
1534404583.9375,-3.51,,,1914053.0
1534404583.953125,-4.48,,,1914862.0
1534404583.96875,-5.71,,,1915540.0
1534404583.984375,-7.05,,,1916689.0
1534404584.0,-8.3,,,1917931.0
1534404584.015625,-9.29,,,1919080.0
1534404584.03125,-9.81,,,1919093.0
1534404584.046875,-9.72,,,1916667.0
1534404584.0625,-8.94,,,1913448.0
1534404584.078125,-7.53,,,1910847.0
1534404584.09375,-5.69,,,1908823.0
1534404584.109375,-3.67,,,1907604.0
1534404584.125,-1.71,,,1907027.0
1534404584.140625,0.05,,,1906830.0
1534404584.15625,1.56,,,1906590.0
1534404584.171875,2.89,,,1906507.0
1534404584.1875,4.11,,,1906789.0
1534404584.203125,5.25,,,1907675.0
1534404584.21875,6.3,,,1908933.0
1534404584.234375,7.19,,,1910560.0
1534404584.25,7.83,,,1912306.0
1534404584.265625,8.16,,,1913578.0
1534404584.28125,8.14,,,1912710.0
1534404584.296875,7.84,,,1910407.0
1534404584.3125,7.38,,,1908363.0
1534404584.328125,6.92,,,1906306.0
1534404584.34375,6.61,,,1905263.0
1534404584.359375,6.52,,,1905142.0
1534404584.375,6.59,,,1905585.0
1534404584.390625,6.69,,,1905934.0
1534404584.40625,6.65,,,1905950.0
1534404584.421875,6.35,,,1906780.0
1534404584.4375,5.77,,,1907443.0
1534404584.453125,5.02,,,1908959.0
1534404584.46875,4.25,,,1910205.0
1534404584.484375,3.65,,,1911973.0
1534404584.5,3.26,,,1913614.0
1534404584.515625,3.07,,,1913628.0
1534404584.53125,2.97,,,1911131.0
1534404584.546875,2.84,,,1908777.0
1534404584.5625,2.57,,,1907137.0
1534404584.578125,2.13,,,1905995.0
1534404584.59375,1.61,,,1905822.0
1534404584.609375,1.26,,,1905670.0
1534404584.625,1.39,,,1906049.0
1534404584.640625,2.31,,,1906651.0
1534404584.65625,4.18,,,1907403.0
1534404584.671875,6.93,,,1908096.0
1534404584.6875,10.2,,,1909138.0
1534404584.703125,13.41,,,1910680.0
1534404584.71875,16.06,,,1912201.0
1534404584.734375,17.87,,,1913513.0
1534404584.75,18.95,,,1913597.0
1534404584.765625,19.66,,,1911159.0
1534404584.78125,20.36,,,1908425.0
1534404584.796875,21.13,,,1905932.0
1534404584.8125,21.68,,,1904093.0
1534404584.828125,21.55,,,1903378.0
1534404584.84375,20.43,,,1903070.0
1534404584.859375,18.32,,,1903404.0
1534404584.875,15.61,,,1903467.0
1534404584.890625,12.8,,,1903738.0
1534404584.90625,10.21,,,1904067.0
1534404584.921875,7.91,,,1904848.0
1534404584.9375,5.76,,,1906163.0
1534404584.953125,3.62,,,1907739.0
1534404584.96875,1.65,,,1909322.0
1534404584.984375,0.16,,,1910105.0
1534404585.0,-0.57,,,1908390.0
1534404585.015625,-0.56,,,1905310.0
1534404585.03125,-0.24,,,1902262.0
1534404585.046875,-0.29,,,1900042.0
1534404585.0625,-1.22,,,1899371.0
1534404585.078125,-3.1,,,1899024.0
1534404585.09375,-5.45,,,1898653.0
1534404585.109375,-7.51,,,1898258.0
1534404585.125,-8.58,,,1897971.0
1534404585.140625,-8.38,,,1897816.0
1534404585.15625,-7.15,,,1898618.0
1534404585.171875,-5.36,,,1899025.0
1534404585.1875,-3.55,,,1899872.0
1534404585.203125,-2.04,,,1900840.0
1534404585.21875,-0.92,,,1902093.0
1534404585.234375,-0.2,,,1901547.0
1534404585.25,0.05,,,1899353.0
1534404585.265625,-0.32,,,1896781.0
1534404585.28125,-1.43,,,1894459.0
1534404585.296875,-3.2,,,1892708.0
1534404585.3125,-5.27,,,1892329.0
1534404585.328125,-7.1,,,1892260.0
1534404585.34375,-8.2,,,1892688.0
1534404585.359375,-8.4,,,1892973.0
1534404585.375,-7.92,,,1893402.0
1534404585.390625,-7.24,,,1893954.0
1534404585.40625,-6.94,,,1895008.0
1534404585.421875,-7.34,,,1896496.0
1534404585.4375,-8.48,,,1898117.0
1534404585.453125,-10.11,,,1899835.0
1534404585.46875,-11.8,,,1900644.0
1534404585.484375,-13.22,,,1899143.0
1534404585.5,-14.15,,,1896966.0
1534404585.515625,-14.63,,,1895065.0
1534404585.53125,-14.76,,,1893582.0
1534404585.546875,-14.74,,,1893394.0
1534404585.5625,-14.77,,,1894185.0
1534404585.578125,-15.04,,,1894476.0
1534404585.59375,-15.63,,,1894712.0
1534404585.609375,-16.5,,,1895554.0
1534404585.625,-17.41,,,1896310.0
1534404585.640625,-18.01,,,1897816.0
1534404585.65625,-17.94,,,1899285.0
1534404585.671875,-17.0,,,1901187.0
1534404585.6875,-15.34,,,1902754.0
1534404585.703125,-13.3,,,1902168.0
1534404585.71875,-11.36,,,1900136.0
1534404585.734375,-9.91,,,1897425.0
1534404585.75,-9.09,,,1895797.0
1534404585.765625,-8.79,,,1894409.0
1534404585.78125,-8.77,,,1893690.0
1534404585.796875,-8.8,,,1894147.0
1534404585.8125,-8.78,,,1894563.0
1534404585.828125,-8.66,,,1895283.0
1534404585.84375,-8.37,,,1896104.0
1534404585.859375,-7.74,,,1897015.0
1534404585.875,-6.64,,,1898274.0
1534404585.890625,-4.99,,,1899377.0
1534404585.90625,-2.93,,,1900870.0
1534404585.921875,-0.76,,,1901210.0
1534404585.9375,1.13,,,1899527.0
1534404585.953125,2.49,,,1896225.0
1534404585.96875,3.3,,,1893382.0
1534404585.984375,3.74,,,1891304.0
1534404586.0,4.1,,,1890072.0
1534404586.015625,4.55,,,1889737.0
1534404586.03125,5.09,,,1889648.0
1534404586.046875,5.54,,,1889263.0
1534404586.0625,5.68,,,1888915.0
1534404586.078125,5.37,,,1888594.0
1534404586.09375,4.62,,,1888882.0
1534404586.109375,3.65,,,1889953.0
1534404586.125,2.66,,,1891044.0
1534404586.140625,1.93,,,1892270.0
1534404586.15625,1.56,,,1892978.0
1534404586.171875,1.62,,,1891201.0
1534404586.1875,2.1,,,1887778.0
1534404586.203125,2.93,,,1884148.0
1534404586.21875,3.97,,,1881225.0
1534404586.234375,5.0,,,1878769.0
1534404586.25,5.8,,,1877897.0
1534404586.265625,6.06,,,1877036.0
1534404586.28125,5.59,,,1876667.0
1534404586.296875,4.3,,,1876537.0
1534404586.3125,2.26,,,1876401.0
1534404586.328125,-0.27,,,1876931.0
1534404586.34375,-2.94,,,1877785.0
1534404586.359375,-5.33,,,1878934.0
1534404586.375,-7.09,,,1880423.0
1534404586.390625,-7.97,,,1881264.0
1534404586.40625,-7.92,,,1880295.0
1534404586.421875,-6.98,,,1877599.0
1534404586.4375,-5.33,,,1874396.0
1534404586.453125,-3.23,,,1872013.0
1534404586.46875,-0.92,,,1870550.0
1534404586.484375,1.41,,,1870143.0
1534404586.5,3.57,,,1870041.0
1534404586.515625,5.49,,,1870652.0
1534404586.53125,7.06,,,1871027.0
1534404586.546875,8.22,,,1871609.0
1534404586.5625,8.9,,,1872827.0
1534404586.578125,9.16,,,1874035.0
1534404586.59375,9.09,,,1875795.0
1534404586.609375,8.87,,,1877545.0
1534404586.625,8.7,,,1879406.0
1534404586.640625,8.7,,,1879994.0
1534404586.65625,8.85,,,1878139.0
1534404586.671875,8.99,,,1875925.0
1534404586.6875,8.92,,,1873883.0
1534404586.703125,8.48,,,1872930.0
1534404586.71875,7.68,,,1873352.0
1534404586.734375,6.73,,,1874169.0
1534404586.75,5.87,,,1875106.0
1534404586.765625,5.29,,,1876201.0
1534404586.78125,5.06,,,1877454.0
1534404586.796875,4.98,,,1878359.0
1534404586.8125,4.79,,,1879960.0
1534404586.828125,4.24,,,1881156.0
1534404586.84375,3.22,,,1882637.0
1534404586.859375,1.82,,,1884081.0
1534404586.875,0.29,,,1883548.0
1534404586.890625,-1.02,,,1881147.0
1534404586.90625,-1.77,,,1879113.0
1534404586.921875,-1.68,,,1877431.0
1534404586.9375,-0.63,,,1876854.0
1534404586.953125,1.32,,,1876732.0
1534404586.96875,3.88,,,1877214.0
1534404586.984375,6.66,,,1877624.0
1534404587.0,9.28,,,1877693.0
1534404587.015625,11.61,,,1878319.0
1534404587.03125,13.75,,,1879555.0
1534404587.046875,15.98,,,1880916.0
1534404587.0625,18.57,,,1882180.0
1534404587.078125,21.54,,,1883966.0
1534404587.09375,24.52,,,1885576.0
1534404587.109375,26.99,,,1885210.0
1534404587.125,28.42,,,1882929.0
1534404587.140625,28.51,,,1880125.0
1534404587.15625,27.2,,,1877994.0
1534404587.171875,24.64,,,1876670.0
1534404587.1875,21.04,,,1876086.0
1534404587.203125,16.69,,,1876065.0
1534404587.21875,12.08,,,1876557.0
1534404587.234375,7.9,,,1877054.0
1534404587.25,4.92,,,1877343.0
1534404587.265625,3.68,,,1877965.0
1534404587.28125,4.14,,,1878975.0
1534404587.296875,5.56,,,1880009.0
1534404587.3125,6.72,,,1881641.0
1534404587.328125,6.43,,,1882916.0
1534404587.34375,4.1,,,1883902.0
1534404587.359375,0.0,,,1882557.0
1534404587.375,-4.91,,,1880057.0
1534404587.390625,-9.59,,,1877731.0
1534404587.40625,-13.43,,,1876284.0
1534404587.421875,-16.55,,,1875503.0
1534404587.4375,-19.54,,,1875894.0
1534404587.453125,-22.99,,,1876528.0
1534404587.46875,-27.08,,,1876845.0
1534404587.484375,-31.31,,,1877723.0
1534404587.5,-34.87,,,1878923.0
1534404587.515625,-36.96,,,1880590.0
1534404587.53125,-37.28,,,1882258.0
1534404587.546875,-36.04,,,1884016.0
1534404587.5625,-33.87,,,1886078.0
1534404587.578125,-31.39,,,1887932.0
1534404587.59375,-28.92,,,1888290.0
1534404587.609375,-26.44,,,1886888.0
1534404587.625,-23.74,,,1884651.0
1534404587.640625,-20.68,,,1883183.0
1534404587.65625,-17.37,,,1882410.0
1534404587.671875,-14.17,,,1882550.0
1534404587.6875,-11.55,,,1883485.0
1534404587.703125,-9.9,,,1884371.0
1534404587.71875,-9.31,,,1885775.0
1534404587.734375,-9.53,,,1886899.0
1534404587.75,-9.97,,,1888479.0
1534404587.765625,-10.02,,,1890518.0
1534404587.78125,-9.23,,,1892252.0
1534404587.796875,-7.57,,,1894024.0
1534404587.8125,-5.41,,,1896297.0
1534404587.828125,-3.37,,,1896959.0
1534404587.84375,-2.02,,,1895925.0
1534404587.859375,-1.57,,,1894403.0
1534404587.875,-1.94,,,1893367.0
1534404587.890625,-2.66,,,1893080.0
1534404587.90625,-3.28,,,1893636.0
1534404587.921875,-3.46,,,1895116.0
1534404587.9375,-3.14,,,1896628.0
1534404587.953125,-2.5,,,1895790.0
1534404587.96875,-1.77,,,1898308.0
1534404587.984375,-1.13,,,1897338.0
1534404588.0,-0.61,,,1899668.0
1534404588.015625,-0.18,,,1901141.0
1534404588.03125,0.16,,,1902347.0
1534404588.046875,0.31,,,1904529.0
1534404588.0625,0.07,,,1905188.0
1534404588.078125,-0.7,,,1903975.0
1534404588.09375,-1.86,,,1902078.0
1534404588.109375,-2.98,,,1900679.0
1534404588.125,-3.42,,,1900072.0
1534404588.140625,-2.67,,,1899572.0
1534404588.15625,-0.64,,,1900154.0
1534404588.171875,2.29,,,1900846.0
1534404588.1875,5.39,,,1901222.0
1534404588.203125,8.01,,,1902008.0
1534404588.21875,9.83,,,1902552.0
1534404588.234375,10.98,,,1904084.0
1534404588.25,11.85,,,1905571.0
1534404588.265625,12.8,,,1907220.0
1534404588.28125,13.86,,,1908617.0
1534404588.296875,14.84,,,1908557.0
1534404588.3125,15.46,,,1906866.0
1534404588.328125,15.53,,,1904747.0
1534404588.34375,15.11,,,1902757.0
1534404588.359375,14.38,,,1901822.0
1534404588.375,13.5,,,1901544.0
1534404588.390625,12.46,,,1901938.0
1534404588.40625,11.16,,,1902682.0
1534404588.421875,9.46,,,1903265.0
1534404588.4375,7.43,,,1904183.0
1534404588.453125,5.29,,,1905286.0
1534404588.46875,3.41,,,1906629.0
1534404588.484375,2.07,,,1908280.0
1534404588.5,1.39,,,1909592.0
1534404588.515625,1.24,,,1911246.0
1534404588.53125,1.3,,,1911015.0
1534404588.546875,1.24,,,1908598.0
1534404588.5625,0.86,,,1906308.0
1534404588.578125,0.19,,,1904284.0
1534404588.59375,-0.64,,,1903347.0
1534404588.609375,-1.51,,,1902945.0
1534404588.625,-2.4,,,1903282.0
1534404588.640625,-3.4,,,1903723.0
1534404588.65625,-4.63,,,1904459.0
1534404588.671875,-6.04,,,1905346.0
1534404588.6875,-7.42,,,1906261.0
1534404588.703125,-8.39,,,1907411.0
1534404588.71875,-8.55,,,1908557.0
1534404588.734375,-7.69,,,1909827.0
1534404588.75,-5.81,,,1910238.0
1534404588.765625,-3.1,,,1908278.0
1534404588.78125,0.13,,,1905434.0
1534404588.796875,3.53,,,1903115.0
1534404588.8125,6.76,,,1901099.0
1534404588.828125,9.5,,,1900752.0
1534404588.84375,11.49,,,1901161.0
1534404588.859375,12.56,,,1901351.0
1534404588.875,12.76,,,1902241.0
1534404588.890625,12.29,,,1902612.0
1534404588.90625,11.54,,,1903503.0
1534404588.921875,10.84,,,1904292.0
1534404588.9375,10.41,,,1905039.0
1534404588.953125,10.26,,,1906499.0
1534404588.96875,10.24,,,1907266.0
1534404588.984375,10.16,,,1907211.0
1534404589.0,9.9,,,1904316.0
1534404589.015625,9.47,,,1901982.0
1534404589.03125,9.01,,,1900049.0
1534404589.046875,8.78,,,1898351.0
1534404589.0625,9.02,,,1897972.0
1534404589.078125,9.88,,,1898301.0
1534404589.09375,11.33,,,1898488.0
1534404589.109375,13.04,,,1898740.0
1534404589.125,14.51,,,1898740.0
1534404589.140625,15.08,,,1899638.0
1534404589.15625,14.23,,,1900161.0
1534404589.171875,11.86,,,1901266.0
1534404589.1875,8.4,,,1902615.0
1534404589.203125,4.75,,,1904079.0
1534404589.21875,1.96,,,1904960.0
1534404589.234375,0.75,,,1903262.0
1534404589.25,1.19,,,1900664.0
1534404589.265625,2.75,,,1898441.0
1534404589.28125,4.48,,,1897105.0
1534404589.296875,5.6,,,1896278.0
1534404589.3125,5.69,,,1896182.0
1534404589.328125,4.85,,,1896728.0
1534404589.34375,3.43,,,1897527.0
1534404589.359375,1.81,,,1897987.0
1534404589.375,0.19,,,1898652.0
1534404589.390625,-1.33,,,1899556.0
1534404589.40625,-2.69,,,1901145.0
1534404589.421875,-3.72,,,1902620.0
1534404589.4375,-4.24,,,1903715.0
1534404589.453125,-4.15,,,1902959.0
1534404589.46875,-3.61,,,1900116.0
1534404589.484375,-2.97,,,1897400.0
1534404589.5,-2.59,,,1894986.0
1534404589.515625,-2.73,,,1893204.0
1534404589.53125,-3.29,,,1892632.0
1534404589.546875,-4.04,,,1892673.0
1534404589.5625,-4.64,,,1893113.0
1534404589.578125,-4.89,,,1893083.0
1534404589.59375,-4.83,,,1893672.0
1534404589.609375,-4.69,,,1894162.0
1534404589.625,-4.82,,,1895469.0
1534404589.640625,-5.43,,,1896510.0
1534404589.65625,-6.5,,,1897739.0
1534404589.671875,-7.87,,,1898914.0
1534404589.6875,-9.29,,,1898048.0
1534404589.703125,-10.59,,,1895051.0
1534404589.71875,-11.82,,,1892555.0
1534404589.734375,-13.25,,,1890375.0
1534404589.75,-15.15,,,1889014.0
1534404589.765625,-17.71,,,1888126.0
1534404589.78125,-20.71,,,1887860.0
1534404589.796875,-23.58,,,1888243.0
1534404589.8125,-25.52,,,1888010.0
1534404589.828125,-25.8,,,1889031.0
1534404589.84375,-24.1,,,1890010.0
1534404589.859375,-20.69,,,1891251.0
1534404589.875,-16.37,,,1892591.0
1534404589.890625,-12.08,,,1894665.0
1534404589.90625,-8.52,,,1896633.0
1534404589.921875,-5.86,,,1898276.0
1534404589.9375,-3.74,,,1897678.0
1534404589.953125,-1.59,,,1894690.0
1534404589.96875,0.98,,,1891536.0
1534404589.984375,3.89,,,1888659.0
1534404590.0,6.69,,,1886222.0
1534404590.015625,8.81,,,1886222.0
1534404590.03125,9.95,,,1884999.0
1534404590.046875,10.22,,,1884696.0
1534404590.0625,10.02,,,1885147.0
1534404590.078125,9.76,,,1885066.0
1534404590.09375,9.58,,,1885240.0
1534404590.109375,9.34,,,1886240.0
1534404590.125,8.7,,,1887506.0
1534404590.140625,7.41,,,1888314.0
1534404590.15625,5.32,,,1889959.0
1534404590.171875,2.35,,,1891590.0
1534404590.1875,-1.52,,,1892958.0
1534404590.203125,-6.35,,,1892579.0
1534404590.21875,-11.98,,,1890769.0
1534404590.234375,-17.91,,,1888704.0
1534404590.25,-23.2,,,1887215.0
1534404590.265625,-26.78,,,1886747.0
1534404590.28125,-27.71,,,1886960.0
1534404590.296875,-25.74,,,1887529.0
1534404590.3125,-21.41,,,1888560.0
1534404590.328125,-15.97,,,1889153.0
1534404590.34375,-10.88,,,1890487.0
1534404590.359375,-7.29,,,1892052.0
1534404590.375,-5.72,,,1893754.0
1534404590.390625,-6.01,,,1895532.0
1534404590.40625,-7.5,,,1897383.0
1534404590.421875,-9.43,,,1899333.0
1534404590.4375,-11.11,,,1900320.0
1534404590.453125,-12.06,,,1898937.0
1534404590.46875,-11.97,,,1897631.0
1534404590.484375,-10.65,,,1896765.0
1534404590.5,-8.01,,,1896676.0
1534404590.515625,-4.2,,,1897504.0
1534404590.53125,0.33,,,1898608.0
1534404590.546875,4.88,,,1899897.0
1534404590.5625,8.65,,,1900994.0
1534404590.578125,11.06,,,1901993.0
1534404590.59375,11.92,,,1903570.0
1534404590.609375,11.55,,,1904870.0
1534404590.625,10.48,,,1906290.0
1534404590.640625,9.35,,,1907548.0
1534404590.65625,8.56,,,1909184.0
1534404590.671875,8.25,,,1909817.0
1534404590.6875,8.27,,,1908518.0
1534404590.703125,8.39,,,1907426.0
1534404590.71875,8.38,,,1906206.0
1534404590.734375,8.12,,,1905943.0
1534404590.75,7.64,,,1906641.0
1534404590.765625,7.0,,,1907294.0
1534404590.78125,6.3,,,1907918.0
1534404590.796875,5.58,,,1908586.0
1534404590.8125,4.84,,,1909512.0
1534404590.828125,4.08,,,1910895.0
1534404590.84375,3.31,,,1911720.0
1534404590.859375,2.54,,,1913011.0
1534404590.875,1.78,,,1914121.0
1534404590.890625,0.95,,,1915292.0
1534404590.90625,-0.09,,,1915566.0
1534404590.921875,-1.48,,,1913981.0
1534404590.9375,-3.27,,,1911819.0
1534404590.953125,-5.31,,,1909608.0
1534404590.96875,-7.24,,,1908158.0
1534404590.984375,-8.63,,,1907705.0
1534404591.0,-9.1,,,1907771.0
1534404591.015625,-8.52,,,1908406.0
1534404591.03125,-6.97,,,1909042.0
1534404591.046875,-4.74,,,1909812.0
1534404591.0625,-2.14,,,1911432.0
1534404591.078125,0.61,,,1912447.0
1534404591.09375,3.38,,,1914024.0
1534404591.109375,6.15,,,1915889.0
1534404591.125,8.81,,,1917791.0
1534404591.140625,11.19,,,1919246.0
1534404591.15625,13.08,,,1918811.0
1534404591.171875,14.26,,,1917427.0
1534404591.1875,14.68,,,1916774.0
1534404591.203125,14.44,,,1916530.0
1534404591.21875,13.78,,,1917126.0
1534404591.234375,13.01,,,1918274.0
1534404591.25,12.4,,,1919271.0
1534404591.265625,12.03,,,1920756.0
1534404591.28125,11.87,,,1922478.0
1534404591.296875,11.75,,,1923634.0
1534404591.3125,11.47,,,1925702.0
1534404591.328125,10.9,,,1927340.0
1534404591.34375,10.0,,,1929290.0
1534404591.359375,8.88,,,1931150.0
1534404591.375,7.71,,,1931589.0
1534404591.390625,6.67,,,1930485.0
1534404591.40625,5.82,,,1929649.0
1534404591.421875,5.1,,,1929521.0
1534404591.4375,4.33,,,1929411.0
1534404591.453125,3.26,,,1930372.0
1534404591.46875,1.76,,,1931760.0
1534404591.484375,-0.13,,,1932847.0
1534404591.5,-2.2,,,1933835.0
1534404591.515625,-4.1,,,1935429.0
1534404591.53125,-5.63,,,1937148.0
1534404591.546875,-6.71,,,1938933.0
1534404591.5625,-7.37,,,1940358.0
1534404591.578125,-7.68,,,1942018.0
1534404591.59375,-7.59,,,1941581.0
1534404591.609375,-6.92,,,1939046.0
1534404591.625,-5.44,,,1936078.0
1534404591.640625,-3.08,,,1932774.0
1534404591.65625,0.0,,,1930089.0
1534404591.671875,3.44,,,1929039.0
1534404591.6875,6.84,,,1928572.0
1534404591.703125,9.96,,,1928745.0
1534404591.71875,12.81,,,1929086.0
1534404591.734375,15.54,,,1929470.0
1534404591.75,18.27,,,1929967.0
1534404591.765625,20.93,,,1929845.0
1534404591.78125,23.25,,,1929375.0
1534404591.796875,24.88,,,1928805.0
1534404591.8125,25.61,,,1927499.0
1534404591.828125,25.53,,,1924773.0
1534404591.84375,25.04,,,1921931.0
1534404591.859375,24.79,,,1920051.0
1534404591.875,25.33,,,1917963.0
1534404591.890625,27.0,,,1917127.0
1534404591.90625,29.7,,,1916327.0
1534404591.921875,32.92,,,1915687.0
1534404591.9375,35.94,,,1915143.0
1534404591.953125,38.07,,,1914846.0
1534404591.96875,38.83,,,1914402.0
1534404591.984375,38.16,,,1914023.0
1534404592.0,36.32,,,1913756.0
1534404592.015625,33.78,,,1913734.0
1534404592.03125,31.02,,,1913112.0
1534404592.046875,28.33,,,1910888.0
1534404592.0625,25.77,,,1908203.0
1534404592.078125,23.22,,,1905745.0
1534404592.09375,20.5,,,1903274.0
1534404592.109375,17.46,,,1902285.0
1534404592.125,13.97,,,1902145.0
1534404592.140625,10.03,,,1901782.0
1534404592.15625,5.78,,,1901861.0
1534404592.171875,1.54,,,1902032.0
1534404592.1875,-2.22,,,1902285.0
1534404592.203125,-4.94,,,1902781.0
1534404592.21875,-6.27,,,1903585.0
1534404592.234375,-6.28,,,1904697.0
1534404592.25,-5.52,,,1904751.0
1534404592.265625,-4.92,,,1902924.0
1534404592.28125,-5.3,,,1899633.0
1534404592.296875,-6.99,,,1896985.0
1534404592.3125,-9.5,,,1894417.0
1534404592.328125,-11.73,,,1892207.0
1534404592.34375,-12.47,,,1891043.0
1534404592.359375,-11.11,,,1890189.0
1534404592.375,-8.02,,,1890026.0
1534404592.390625,-4.43,,,1889525.0
1534404592.40625,-1.87,,,1889614.0
1534404592.421875,-1.44,,,1890258.0
1534404592.4375,-3.35,,,1891503.0
1534404592.453125,-6.93,,,1892795.0
1534404592.46875,-11.11,,,1893297.0
1534404592.484375,-15.07,,,1892393.0
1534404592.5,-18.62,,,1890003.0
1534404592.515625,-22.11,,,1887685.0
1534404592.53125,-26.05,,,1885745.0
1534404592.546875,-30.57,,,1884140.0
1534404592.5625,-35.19,,,1884035.0
1534404592.578125,-39.08,,,1884397.0
1534404592.59375,-41.45,,,1884789.0
1534404592.609375,-42.04,,,1885151.0
1534404592.625,-41.26,,,1885832.0
1534404592.640625,-39.95,,,1887093.0
1534404592.65625,-39.01,,,1888816.0
1534404592.671875,-38.92,,,1890799.0
1534404592.6875,-39.61,,,1892299.0
1534404592.703125,-40.57,,,1892238.0
1534404592.71875,-41.15,,,1890933.0
1534404592.734375,-40.89,,,1890102.0
1534404592.75,-39.63,,,1889464.0
1534404592.765625,-37.59,,,1890014.0
1534404592.78125,-35.15,,,1890637.0
1534404592.796875,-32.62,,,1890471.0
1534404592.8125,-30.18,,,1890811.0
1534404592.828125,-27.68,,,1891557.0
1534404592.84375,-24.77,,,1892162.0
1534404592.859375,-21.1,,,1893158.0
1534404592.875,-16.52,,,1894212.0
1534404592.890625,-11.27,,,1895412.0
1534404592.90625,-5.92,,,1895178.0
1534404592.921875,-1.22,,,1893360.0
1534404592.9375,2.24,,,1891596.0
1534404592.953125,4.21,,,1890367.0
1534404592.96875,4.96,,,1889995.0
1534404592.984375,5.03,,,1890823.0
1534404593.0,5.11,,,1891726.0
1534404593.015625,5.66,,,1892829.0
1534404593.03125,6.79,,,1893787.0
1534404593.046875,8.28,,,1895294.0
1534404593.0625,9.68,,,1896777.0
1534404593.078125,10.56,,,1898661.0
1534404593.09375,10.71,,,1900556.0
1534404593.109375,10.24,,,1901680.0
1534404593.125,9.41,,,1900828.0
1534404593.140625,8.52,,,1899157.0
1534404593.15625,7.69,,,1897625.0
1534404593.171875,6.8,,,1896792.0
1534404593.1875,5.62,,,1897247.0
1534404593.203125,3.99,,,1897432.0
1534404593.21875,1.91,,,1898372.0
1534404593.234375,-0.4,,,1898372.0
1534404593.25,-2.63,,,1899224.0
1534404593.265625,-4.46,,,1900299.0
1534404593.28125,-5.78,,,1901516.0
1534404593.296875,-6.51,,,1902704.0
1534404593.3125,-6.62,,,1904160.0
1534404593.328125,-6.15,,,1905941.0
1534404593.34375,-5.09,,,1906177.0
1534404593.359375,-3.53,,,1904556.0
1534404593.375,-1.57,,,1902672.0
1534404593.390625,0.67,,,1901234.0
1534404593.40625,3.12,,,1900266.0
1534404593.421875,5.73,,,1899994.0
1534404593.4375,8.38,,,1900400.0
1534404593.453125,10.86,,,1901159.0
1534404593.46875,12.88,,,1902196.0
1534404593.484375,14.14,,,1903354.0
1534404593.5,14.49,,,1904614.0
1534404593.515625,14.02,,,1906382.0
1534404593.53125,13.01,,,1907473.0
1534404593.546875,11.83,,,1907690.0
1534404593.5625,10.76,,,1906889.0
1534404593.578125,9.93,,,1904674.0
1534404593.59375,9.32,,,1903594.0
1534404593.609375,8.8,,,1903639.0
1534404593.625,8.24,,,1904188.0
1534404593.640625,7.54,,,1905816.0
1534404593.65625,6.68,,,1907002.0
1534404593.671875,5.7,,,1907955.0
1534404593.6875,4.69,,,1908604.0
1534404593.703125,3.71,,,1909556.0
1534404593.71875,2.84,,,1910826.0
1534404593.734375,2.02,,,1912990.0
1534404593.75,1.16,,,1914975.0
1534404593.765625,0.13,,,1915696.0
1534404593.78125,-1.17,,,1914553.0
1534404593.796875,-2.76,,,1912479.0
1534404593.8125,-4.56,,,1910425.0
1534404593.828125,-6.44,,,1908901.0
1534404593.84375,-8.23,,,1908389.0
1534404593.859375,-9.76,,,1908636.0
1534404593.875,-10.93,,,1908435.0
1534404593.890625,-11.63,,,1908901.0
1534404593.90625,-11.83,,,1909436.0
1534404593.921875,-11.47,,,1910739.0
1534404593.9375,-10.52,,,1911788.0
1534404593.953125,-9.03,,,1912867.0
1534404593.96875,-7.05,,,1914798.0
1534404593.984375,-4.7,,,1915792.0
1534404594.0,-2.09,,,1915094.0
1534404594.015625,0.64,,,1913231.0
1534404594.03125,3.35,,,1911342.0
1534404594.046875,5.87,,,1910059.0
1534404594.0625,8.01,,,1909640.0
1534404594.078125,9.63,,,1910148.0
1534404594.09375,10.74,,,1911009.0
1534404594.109375,11.46,,,1911757.0
1534404594.125,12.05,,,1912506.0
1534404594.140625,12.75,,,1913719.0
1534404594.15625,13.71,,,1915304.0
1534404594.171875,14.89,,,1916908.0
1534404594.1875,16.09,,,1918835.0
1534404594.203125,17.01,,,1920605.0
1534404594.21875,17.41,,,1920719.0
1534404594.234375,17.1,,,1919520.0
1534404594.25,16.05,,,1917635.0
1534404594.265625,14.33,,,1916853.0
1534404594.28125,12.17,,,1916525.0
1534404594.296875,9.88,,,1917111.0
1534404594.3125,7.78,,,1918408.0
1534404594.328125,6.14,,,1919797.0
1534404594.34375,5.02,,,1921504.0
1534404594.359375,4.25,,,1923349.0
1534404594.375,3.48,,,1924717.0
1534404594.390625,2.45,,,1926190.0
1534404594.40625,1.1,,,1927788.0
1534404594.421875,-0.23,,,1929512.0
1534404594.4375,-0.97,,,1931462.0
1534404594.453125,-0.59,,,1932128.0
1534404594.46875,1.07,,,1931460.0
1534404594.484375,3.66,,,1930521.0
1534404594.5,6.42,,,1930304.0
1534404594.515625,8.55,,,1930431.0
1534404594.53125,9.62,,,1931239.0
1534404594.546875,9.77,,,1931739.0
1534404594.5625,9.7,,,1932327.0
1534404594.578125,10.2,,,1932323.0
1534404594.59375,11.81,,,1932295.0
1534404594.609375,14.53,,,1932951.0
1534404594.625,17.95,,,1934209.0
1534404594.640625,21.44,,,1935641.0
1534404594.65625,24.4,,,1937300.0
1534404594.671875,26.35,,,1938942.0
1534404594.6875,26.85,,,1939400.0
1534404594.703125,25.43,,,1938248.0
1534404594.71875,21.7,,,1937021.0
1534404594.734375,15.64,,,1935442.0
1534404594.75,7.91,,,1935183.0
1534404594.765625,-0.22,,,1934950.0
1534404594.78125,-7.17,,,1935206.0
1534404594.796875,-11.65,,,1935762.0
1534404594.8125,-13.2,,,1936163.0
1534404594.828125,-12.31,,,1937052.0
1534404594.84375,-10.12,,,1938035.0
1534404594.859375,-7.86,,,1939412.0
1534404594.875,-6.34,,,1940906.0
1534404594.890625,-5.85,,,1942384.0
1534404594.90625,-6.29,,,1944382.0
1534404594.921875,-7.55,,,1944792.0
1534404594.9375,-9.62,,,1943168.0
1534404594.953125,-12.62,,,1941349.0
1534404594.96875,-16.55,,,1940040.0
1534404594.984375,-21.12,,,1939236.0
1534404595.0,-25.74,,,1938915.0
1534404595.015625,-29.72,,,1939523.0
1534404595.03125,-32.44,,,1940033.0
1534404595.046875,-33.61,,,1941344.0
1534404595.0625,-33.26,,,1942119.0
1534404595.078125,-31.58,,,1943552.0
1534404595.09375,-28.83,,,1943552.0
1534404595.109375,-25.28,,,1944718.0
1534404595.125,-21.11,,,1946766.0
1534404595.140625,-16.52,,,1948472.0
1534404595.15625,-11.71,,,1950345.0
1534404595.171875,-7.0,,,1950087.0
1534404595.1875,-2.74,,,1946112.0
1534404595.203125,0.7,,,1944963.0
1534404595.21875,3.01,,,1948256.0
1534404595.234375,4.09,,,1946656.0
1534404595.25,4.11,,,1946439.0
1534404595.265625,3.47,,,1945491.0
1534404595.28125,2.7,,,1946949.0
1534404595.296875,2.29,,,1947965.0
1534404595.3125,2.45,,,1948754.0
1534404595.328125,3.12,,,1949407.0
1534404595.34375,3.98,,,1950725.0
1534404595.359375,4.72,,,1951805.0
1534404595.375,5.09,,,1952878.0
1534404595.390625,5.04,,,1954107.0
1534404595.40625,4.61,,,1953724.0
1534404595.421875,3.94,,,1952151.0
1534404595.4375,3.12,,,1950670.0
1534404595.453125,2.18,,,1949933.0
1534404595.46875,1.17,,,1949285.0
1534404595.484375,0.06,,,1949086.0
1534404595.5,-1.14,,,1948554.0
1534404595.515625,-2.48,,,1948040.0
1534404595.53125,-3.99,,,1947549.0
1534404595.546875,-5.7,,,1947664.0
1534404595.5625,-7.65,,,1947819.0
1534404595.578125,-9.81,,,1948650.0
1534404595.59375,-12.01,,,1950301.0
1534404595.609375,-13.98,,,1951496.0
1534404595.625,-15.35,,,1951838.0
1534404595.640625,-15.78,,,1950430.0
1534404595.65625,-15.04,,,1948446.0
1534404595.671875,-13.14,,,1946901.0
1534404595.6875,-10.39,,,1946594.0
1534404595.703125,-7.26,,,1947049.0
1534404595.71875,-4.23,,,1947948.0
1534404595.734375,-1.63,,,1949268.0
1534404595.75,0.49,,,1949902.0
1534404595.765625,2.26,,,1950537.0
1534404595.78125,3.84,,,1950618.0
1534404595.796875,5.33,,,1950748.0
1534404595.8125,6.63,,,1951166.0
1534404595.828125,7.53,,,1951292.0
1534404595.84375,7.88,,,1951656.0
1534404595.859375,7.64,,,1950120.0
1534404595.875,6.94,,,1947146.0
1534404595.890625,6.05,,,1943666.0
1534404595.90625,5.21,,,1941056.0
1534404595.921875,4.61,,,1939197.0
1534404595.9375,4.28,,,1938451.0
1534404595.953125,4.2,,,1938203.0
1534404595.96875,4.23,,,1937808.0
1534404595.984375,4.26,,,1937873.0
1534404596.0,4.2,,,1938063.0
1534404596.015625,3.97,,,1938950.0
1534404596.03125,3.61,,,1939853.0
1534404596.046875,3.16,,,1941206.0
1534404596.0625,2.64,,,1942213.0
1534404596.078125,2.06,,,1942179.0
1534404596.09375,1.33,,,1940226.0
1534404596.109375,0.33,,,1932550.0
1534404596.125,-1.06,,,1937153.0
1534404596.140625,-2.95,,,1931237.0
1534404596.15625,-5.24,,,1931047.0
1534404596.171875,-7.74,,,1934635.0
1534404596.1875,-10.16,,,1930868.0
1534404596.203125,-12.1,,,1931358.0
1534404596.21875,-13.22,,,1931487.0
1534404596.234375,-13.31,,,1932293.0
1534404596.25,-12.33,,,1933220.0
1534404596.265625,-10.45,,,1934457.0
1534404596.28125,-7.97,,,1935414.0
1534404596.296875,-5.14,,,1936374.0
1534404596.3125,-2.15,,,1935210.0
1534404596.328125,0.9,,,1932451.0
1534404596.34375,3.93,,,1930126.0
1534404596.359375,6.84,,,1927760.0
1534404596.375,9.49,,,1926536.0
1534404596.390625,11.77,,,1925728.0
1534404596.40625,13.64,,,1925604.0
1534404596.421875,15.1,,,1925209.0
1534404596.4375,16.24,,,1925552.0
1534404596.453125,17.13,,,1925592.0
1534404596.46875,17.83,,,1926347.0
1534404596.484375,18.43,,,1927503.0
1534404596.5,19.01,,,1928915.0
1534404596.515625,19.63,,,1930275.0
1534404596.53125,20.29,,,1929963.0
1534404596.546875,20.87,,,1926800.0
1534404596.5625,21.12,,,1923759.0
1534404596.578125,20.84,,,1920935.0
1534404596.59375,19.87,,,1919343.0
1534404596.609375,18.28,,,1918408.0
1534404596.625,16.34,,,1918317.0
1534404596.640625,14.36,,,1918186.0
1534404596.65625,12.65,,,1918334.0
1534404596.671875,11.36,,,1919005.0
1534404596.6875,10.45,,,1919701.0
1534404596.703125,9.65,,,1920378.0
1534404596.71875,8.6,,,1921062.0
1534404596.734375,6.92,,,1921909.0
1534404596.75,4.45,,,1921533.0
1534404596.765625,1.32,,,1919670.0
1534404596.78125,-1.9,,,1916250.0
1534404596.796875,-4.36,,,1913951.0
1534404596.8125,-5.15,,,1912050.0
1534404596.828125,-3.71,,,1911151.0
1534404596.84375,0.04,,,1911366.0
1534404596.859375,5.54,,,1911934.0
1534404596.875,11.91,,,1912491.0
1534404596.890625,18.17,,,1913345.0
1534404596.90625,23.58,,,1914317.0
1534404596.921875,27.87,,,1915433.0
1534404596.9375,31.07,,,1916778.0
1534404596.953125,33.43,,,1918151.0
1534404596.96875,35.15,,,1919373.0
1534404596.984375,36.21,,,1918712.0
1534404597.0,36.44,,,1916530.0
1534404597.015625,35.55,,,1914189.0
1534404597.03125,33.28,,,1912218.0
1534404597.046875,29.42,,,1911421.0
1534404597.0625,23.91,,,1911378.0
1534404597.078125,16.79,,,1911849.0
1534404597.09375,8.36,,,1912193.0
1534404597.109375,-0.77,,,1912802.0
1534404597.125,-9.73,,,1913739.0
1534404597.140625,-17.63,,,1914584.0
1534404597.15625,-23.85,,,1916200.0
1534404597.171875,-28.23,,,1917558.0
1534404597.1875,-31.06,,,1919091.0
1534404597.203125,-32.81,,,1920386.0
1534404597.21875,-33.84,,,1919023.0
1534404597.234375,-34.16,,,1916973.0
1534404597.25,-33.61,,,1914855.0
1534404597.265625,-32.15,,,1913206.0
1534404597.28125,-30.07,,,1912186.0
1534404597.296875,-28.11,,,1912040.0
1534404597.3125,-27.13,,,1912109.0
1534404597.328125,-27.7,,,1912568.0
1534404597.34375,-29.84,,,1913308.0
1534404597.359375,-33.01,,,1914636.0
1534404597.375,-36.42,,,1916150.0
1534404597.390625,-39.36,,,1918004.0
1534404597.40625,-41.5,,,1919501.0
1534404597.421875,-42.73,,,1920941.0
1534404597.4375,-43.07,,,1921222.0
1534404597.453125,-42.48,,,1919811.0
1534404597.46875,-40.76,,,1916879.0
1534404597.484375,-37.72,,,1914106.0
1534404597.5,-33.34,,,1912409.0
1534404597.515625,-27.84,,,1911750.0
1534404597.53125,-21.7,,,1912220.0
1534404597.546875,-15.5,,,1912863.0
1534404597.5625,-9.73,,,1913745.0
1534404597.578125,-4.7,,,1914862.0
1534404597.59375,-0.54,,,1916224.0
1534404597.609375,2.78,,,1917190.0
1534404597.625,5.32,,,1918681.0
1534404597.640625,7.13,,,1920072.0
1534404597.65625,8.26,,,1921032.0
1534404597.671875,8.77,,,1922297.0
1534404597.6875,8.77,,,1921647.0
1534404597.703125,8.42,,,1920280.0
1534404597.71875,7.95,,,1919016.0
1534404597.734375,7.52,,,1918437.0
1534404597.75,7.32,,,1918696.0
1534404597.765625,7.39,,,1919451.0
1534404597.78125,7.73,,,1920727.0
1534404597.796875,8.25,,,1922068.0
1534404597.8125,8.79,,,1923476.0
1534404597.828125,9.15,,,1924756.0
1534404597.84375,9.16,,,1926741.0
1534404597.859375,8.7,,,1928839.0
1534404597.875,7.77,,,1930937.0
1534404597.890625,6.46,,,1933200.0
1534404597.90625,4.89,,,1934459.0
1534404597.921875,3.18,,,1934347.0
1534404597.9375,1.34,,,1933339.0
1534404597.953125,-0.67,,,1932642.0
1534404597.96875,-2.89,,,1932385.0
1534404597.984375,-5.23,,,1932626.0
1534404598.0,-7.4,,,1933777.0
1534404598.015625,-8.98,,,1934858.0
1534404598.03125,-9.58,,,1936330.0
1534404598.046875,-9.0,,,1937589.0
1534404598.0625,-7.36,,,1937589.0
1534404598.078125,-5.0,,,1939566.0
1534404598.09375,-2.38,,,1941129.0
1534404598.109375,0.19,,,1942628.0
1534404598.125,2.57,,,1944643.0
1534404598.140625,4.79,,,1945259.0
1534404598.15625,6.86,,,1944833.0
1534404598.171875,8.72,,,1943072.0
1534404598.1875,10.17,,,1941520.0
1534404598.203125,11.0,,,1940442.0
1534404598.21875,11.13,,,1940732.0
1534404598.234375,10.72,,,1941478.0
1534404598.25,10.08,,,1942527.0
1534404598.265625,9.55,,,1943583.0
1534404598.28125,9.27,,,1944209.0
1534404598.296875,9.19,,,1945398.0
1534404598.3125,9.08,,,1946226.0
1534404598.328125,8.66,,,1946908.0
1534404598.34375,7.8,,,1947748.0
1534404598.359375,6.55,,,1947074.0
1534404598.375,5.07,,,1945122.0
1534404598.390625,3.56,,,1943163.0
1534404598.40625,2.14,,,1941719.0
1534404598.421875,0.82,,,1940774.0
1534404598.4375,-0.43,,,1940255.0
1534404598.453125,-1.65,,,1940296.0
1534404598.46875,-2.88,,,1940448.0
1534404598.484375,-4.11,,,1940447.0
1534404598.5,-5.35,,,1940746.0
1534404598.515625,-6.57,,,1941161.0
1534404598.53125,-7.76,,,1941734.0
1534404598.546875,-8.87,,,1942856.0
1534404598.5625,-9.84,,,1942993.0
1534404598.578125,-10.55,,,1941954.0
1534404598.59375,-10.84,,,1940244.0
1534404598.609375,-10.57,,,1938129.0
1534404598.625,-9.61,,,1936955.0
1534404598.640625,-7.97,,,1936629.0
1534404598.65625,-5.73,,,1937120.0
1534404598.671875,-3.09,,,1937309.0
1534404598.6875,-0.3,,,1937558.0
1534404598.703125,2.38,,,1937778.0
1534404598.71875,4.77,,,1938697.0
1534404598.734375,6.71,,,1939697.0
1534404598.75,8.15,,,1940844.0
1534404598.765625,9.13,,,1942121.0
1534404598.78125,9.75,,,1942636.0
1534404598.796875,10.23,,,1941742.0
1534404598.8125,10.79,,,1939990.0
1534404598.828125,11.56,,,1938393.0
1534404598.84375,12.56,,,1937602.0
1534404598.859375,13.64,,,1937690.0
1534404598.875,14.58,,,1938539.0
1534404598.890625,15.21,,,1939323.0
1534404598.90625,15.45,,,1940208.0
1534404598.921875,15.37,,,1941226.0
1534404598.9375,15.09,,,1942880.0
1534404598.953125,14.61,,,1942880.0
1534404598.96875,13.86,,,1943996.0
1534404598.984375,12.62,,,1946021.0
1534404599.0,10.87,,,1947312.0
1534404599.015625,8.77,,,1948194.0
1534404599.03125,6.63,,,1947557.0
1534404599.046875,4.79,,,1946049.0
1534404599.0625,3.35,,,1944776.0
1534404599.078125,2.1,,,1944748.0
1534404599.09375,0.68,,,1945326.0
1534404599.109375,-1.17,,,1946079.0
1534404599.125,-3.4,,,1946719.0
1534404599.140625,-5.58,,,1947316.0
1534404599.15625,-7.16,,,1948090.0
1534404599.171875,-7.76,,,1949142.0
1534404599.1875,-7.5,,,1950170.0
1534404599.203125,-6.84,,,1951728.0
1534404599.21875,-6.42,,,1953027.0
1534404599.234375,-6.55,,,1953040.0
1534404599.25,-7.0,,,1952239.0
1534404599.265625,-7.08,,,1951045.0
1534404599.28125,-5.91,,,1950175.0
1534404599.296875,-2.91,,,1949683.0
1534404599.3125,1.89,,,1949354.0
1534404599.328125,7.88,,,1949584.0
1534404599.34375,13.95,,,1950020.0
1534404599.359375,19.04,,,1950049.0
1534404599.375,22.38,,,1950085.0
1534404599.390625,23.76,,,1950928.0
1534404599.40625,23.48,,,1951935.0
1534404599.421875,22.21,,,1953154.0
1534404599.4375,20.64,,,1953689.0
1534404599.453125,19.3,,,1953588.0
1534404599.46875,18.61,,,1952149.0
1534404599.484375,18.86,,,1951028.0
1534404599.5,20.15,,,1950066.0
1534404599.515625,22.27,,,1950115.0
1534404599.53125,24.55,,,1950150.0
1534404599.546875,25.8,,,1950806.0
1534404599.5625,24.69,,,1951544.0
1534404599.578125,20.34,,,1952379.0
1534404599.59375,12.88,,,1953167.0
1534404599.609375,3.67,,,1954324.0
1534404599.625,-5.17,,,1955777.0
1534404599.640625,-11.61,,,1957355.0
1534404599.65625,-14.65,,,1957877.0
1534404599.671875,-14.69,,,1957288.0
1534404599.6875,-13.19,,,1956386.0
1534404599.703125,-11.85,,,1955604.0
1534404599.71875,-11.71,,,1955315.0
1534404599.734375,-12.87,,,1955743.0
1534404599.75,-14.68,,,1956618.0
1534404599.765625,-16.42,,,1957309.0
1534404599.78125,-17.79,,,1957309.0
1534404599.796875,-19.0,,,1958313.0
1534404599.8125,-20.4,,,1958927.0
1534404599.828125,-22.11,,,1960676.0
1534404599.84375,-23.75,,,1962000.0
1534404599.859375,-24.55,,,1963283.0
1534404599.875,-23.85,,,1965137.0
1534404599.890625,-21.47,,,1965314.0
1534404599.90625,-17.91,,,1964032.0
1534404599.921875,-14.12,,,1963024.0
1534404599.9375,-11.08,,,1962820.0
1534404599.953125,-9.42,,,1962914.0
1534404599.96875,-9.18,,,1963714.0
1534404599.984375,-9.84,,,1964806.0
1534404600.0,-10.64,,,1965584.0
1534404600.015625,-10.88,,,1966676.0
1534404600.03125,-10.17,,,1968051.0
1534404600.046875,-8.52,,,1969668.0
1534404600.0625,-6.26,,,1971937.0
1534404600.078125,-3.91,,,1973910.0
1534404600.09375,-1.93,,,1975490.0
1534404600.109375,-0.6,,,1974636.0
1534404600.125,0.08,,,1972839.0
1534404600.140625,0.32,,,1971175.0
1534404600.15625,0.39,,,1970626.0
1534404600.171875,0.47,,,1971134.0
1534404600.1875,0.55,,,1972010.0
1534404600.203125,0.44,,,1973067.0
1534404600.21875,-0.11,,,1973961.0
1534404600.234375,-1.23,,,1974098.0
1534404600.25,-2.81,,,1975063.0
1534404600.265625,-4.57,,,1976313.0
1534404600.28125,-6.17,,,1977946.0
1534404600.296875,-7.4,,,1979432.0
1534404600.3125,-8.34,,,1979576.0
1534404600.328125,-9.24,,,1978973.0
1534404600.34375,-10.35,,,1977185.0
1534404600.359375,-11.79,,,1976150.0
1534404600.375,-13.39,,,1975868.0
1534404600.390625,-14.78,,,1975717.0
1534404600.40625,-15.59,,,1975969.0
1534404600.421875,-15.5,,,1976315.0
1534404600.4375,-14.46,,,1976924.0
1534404600.453125,-12.62,,,1977385.0
1534404600.46875,-10.26,,,1978310.0
1534404600.484375,-7.68,,,1979787.0
1534404600.5,-5.08,,,1980931.0
1534404600.515625,-2.57,,,1982793.0
1534404600.53125,-0.14,,,1983342.0
1534404600.546875,2.26,,,1982781.0
1534404600.5625,4.69,,,1982274.0
1534404600.578125,7.14,,,1982509.0
1534404600.59375,9.5,,,1982864.0
1534404600.609375,11.6,,,1983482.0
1534404600.625,13.26,,,1984340.0
1534404600.640625,14.36,,,1985272.0
1534404600.65625,14.93,,,1986332.0
1534404600.671875,15.1,,,1987132.0
1534404600.6875,15.04,,,1988461.0
1534404600.703125,14.93,,,1990089.0
1534404600.71875,14.83,,,1991468.0
1534404600.734375,14.7,,,1992404.0
1534404600.75,14.46,,,1992104.0
1534404600.765625,14.0,,,1991072.0
1534404600.78125,13.25,,,1990841.0
1534404600.796875,12.23,,,1991242.0
1534404600.8125,10.98,,,1991590.0
1534404600.828125,9.54,,,1992350.0
1534404600.84375,7.97,,,1992939.0
1534404600.859375,6.32,,,1994310.0
1534404600.875,4.64,,,1995246.0
1534404600.890625,3.07,,,1996576.0
1534404600.90625,1.69,,,1997593.0
1534404600.921875,0.58,,,1998683.0
1534404600.9375,-0.26,,,1999351.0
1534404600.953125,-0.96,,,1998964.0
1534404600.96875,-1.64,,,1997583.0
1534404600.984375,-2.47,,,1996188.0
1534404601.0,-3.46,,,1995168.0
1534404601.015625,-4.48,,,1995173.0
1534404601.03125,-5.25,,,1995820.0
1534404601.046875,-5.39,,,1995581.0
1534404601.0625,-4.64,,,1995093.0
1534404601.078125,-2.89,,,1995345.0
1534404601.09375,-0.21,,,1994936.0
1534404601.109375,3.09,,,1994984.0
1534404601.125,6.64,,,1995594.0
1534404601.140625,10.1,,,1995735.0
1534404601.15625,13.14,,,1994702.0
1534404601.171875,15.53,,,1992358.0
1534404601.1875,17.15,,,1990345.0
1534404601.203125,17.99,,,1988965.0
1534404601.21875,18.18,,,1987990.0
1534404601.234375,18.0,,,1987818.0
1534404601.25,17.78,,,1987976.0
1534404601.265625,17.85,,,1987620.0
1534404601.28125,18.34,,,1987381.0
1534404601.296875,19.13,,,1987779.0
1534404601.3125,19.85,,,1987923.0
1534404601.328125,20.05,,,1988945.0
1534404601.34375,19.42,,,1989260.0
1534404601.359375,17.91,,,1989384.0
1534404601.375,15.78,,,1988115.0
1534404601.390625,13.36,,,1985398.0
1534404601.40625,10.92,,,1983452.0
1534404601.421875,8.47,,,1981653.0
1534404601.4375,5.91,,,1980527.0
1534404601.453125,3.15,,,1980048.0
1534404601.46875,0.31,,,1980031.0
1534404601.484375,-2.29,,,1979564.0
1534404601.5,-4.25,,,1979566.0
1534404601.515625,-5.32,,,1979731.0
1534404601.53125,-5.51,,,1979975.0
1534404601.546875,-5.0,,,1980783.0
1534404601.5625,-3.98,,,1981695.0
1534404601.578125,-2.54,,,1982084.0
1534404601.59375,-0.57,,,1980532.0
1534404601.609375,2.0,,,1977763.0
1534404601.625,5.12,,,1975410.0
1534404601.640625,8.53,,,1973221.0
1534404601.65625,11.85,,,1971780.0
1534404601.671875,14.72,,,1971109.0
1534404601.6875,17.03,,,1970671.0
1534404601.703125,18.83,,,1970469.0
1534404601.71875,20.25,,,1970507.0
1534404601.734375,21.32,,,1970612.0
1534404601.75,21.83,,,1971146.0
1534404601.765625,21.46,,,1971703.0
1534404601.78125,20.05,,,1972386.0
1534404601.796875,17.93,,,1973238.0
1534404601.8125,15.93,,,1973248.0
1534404601.828125,15.16,,,1971714.0
1534404601.84375,16.37,,,1969085.0
1534404601.859375,19.42,,,1966477.0
1534404601.875,23.03,,,1964091.0
1534404601.890625,25.21,,,1962958.0
1534404601.90625,24.13,,,1962210.0
1534404601.921875,19.0,,,1961652.0
1534404601.9375,10.47,,,1961644.0
1534404601.953125,0.29,,,1961766.0
1534404601.96875,-9.46,,,1962225.0
1534404601.984375,-17.33,,,1962804.0
1534404602.0,-22.87,,,1963929.0
1534404602.015625,-26.49,,,1964951.0
1534404602.03125,-28.84,,,1966010.0
1534404602.046875,-30.34,,,1966490.0
1534404602.0625,-30.98,,,1965703.0
1534404602.078125,-30.53,,,1963779.0
1534404602.09375,-28.99,,,1961150.0
1534404602.109375,-26.76,,,1959251.0
1534404602.125,-24.64,,,1958252.0
1534404602.140625,-23.46,,,1957617.0
1534404602.15625,-23.7,,,1957416.0
1534404602.171875,-25.31,,,1957188.0
1534404602.1875,-27.74,,,1956890.0
1534404602.203125,-30.2,,,1957154.0
1534404602.21875,-31.96,,,1957362.0
1534404602.234375,-32.64,,,1958180.0
1534404602.25,-32.18,,,1959151.0
1534404602.265625,-30.82,,,1959151.0
1534404602.28125,-28.86,,,1960305.0
1534404602.296875,-26.54,,,1961369.0
1534404602.3125,-23.95,,,1961699.0
1534404602.328125,-21.14,,,1959800.0
1534404602.34375,-18.17,,,1957178.0
1534404602.359375,-15.21,,,1955547.0
1534404602.375,-12.53,,,1954345.0
1534404602.390625,-10.39,,,1954271.0
1534404602.40625,-8.97,,,1953835.0
1534404602.421875,-8.23,,,1953926.0
1534404602.4375,-8.03,,,1954352.0
1534404602.453125,-8.06,,,1954907.0
1534404602.46875,-8.06,,,1955808.0
1534404602.484375,-7.87,,,1956295.0
1534404602.5,-7.42,,,1957537.0
1534404602.515625,-6.8,,,1959081.0
1534404602.53125,-6.16,,,1960494.0
1534404602.546875,-5.63,,,1961957.0
1534404602.5625,-5.25,,,1961501.0
1534404602.578125,-5.01,,,1959859.0
1534404602.59375,-4.84,,,1957822.0
1534404602.609375,-4.71,,,1956470.0
1534404602.625,-4.71,,,1955699.0
1534404602.640625,-4.96,,,1955825.0
1534404602.65625,-5.61,,,1955986.0
1534404602.671875,-6.78,,,1956609.0
1534404602.6875,-8.42,,,1957304.0
1534404602.703125,-10.4,,,1957916.0
1534404602.71875,-12.48,,,1958298.0
1534404602.734375,-14.36,,,1959045.0
1534404602.75,-15.64,,,1960041.0
1534404602.765625,-15.99,,,1961881.0
1534404602.78125,-15.15,,,1963480.0
1534404602.796875,-13.07,,,1965168.0
1534404602.8125,-9.93,,,1965086.0
1534404602.828125,-6.16,,,1963364.0
1534404602.84375,-2.33,,,1961483.0
1534404602.859375,1.04,,,1959597.0
1534404602.875,3.62,,,1958679.0
1534404602.890625,5.28,,,1958225.0
1534404602.90625,6.12,,,1957700.0
1534404602.921875,6.38,,,1956971.0
1534404602.9375,6.38,,,1956813.0
1534404602.953125,6.4,,,1957160.0
1534404602.96875,6.67,,,1957750.0
1534404602.984375,7.25,,,1958583.0
1534404603.0,8.08,,,1960081.0
1534404603.015625,8.96,,,1961432.0
1534404603.03125,9.69,,,1962975.0
1534404603.046875,10.08,,,1963850.0
1534404603.0625,10.0,,,1963291.0
1534404603.078125,9.43,,,1961585.0
1534404603.09375,8.44,,,1960403.0
1534404603.109375,7.2,,,1959745.0
1534404603.125,5.93,,,1959341.0
1534404603.140625,4.82,,,1959816.0
1534404603.15625,3.98,,,1960282.0
1534404603.171875,3.34,,,1960571.0
1534404603.1875,2.69,,,1960866.0
1534404603.203125,1.71,,,1960837.0
1534404603.21875,0.09,,,1961829.0
1534404603.234375,-2.34,,,1962389.0
1534404603.25,-5.51,,,1963261.0
1534404603.265625,-9.07,,,1964522.0
1534404603.28125,-12.5,,,1965491.0
1534404603.296875,-15.23,,,1965864.0
1534404603.3125,-16.81,,,1964227.0
1534404603.328125,-16.97,,,1962617.0
1534404603.34375,-15.71,,,1961420.0
1534404603.359375,-13.28,,,1961222.0
1534404603.375,-10.08,,,1961947.0
1534404603.390625,-6.59,,,1962616.0
1534404603.40625,-3.21,,,1962935.0
1534404603.421875,-0.19,,,1964552.0
1534404603.4375,2.46,,,1965648.0
1534404603.453125,4.83,,,1963702.0
1534404603.46875,7.09,,,1960962.0
1534404603.484375,9.34,,,1966641.0
1534404603.5,11.61,,,1968278.0
1534404603.515625,13.87,,,1969122.0
1534404603.53125,16.08,,,1969439.0
1534404603.546875,18.19,,,1967736.0
1534404603.5625,20.19,,,1966269.0
1534404603.578125,22.04,,,1964599.0
1534404603.59375,23.74,,,1964581.0
1534404603.609375,25.23,,,1965373.0
1534404603.625,26.45,,,1965771.0
1534404603.640625,27.42,,,1966776.0
1534404603.65625,28.2,,,1967555.0
1534404603.671875,28.92,,,1968713.0
1534404603.6875,29.7,,,1970650.0
1534404603.703125,30.59,,,1972068.0
1534404603.71875,31.58,,,1964894.0
1534404603.734375,32.57,,,1967555.0
1534404603.75,33.4,,,1973631.0
1534404603.765625,33.85,,,1974363.0
1534404603.78125,33.7,,,1972968.0
1534404603.796875,32.75,,,1971185.0
1534404603.8125,30.98,,,1969746.0
1534404603.828125,28.57,,,1969048.0
1534404603.84375,25.98,,,1968885.0
1534404603.859375,23.73,,,1969057.0
1534404603.875,22.21,,,1969217.0
1534404603.890625,21.53,,,1968883.0
1534404603.90625,21.42,,,1968820.0
1534404603.921875,21.45,,,1969363.0
1534404603.9375,21.33,,,1970042.0
1534404603.953125,21.01,,,1970957.0
1534404603.96875,20.75,,,1972398.0
1534404603.984375,20.83,,,1973544.0
1534404604.0,21.29,,,1972992.0
1534404604.015625,21.83,,,1970287.0
1534404604.03125,21.9,,,1967375.0
1534404604.046875,20.98,,,1965616.0
1534404604.0625,18.86,,,1964508.0
1534404604.078125,15.72,,,1964423.0
1534404604.09375,12.03,,,1965782.0
1534404604.109375,8.35,,,1966720.0
1534404604.125,5.11,,,1967331.0
1534404604.140625,2.58,,,1967811.0
1534404604.15625,0.77,,,1967852.0
1534404604.171875,-0.41,,,1969258.0
1534404604.1875,-1.23,,,1970624.0
1534404604.203125,-2.1,,,1971634.0
1534404604.21875,-3.57,,,1971029.0
1534404604.234375,-6.15,,,1968144.0
1534404604.25,-10.1,,,1965318.0
1534404604.265625,-15.22,,,1962834.0
1534404604.28125,-20.8,,,1961082.0
1534404604.296875,-25.9,,,1960451.0
1534404604.3125,-29.64,,,1960079.0
1534404604.328125,-31.52,,,1959579.0
1534404604.34375,-31.63,,,1959254.0
1534404604.359375,-30.59,,,1959403.0
1534404604.375,-29.19,,,1959863.0
1534404604.390625,-28.2,,,1960420.0
1534404604.40625,-28.1,,,1961350.0
1534404604.421875,-29.09,,,1962337.0
1534404604.4375,-31.11,,,1962186.0
1534404604.453125,-33.97,,,1962186.0
1534404604.46875,-37.36,,,1959827.0
1534404604.484375,-40.79,,,1957165.0
1534404604.5,-43.6,,,1954659.0
1534404604.515625,-45.11,,,1952600.0
1534404604.53125,-44.86,,,1951518.0
1534404604.546875,-42.77,,,1950812.0
1534404604.5625,-39.21,,,1950781.0
1534404604.578125,-34.83,,,1951131.0
1534404604.59375,-30.27,,,1951531.0
1534404604.609375,-25.91,,,1951664.0
1534404604.625,-21.86,,,1952459.0
1534404604.640625,-18.03,,,1953490.0
1534404604.65625,-14.35,,,1954753.0
1534404604.671875,-10.87,,,1954208.0
1534404604.6875,-7.73,,,1952447.0
1534404604.703125,-5.12,,,1949101.0
1534404604.71875,-3.06,,,1946493.0
1534404604.734375,-1.45,,,1944150.0
1534404604.75,-0.08,,,1942754.0
1534404604.765625,1.19,,,1942253.0
1534404604.78125,2.41,,,1941965.0
1534404604.796875,3.53,,,1941915.0
1534404604.8125,4.47,,,1941875.0
1534404604.828125,5.19,,,1942233.0
1534404604.84375,5.7,,,1942734.0
1534404604.859375,6.0,,,1942970.0
1534404604.875,6.09,,,1943758.0
1534404604.890625,5.94,,,1944011.0
1534404604.90625,5.58,,,1941510.0
1534404604.921875,5.13,,,1938364.0
1534404604.9375,4.7,,,1935068.0
1534404604.953125,4.42,,,1932922.0
1534404604.96875,4.2,,,1930964.0
1534404604.984375,3.82,,,1930408.0
1534404605.0,2.95,,,1930253.0
1534404605.015625,1.36,,,1930412.0
1534404605.03125,-0.94,,,1930359.0
1534404605.046875,-3.66,,,1930463.0
1534404605.0625,-6.3,,,1930643.0
1534404605.078125,-8.39,,,1931484.0
1534404605.09375,-9.54,,,1933002.0
1534404605.109375,-9.6,,,1933475.0
1534404605.125,-8.63,,,1932679.0
1534404605.140625,-6.74,,,1929560.0
1534404605.15625,-4.15,,,1926565.0
1534404605.171875,-1.09,,,1924634.0
1534404605.1875,2.19,,,1923050.0
1534404605.203125,5.42,,,1922978.0
1534404605.21875,8.34,,,1922770.0
1534404605.234375,10.71,,,1922551.0
1534404605.25,12.4,,,1922692.0
1534404605.265625,13.35,,,1922984.0
1534404605.28125,13.57,,,1924081.0
1534404605.296875,13.13,,,1924976.0
1534404605.3125,12.22,,,1926528.0
1534404605.328125,11.05,,,1927758.0
1534404605.34375,9.93,,,1928174.0
1534404605.359375,9.08,,,1926612.0
1534404605.375,8.62,,,1923212.0
1534404605.390625,8.45,,,1920557.0
1534404605.40625,8.34,,,1918334.0
1534404605.421875,8.1,,,1916828.0
1534404605.4375,7.61,,,1916493.0
1534404605.453125,6.96,,,1916280.0
1534404605.46875,6.3,,,1916225.0
1534404605.484375,5.74,,,1916581.0
1534404605.5,5.22,,,1916666.0
1534404605.515625,4.52,,,1917528.0
1534404605.53125,3.39,,,1918247.0
1534404605.546875,1.65,,,1919704.0
1534404605.5625,-0.65,,,1920868.0
1534404605.578125,-3.33,,,1921851.0
1534404605.59375,-6.11,,,1920178.0
1534404605.609375,-8.71,,,1917513.0
1534404605.625,-10.94,,,1914623.0
1534404605.640625,-12.59,,,1912176.0
1534404605.65625,-13.5,,,1911242.0
1534404605.671875,-13.5,,,1910982.0
1534404605.6875,-12.54,,,1910875.0
1534404605.703125,-10.74,,,1911133.0
1534404605.71875,-8.32,,,1911404.0
1534404605.734375,-5.57,,,1912028.0
1534404605.75,-2.69,,,1912958.0
1534404605.765625,0.29,,,1914049.0
1534404605.78125,3.4,,,1915312.0
1534404605.796875,6.71,,,1916538.0
1534404605.8125,10.19,,,1917564.0
1534404605.828125,13.72,,,1916551.0
1534404605.84375,17.06,,,1913666.0
1534404605.859375,20.02,,,1911630.0
1534404605.875,22.45,,,1909658.0
1534404605.890625,24.31,,,1908939.0
1534404605.90625,25.7,,,1908821.0
1534404605.921875,26.8,,,1909633.0
1534404605.9375,27.95,,,1910072.0
1534404605.953125,29.48,,,1910444.0
1534404605.96875,31.71,,,1911046.0
1534404605.984375,34.75,,,1911917.0
1534404606.0,38.36,,,1913104.0
1534404606.015625,42.0,,,1914449.0
1534404606.03125,44.87,,,1916208.0
1534404606.046875,46.24,,,1918153.0
1534404606.0625,45.64,,,1917183.0
1534404606.078125,43.12,,,1914672.0
1534404606.09375,39.19,,,1912394.0
1534404606.109375,34.68,,,1910311.0
1534404606.125,30.34,,,1909751.0
1534404606.140625,26.58,,,1909823.0
1534404606.15625,23.38,,,1910536.0
1534404606.171875,20.31,,,1911111.0
1534404606.1875,16.99,,,1912352.0
1534404606.203125,13.26,,,1913470.0
1534404606.21875,9.34,,,1914442.0
1534404606.234375,5.65,,,1915802.0
1534404606.25,2.51,,,1917500.0
1534404606.265625,-0.11,,,1919019.0
1534404606.28125,-2.56,,,1920844.0
1534404606.296875,-5.24,,,1920524.0
1534404606.3125,-8.31,,,1918408.0
1534404606.328125,-11.43,,,1916585.0
1534404606.34375,-13.93,,,1914825.0
1534404606.359375,-15.15,,,1914004.0
1534404606.375,-14.81,,,1914204.0
1534404606.390625,-13.24,,,1914771.0
1534404606.40625,-11.29,,,1915618.0
1534404606.421875,-9.97,,,1916185.0
1534404606.4375,-9.99,,,1917359.0
1534404606.453125,-11.6,,,1918663.0
1534404606.46875,-14.55,,,1920082.0
1534404606.484375,-18.33,,,1922083.0
1534404606.5,-22.36,,,1923836.0
1534404606.515625,-26.24,,,1925538.0
1534404606.53125,-29.74,,,1925409.0
1534404606.546875,-32.7,,,1923691.0
1534404606.5625,-35.1,,,1921948.0
1534404606.578125,-36.9,,,1920414.0
1534404606.59375,-38.13,,,1919602.0
1534404606.609375,-38.81,,,1919590.0
1534404606.625,-39.01,,,1920295.0
1534404606.640625,-38.79,,,1920998.0
