timestamp,bvp,eda,temp,PPG GREEN
1597571032.890625,35.87,0.242113,34.61,2028552.0
1597571032.90625,34.89,0.27542,34.53,2029022.0
1597571032.921875,32.09,0.280544,34.53,2029220.0
1597571032.9375,28.48,0.270296,34.53,2029121.0
1597571032.953125,25.35,0.280544,34.53,2029132.0
1597571032.96875,24.05,0.26261,34.57,2029506.0
1597571032.984375,25.52,0.258767,34.57,2029560.0
1597571033.0,30.02,0.261329,34.57,2032011.0
1597571033.015625,37.09,0.261329,34.57,2030597.0
1597571033.03125,45.76,0.260048,34.57,2029855.0
1597571033.046875,55.05,0.258767,34.57,2033043.0
1597571033.0625,64.25,0.258767,34.57,2030806.0
1597571033.078125,73.13,0.260048,34.57,2030002.0
1597571033.09375,81.63,0.261329,34.57,2033489.0
1597571033.109375,89.6,0.258767,34.57,2034149.0
1597571033.125,96.47,0.257486,34.57,2034567.0
1597571033.140625,101.25,0.261329,34.57,2035006.0
1597571033.15625,102.79,0.261329,34.57,2035795.0
1597571033.171875,100.15,0.26261,34.57,2036284.0
1597571033.1875,92.96,0.260048,34.57,2036886.0
1597571033.203125,81.65,0.260048,34.57,2037131.0
1597571033.21875,67.47,0.26261,34.55,2037537.0
1597571033.234375,52.3,0.263891,34.55,2038073.0
1597571033.25,38.26,0.26261,34.55,2038043.0
1597571033.265625,27.39,0.260048,34.55,2038647.0
1597571033.28125,21.08,0.261329,34.55,2039814.0
1597571033.296875,19.76,0.26261,34.55,2038878.0
1597571033.3125,22.72,0.265172,34.55,2039384.0
1597571033.328125,28.29,0.265172,34.55,2037894.0
1597571033.34375,34.29,0.263891,34.53,2037839.0
1597571033.359375,38.57,0.26261,34.53,2040208.0
1597571033.375,39.73,0.266453,34.53,2040591.0
1597571033.390625,37.41,0.265172,34.53,2040684.0
1597571033.40625,32.27,0.266453,34.5,2041106.0
1597571033.421875,25.72,0.263891,34.5,2041526.0
1597571033.4375,19.47,0.26261,34.5,2041864.0
1597571033.453125,14.98,0.265172,34.5,2042516.0
1597571033.46875,13.04,0.267734,34.53,2042899.0
1597571033.484375,13.69,0.267734,34.53,2043330.0
1597571033.5,16.24,0.265172,34.53,2044523.0
1597571033.515625,19.65,0.265172,34.53,2045012.0
1597571033.53125,22.82,0.266453,34.5,2045590.0
1597571033.546875,24.97,0.266453,34.5,2043707.0
1597571033.5625,25.71,0.266453,34.5,2045995.0
1597571033.578125,25.12,0.263891,34.5,2046267.0
1597571033.59375,23.57,0.263891,34.5,2046436.0
1597571033.609375,21.64,0.266453,34.5,2046430.0
1597571033.625,19.99,0.267734,34.5,2046623.0
1597571033.640625,19.29,0.267734,34.5,2046717.0
1597571033.65625,20.23,0.265172,34.49,2047029.0
1597571033.671875,23.39,0.263891,34.49,2047439.0
1597571033.6875,29.09,0.269015,34.49,2047397.0
1597571033.703125,37.19,0.269015,34.49,2047745.0
1597571033.71875,47.09,0.266453,34.49,2047937.0
1597571033.734375,57.87,0.265172,34.49,2048348.0
1597571033.75,68.72,0.267734,34.49,2048713.0
1597571033.765625,79.33,0.270296,34.49,2049166.0
1597571033.78125,90.06,0.269015,34.47,2049689.0
1597571033.796875,101.94,0.266453,34.47,2050187.0
1597571033.8125,116.38,0.265172,34.47,2050912.0
1597571033.828125,134.95,0.267734,34.47,2051592.0
1597571033.84375,159.27,0.270296,34.45,2052356.0
1597571033.859375,190.65,0.270296,34.45,2053071.0
1597571033.875,229.78,0.267734,34.45,2053763.0
1597571033.890625,275.96,0.266453,34.45,2054437.0
1597571033.90625,326.7,0.271577,34.45,2055130.0
1597571033.921875,377.68,0.270296,34.45,2055743.0
1597571033.9375,423.52,0.270296,34.45,2056379.0
1597571033.953125,459.12,0.267734,34.45,2056437.0
1597571033.96875,480.79,0.267734,34.45,2056715.0
1597571033.984375,487.02,0.269015,34.45,2056850.0
1597571034.0,478.22,0.271577,34.45,2057262.0
1597571034.015625,456.04,0.270296,34.45,2057216.0
1597571034.03125,422.63,0.267734,34.45,2057590.0
1597571034.046875,380.2,0.269015,34.45,2057836.0
1597571034.0625,331.26,0.271577,34.45,2058219.0
1597571034.078125,278.62,0.271577,34.45,2058408.0
1597571034.09375,225.4,0.269015,34.43,2058838.0
1597571034.109375,174.42,0.267734,34.43,2059079.0
1597571034.125,127.44,0.270296,34.43,2059573.0
1597571034.140625,84.49,0.271577,34.43,2059688.0
1597571034.15625,44.01,0.283106,34.41,2060069.0
1597571034.171875,3.15,0.269015,34.41,2060434.0
1597571034.1875,-41.55,0.269015,34.41,2060949.0
1597571034.203125,-93.04,0.272858,34.41,2061103.0
1597571034.21875,-152.35,0.271577,34.41,2061713.0
1597571034.234375,-217.34,0.272858,34.41,2061998.0
1597571034.25,-282.19,0.269015,34.41,2062500.0
1597571034.265625,-338.28,0.270296,34.41,2063669.0
1597571034.28125,-376.71,0.271577,34.41,2062810.0
1597571034.296875,-391.44,0.274139,34.41,2063521.0
1597571034.3125,-381.85,0.274139,34.41,2063909.0
1597571034.328125,-353.47,0.271577,34.41,2064166.0
1597571034.34375,-316.12,0.271577,34.39,2063987.0
1597571034.359375,-280.59,0.272858,34.39,2063902.0
1597571034.375,-255.14,0.27542,34.39,2063949.0
1597571034.390625,-243.49,0.272858,34.39,2064628.0
1597571034.40625,-244.81,0.274139,34.37,2064653.0
1597571034.421875,-255.36,0.274139,34.37,2064495.0
1597571034.4375,-270.61,0.27542,34.37,2065083.0
1597571034.453125,-286.68,0.27542,34.37,2065210.0
1597571034.46875,-300.88,0.271577,34.34,2065365.0
1597571034.484375,-311.36,0.271577,34.34,2065557.0
1597571034.5,-316.75,0.285668,34.34,2065361.0
1597571034.515625,-316.19,0.27542,34.34,2065735.0
1597571034.53125,-309.5,0.271577,34.37,2065695.0
1597571034.546875,-297.55,0.272858,34.37,2067294.0
1597571034.5625,-282.18,0.274139,34.37,2068696.0
1597571034.578125,-265.97,0.27542,34.37,2069531.0
1597571034.59375,-251.47,0.274139,34.34,2069906.0
1597571034.609375,-240.32,0.271577,34.34,2070541.0
1597571034.625,-232.71,0.271577,34.34,2070532.0
1597571034.640625,-227.55,0.274139,34.34,2071118.0
1597571034.65625,-222.93,0.276701,34.34,2071655.0
1597571034.671875,-217.07,0.276701,34.34,2071391.0
1597571034.6875,-209.08,0.272858,34.34,2071656.0
1597571034.703125,-199.41,0.27542,34.34,2071688.0
1597571034.71875,-189.53,0.27542,34.34,2071829.0
1597571034.734375,-181.22,0.277982,34.34,2071528.0
1597571034.75,-175.6,0.27542,34.34,2071713.0
1597571034.765625,-172.49,0.272858,34.34,2071685.0
1597571034.78125,-170.36,0.272858,34.33,2071925.0
1597571034.796875,-166.82,0.27542,34.33,2072094.0
1597571034.8125,-159.64,0.27542,34.33,2071854.0
1597571034.828125,-147.57,0.27542,34.33,2072430.0
1597571034.84375,-130.98,0.272858,34.33,2072663.0
1597571034.859375,-111.67,0.272858,34.33,2072840.0
1597571034.875,-92.17,0.27542,34.33,2073371.0
1597571034.890625,-74.86,0.276701,34.33,2073852.0
1597571034.90625,-61.17,0.27542,34.31,2072598.0
1597571034.921875,-51.28,0.274139,34.31,2073970.0
1597571034.9375,-44.35,0.27542,34.31,2074489.0
1597571034.953125,-39.01,0.27542,34.31,2075037.0
1597571034.96875,-34.09,0.27542,34.29,2075293.0
1597571034.984375,-29.03,0.27542,34.29,2076078.0
1597571035.0,-24.03,0.272858,34.29,2075796.0
1597571035.015625,-19.82,0.27542,34.29,2076721.0
1597571035.03125,-17.26,0.27542,34.29,2076939.0
1597571035.046875,-16.81,0.277982,34.29,2077613.0
1597571035.0625,-18.32,0.276701,34.29,2077208.0
1597571035.078125,-20.96,0.274139,34.29,2077862.0
1597571035.09375,-23.55,0.274139,34.27,2077708.0
1597571035.109375,-25.02,0.276701,34.27,2077694.0
1597571035.125,-24.72,0.277982,34.27,2077823.0
1597571035.140625,-22.74,0.276701,34.27,2077928.0
1597571035.15625,-19.71,0.274139,34.25,2078041.0
1597571035.171875,-16.66,0.272858,34.25,2078004.0
1597571035.1875,-14.57,0.27542,34.25,2078284.0
1597571035.203125,-14.07,0.277982,34.25,2078283.0
1597571035.21875,-14.96,0.277982,34.25,2078169.0
1597571035.234375,-15.9,0.27542,34.25,2078251.0
1597571035.25,-14.18,0.274139,34.25,2078281.0
1597571035.265625,-5.97,0.276701,34.25,2078684.0
1597571035.28125,12.9,0.280544,34.27,2078784.0
1597571035.296875,45.38,0.277982,34.27,2079076.0
1597571035.3125,91.69,0.27542,34.27,2079441.0
1597571035.328125,148.18,0.274139,34.27,2079662.0
1597571035.34375,207.58,0.276701,34.23,2079849.0
1597571035.359375,260.68,0.277982,34.23,2079902.0
1597571035.375,298.87,0.276701,34.23,2080081.0
1597571035.390625,316.6,0.274139,34.23,2081103.0
1597571035.40625,312.63,0.274139,34.23,2082575.0
1597571035.421875,289.7,0.276701,34.23,2083713.0
1597571035.4375,252.93,0.276701,34.23,2083909.0
1597571035.453125,207.91,0.274139,34.23,2084293.0
1597571035.46875,159.3,0.27542,34.23,2084813.0
1597571035.484375,110.56,0.277982,34.23,2084896.0
1597571035.5,64.39,0.276701,34.23,2084641.0
1597571035.515625,23.25,0.279263,34.23,2083955.0
1597571035.53125,-10.59,0.276701,34.18,2084376.0
1597571035.546875,-35.45,0.27542,34.18,2083930.0
1597571035.5625,-51.03,0.276701,34.18,2083972.0
1597571035.578125,-58.71,0.279263,34.18,2084327.0
1597571035.59375,-61.29,0.279263,34.18,2084400.0
1597571035.609375,-62.08,0.27542,34.18,2084406.0
1597571035.625,-63.78,0.27542,34.18,2084625.0
1597571035.640625,-67.89,0.277982,34.18,2084657.0
1597571035.65625,-74.43,0.277982,34.18,2085478.0
1597571035.671875,-82.35,0.279263,34.18,2085893.0
1597571035.6875,-90.18,0.276701,34.18,2086279.0
1597571035.703125,-96.56,0.279263,34.18,2086386.0
1597571035.71875,-100.53,0.276701,34.18,2086760.0
1597571035.734375,-101.53,0.281825,34.18,2087381.0
1597571035.75,-99.35,0.277982,34.18,2087728.0
1597571035.765625,-93.91,0.276701,34.18,2088016.0
1597571035.78125,-85.26,0.281825,34.16,2085134.0
1597571035.796875,-73.57,0.281825,34.16,2084957.0
1597571035.8125,-59.28,0.283106,34.16,2088290.0
1597571035.828125,-43.15,0.280544,34.16,2088809.0
1597571035.84375,-26.31,0.284387,34.16,2089181.0
1597571035.859375,-10.12,0.28823,34.16,2089636.0
1597571035.875,4.15,0.290792,34.16,2089852.0
1597571035.890625,15.62,0.290792,34.16,2089924.0
1597571035.90625,24.07,0.28823,34.16,2089661.0
1597571035.921875,29.87,0.28823,34.16,2089328.0
1597571035.9375,33.8,0.289511,34.16,2089322.0
1597571035.953125,36.66,0.292073,34.16,2089628.0
1597571035.96875,39.04,0.289511,34.13,2089219.0
1597571035.984375,41.14,0.286949,34.13,2089086.0
1597571036.0,43.02,0.286949,34.13,2089548.0
1597571036.015625,44.62,0.28823,34.13,2089769.0
1597571036.03125,46.06,0.290792,34.11,2089418.0
1597571036.046875,47.47,0.290792,34.11,2089917.0
1597571036.0625,48.92,0.286949,34.11,2089839.0
1597571036.078125,50.42,0.285668,34.11,2090407.0
1597571036.09375,51.86,0.28823,34.11,2091390.0
1597571036.109375,53.17,0.28823,34.11,2091468.0
1597571036.125,54.34,0.285668,34.11,2091819.0
1597571036.140625,55.47,0.284387,34.11,2092519.0
1597571036.15625,56.54,0.284387,34.13,2092796.0
1597571036.171875,57.42,0.289511,34.13,2093584.0
1597571036.1875,57.85,0.28823,34.13,2090935.0
1597571036.203125,57.63,0.285668,34.13,2090209.0
1597571036.21875,56.75,0.284387,34.11,2094051.0
1597571036.234375,55.46,0.284387,34.11,2093879.0
1597571036.25,54.1,0.286949,34.11,2094635.0
1597571036.265625,52.88,0.289511,34.11,2094557.0
1597571036.28125,51.71,0.28823,34.09,2094694.0
1597571036.296875,50.26,0.285668,34.09,2094759.0
1597571036.3125,48.17,0.285668,34.09,2094763.0
1597571036.328125,45.29,0.286949,34.09,2094892.0
1597571036.34375,41.79,0.286949,34.07,2094999.0
1597571036.359375,38.07,0.285668,34.07,2094821.0
1597571036.375,34.43,0.284387,34.07,2095234.0
1597571036.390625,31.01,0.283106,34.07,2095608.0
1597571036.40625,27.68,0.286949,34.05,2095683.0
1597571036.421875,24.21,0.286949,34.05,2095919.0
1597571036.4375,20.41,0.28823,34.05,2096308.0
1597571036.453125,16.2,0.285668,34.05,2096572.0
1597571036.46875,11.65,0.284387,34.05,2096665.0
1597571036.484375,6.91,0.28823,34.05,2097243.0
1597571036.5,2.18,0.289511,34.05,2097932.0
1597571036.515625,-2.29,0.28823,34.05,2097554.0
1597571036.53125,-6.23,0.285668,34.05,2098456.0
1597571036.546875,-9.55,0.285668,34.05,2098659.0
1597571036.5625,-12.4,0.290792,34.05,2099600.0
1597571036.578125,-15.18,0.290792,34.05,2099241.0
1597571036.59375,-18.57,0.28823,34.0,2099919.0
1597571036.609375,-23.18,0.286949,34.0,2100524.0
1597571036.625,-29.24,0.28823,34.0,2100704.0
1597571036.640625,-36.38,0.28823,34.0,2101289.0
1597571036.65625,-43.59,0.290792,34.0,2101468.0
1597571036.671875,-49.48,0.28823,34.0,2101504.0
1597571036.6875,-52.73,0.285668,34.0,2101332.0
1597571036.703125,-52.49,0.285668,34.0,2101589.0
1597571036.71875,-48.59,0.289511,33.99,2101645.0
1597571036.734375,-41.47,0.290792,33.99,2101561.0
1597571036.75,-31.89,0.286949,33.99,2101390.0
1597571036.765625,-20.81,0.286949,33.99,2101273.0
1597571036.78125,-9.13,0.289511,33.99,2101716.0
1597571036.796875,2.26,0.290792,33.99,2101778.0
1597571036.8125,12.56,0.290792,33.99,2101998.0
1597571036.828125,21.06,0.28823,33.99,2102020.0
1597571036.84375,27.34,0.286949,33.97,2101998.0
1597571036.859375,31.41,0.28823,33.97,2101435.0
1597571036.875,33.69,0.292073,33.97,2101912.0
1597571036.890625,34.93,0.290792,33.97,2103156.0
1597571036.90625,35.87,0.28823,33.99,2103398.0
1597571036.921875,37.02,0.286949,33.99,2103226.0
1597571036.9375,38.52,0.292073,33.99,2103067.0
1597571036.953125,40.3,0.292073,33.99,2102982.0
1597571036.96875,42.11,0.292073,33.95,2102854.0
1597571036.984375,43.8,0.289511,33.95,2103104.0
1597571037.0,45.27,0.289511,33.95,2103461.0
1597571037.015625,46.47,0.290792,33.95,2103759.0
1597571037.03125,47.48,0.292073,33.93,2104032.0
1597571037.046875,48.36,0.289511,33.93,2104122.0
1597571037.0625,49.19,0.28823,33.93,2104452.0
1597571037.078125,50.03,0.289511,33.93,2104596.0
1597571037.09375,50.85,0.293354,33.91,2104843.0
1597571037.109375,51.47,0.293354,33.91,2104610.0
1597571037.125,51.7,0.289511,33.91,2104830.0
1597571037.140625,51.38,0.28823,33.91,2104987.0
1597571037.15625,50.47,0.292073,33.91,2105335.0
1597571037.171875,49.08,0.292073,33.91,2105260.0
1597571037.1875,47.39,0.292073,33.91,2105445.0
1597571037.203125,45.6,0.289511,33.91,2105537.0
1597571037.21875,43.8,0.289511,33.87,2105938.0
1597571037.234375,41.94,0.290792,33.87,2105970.0
1597571037.25,39.91,0.306164,33.87,2106349.0
1597571037.265625,37.58,0.290792,33.87,2106629.0
1597571037.28125,34.92,0.289511,33.87,2107163.0
1597571037.296875,31.95,0.28823,33.87,2107507.0
1597571037.3125,28.81,0.290792,33.87,2107564.0
1597571037.328125,25.6,0.293354,33.87,2108149.0
1597571037.34375,22.41,0.292073,33.84,2108361.0
1597571037.359375,19.26,0.289511,33.84,2108867.0
1597571037.375,16.13,0.28823,33.84,2108895.0
1597571037.390625,12.99,0.290792,33.84,2109557.0
1597571037.40625,9.78,0.292073,33.83,2109768.0
1597571037.421875,6.46,0.292073,33.83,2110000.0
1597571037.4375,2.96,0.289511,33.83,2109866.0
1597571037.453125,-0.66,0.289511,33.83,2109890.0
1597571037.46875,-4.27,0.290792,33.84,2110066.0
1597571037.484375,-7.68,0.292073,33.84,2110084.0
1597571037.5,-10.74,0.290792,33.84,2110124.0
1597571037.515625,-13.48,0.28823,33.84,2110213.0
1597571037.53125,-16.21,0.28823,33.81,2110224.0
1597571037.546875,-19.46,0.290792,33.81,2110394.0
1597571037.5625,-23.69,0.292073,33.81,2110292.0
1597571037.578125,-29.07,0.290792,33.81,2110426.0
1597571037.59375,-35.25,0.28823,33.81,2110928.0
1597571037.609375,-41.47,0.286949,33.81,2110986.0
1597571037.625,-46.72,0.292073,33.81,2110622.0
1597571037.640625,-50.08,0.292073,33.81,2110544.0
1597571037.65625,-50.87,0.290792,33.81,2110130.0
1597571037.671875,-48.74,0.28823,33.81,2110284.0
1597571037.6875,-43.67,0.28823,33.81,2110453.0
1597571037.703125,-36.01,0.289511,33.81,2110885.0
1597571037.71875,-26.43,0.289511,33.79,2110860.0
1597571037.734375,-15.9,0.290792,33.79,2111297.0
1597571037.75,-5.53,0.286949,33.79,2111294.0
1597571037.765625,3.7,0.289511,33.79,2111870.0
1597571037.78125,11.16,0.286949,33.77,2112014.0
1597571037.796875,16.74,0.289511,33.77,2112034.0
1597571037.8125,20.71,0.290792,33.77,2112272.0
1597571037.828125,23.5,0.286949,33.77,2112742.0
1597571037.84375,25.5,0.28823,33.75,2112824.0
1597571037.859375,26.97,0.290792,33.75,2112498.0
1597571037.875,28.09,0.290792,33.75,2112230.0
1597571037.890625,29.07,0.290792,33.75,2112581.0
1597571037.90625,30.12,0.286949,33.77,2112286.0
1597571037.921875,31.42,0.285668,33.77,2112338.0
1597571037.9375,32.99,0.28823,33.77,2112278.0
1597571037.953125,34.63,0.289511,33.77,2112473.0
1597571037.96875,36.03,0.285668,33.75,2112189.0
1597571037.984375,36.89,0.285668,33.75,2112623.0
1597571038.0,37.11,0.285668,33.75,2112648.0
1597571038.015625,36.8,0.289511,33.75,2112703.0
1597571038.03125,36.23,0.289511,33.75,2112773.0
1597571038.046875,35.7,0.285668,33.75,2113215.0
1597571038.0625,35.39,0.285668,33.75,2113634.0
1597571038.078125,35.36,0.28823,33.75,2113658.0
1597571038.09375,35.48,0.289511,33.73,2113940.0
1597571038.109375,35.49,0.289511,33.73,2114592.0
1597571038.125,35.09,0.285668,33.73,2114651.0
1597571038.140625,34.02,0.285668,33.73,2115015.0
1597571038.15625,32.22,0.28823,33.73,2115088.0
1597571038.171875,29.9,0.289511,33.73,2115272.0
1597571038.1875,27.48,0.289511,33.73,2115587.0
1597571038.203125,25.47,0.28823,33.73,2116050.0
1597571038.21875,24.18,0.285668,33.71,2115698.0
1597571038.234375,23.56,0.286949,33.71,2115924.0
1597571038.25,23.26,0.289511,33.71,2115929.0
1597571038.265625,22.74,0.28823,33.71,2115874.0
1597571038.28125,21.62,0.284387,33.73,2115616.0
1597571038.296875,19.74,0.284387,33.73,2115311.0
1597571038.3125,17.3,0.286949,33.73,2114898.0
1597571038.328125,14.57,0.28823,33.73,2115537.0
1597571038.34375,11.83,0.285668,33.73,2116703.0
1597571038.359375,9.2,0.284387,33.73,2117849.0
1597571038.375,6.68,0.286949,33.73,2118670.0
1597571038.390625,4.21,0.28823,33.73,2118984.0
1597571038.40625,1.76,0.28823,33.71,2119136.0
1597571038.421875,-0.66,0.284387,33.71,2119569.0
1597571038.4375,-3.07,0.286949,33.71,2119428.0
1597571038.453125,-5.49,0.289511,33.71,2119522.0
1597571038.46875,-7.99,0.28823,33.73,2119515.0
1597571038.484375,-10.56,0.28823,33.73,2119482.0
1597571038.5,-13.15,0.285668,33.73,2119514.0
1597571038.515625,-15.73,0.28823,33.73,2119765.0
1597571038.53125,-18.29,0.290792,33.68,2119783.0
1597571038.546875,-20.98,0.290792,33.68,2120142.0
1597571038.5625,-23.99,0.285668,33.68,2120239.0
1597571038.578125,-27.48,0.285668,33.68,2120145.0
1597571038.59375,-31.38,0.284387,33.68,2120437.0
1597571038.609375,-35.34,0.289511,33.68,2120620.0
1597571038.625,-38.76,0.290792,33.68,2120766.0
1597571038.640625,-40.92,0.285668,33.68,2120514.0
1597571038.65625,-41.19,0.284387,33.71,2120553.0
1597571038.671875,-39.22,0.28823,33.71,2120867.0
1597571038.6875,-35.04,0.289511,33.71,2120737.0
1597571038.703125,-29.01,0.28823,33.71,2120988.0
1597571038.71875,-21.72,0.285668,33.71,2120805.0
1597571038.734375,-13.87,0.284387,33.71,2121274.0
1597571038.75,-6.11,0.289511,33.71,2121890.0
1597571038.765625,1.03,0.28823,33.71,2121882.0
1597571038.78125,7.19,0.28823,33.71,2122551.0
1597571038.796875,12.14,0.285668,33.71,2122636.0
1597571038.8125,15.83,0.284387,33.71,2123147.0
1597571038.828125,18.31,0.289511,33.71,2123144.0
1597571038.84375,19.79,0.289511,33.68,2123621.0
1597571038.859375,20.59,0.289511,33.68,2123898.0
1597571038.875,21.07,0.284387,33.68,2124305.0
1597571038.890625,21.5,0.285668,33.68,2124545.0
1597571038.90625,22.05,0.28823,33.71,2124542.0
1597571038.921875,22.69,0.289511,33.71,2124757.0
1597571038.9375,23.28,0.285668,33.71,2125163.0
1597571038.953125,23.65,0.285668,33.71,2125472.0
1597571038.96875,23.69,0.28823,33.68,2125698.0
1597571038.984375,23.43,0.290792,33.68,2125830.0
1597571039.0,22.99,0.289511,33.68,2125964.0
1597571039.015625,22.46,0.286949,33.68,2125893.0
1597571039.03125,21.92,0.286949,33.71,2125962.0
1597571039.046875,21.34,0.290792,33.71,2125492.0
1597571039.0625,20.67,0.292073,33.71,2125515.0
1597571039.078125,19.86,0.293354,33.71,2125734.0
1597571039.09375,18.94,0.292073,33.68,2125334.0
1597571039.109375,18.04,0.289511,33.68,2125582.0
1597571039.125,17.24,0.292073,33.68,2125482.0
1597571039.140625,16.58,0.294635,33.68,2125330.0
1597571039.15625,15.98,0.293354,33.66,2125449.0
1597571039.171875,15.27,0.290792,33.66,2125374.0
1597571039.1875,14.29,0.290792,33.66,2125291.0
1597571039.203125,12.92,0.293354,33.66,2125836.0
1597571039.21875,11.21,0.294635,33.68,2125525.0
1597571039.234375,9.31,0.294635,33.68,2125661.0
1597571039.25,7.43,0.290792,33.68,2126092.0
1597571039.265625,5.71,0.290792,33.68,2125882.0
1597571039.28125,4.19,0.295916,33.66,2126143.0
1597571039.296875,2.78,0.294635,33.66,2126224.0
1597571039.3125,1.38,0.297197,33.66,2126592.0
1597571039.328125,-0.09,0.294635,33.66,2126605.0
1597571039.34375,-1.58,0.294635,33.66,2126884.0
1597571039.359375,-2.97,0.298478,33.66,2126603.0
1597571039.375,-4.16,0.306164,33.66,2127074.0
1597571039.390625,-5.12,0.307445,33.66,2127347.0
1597571039.40625,-5.96,0.303602,33.66,2127468.0
1597571039.421875,-6.84,0.302321,33.66,2127278.0
1597571039.4375,-7.91,0.307445,33.66,2127078.0
1597571039.453125,-9.27,0.307445,33.66,2126962.0
1597571039.46875,-10.88,0.308726,33.66,2127035.0
1597571039.484375,-12.63,0.306164,33.66,2126774.0
1597571039.5,-14.35,0.308726,33.66,2126949.0
1597571039.515625,-15.94,0.311288,33.66,2127161.0
1597571039.53125,-17.35,0.312569,33.65,2127083.0
1597571039.546875,-18.66,0.308726,33.65,2127280.0
1597571039.5625,-19.99,0.307445,33.65,2127514.0
1597571039.578125,-21.54,0.310007,33.65,2127753.0
1597571039.59375,-23.48,0.311288,33.65,2127881.0
1597571039.609375,-25.94,0.311288,33.65,2127443.0
1597571039.625,-28.89,0.306164,33.65,2128064.0
1597571039.640625,-32.12,0.307445,33.65,2128537.0
1597571039.65625,-35.23,0.311288,33.68,2128268.0
1597571039.671875,-37.64,0.313851,33.68,2128818.0
1597571039.6875,-38.79,0.316413,33.68,2128675.0
1597571039.703125,-38.2,0.315132,33.68,2129113.0
1597571039.71875,-35.65,0.315132,33.65,2129319.0
1597571039.734375,-31.25,0.317694,33.65,2129625.0
1597571039.75,-25.41,0.320256,33.65,2129901.0
1597571039.765625,-18.74,0.320256,33.65,2130100.0
1597571039.78125,-11.93,0.318975,33.65,2130339.0
1597571039.796875,-5.59,0.320256,33.65,2129957.0
1597571039.8125,-0.19,0.32538,33.65,2129849.0
1597571039.828125,4.03,0.327942,33.65,2129821.0
1597571039.84375,7.01,0.330504,33.65,2129784.0
1597571039.859375,8.9,0.330504,33.65,2129780.0
1597571039.875,9.94,0.334347,33.65,2129729.0
1597571039.890625,10.46,0.333066,33.65,2129901.0
1597571039.90625,10.73,0.334347,33.65,2130110.0
1597571039.921875,10.96,0.333066,33.65,2130128.0
1597571039.9375,11.27,0.333066,33.65,2129623.0
1597571039.953125,11.67,0.333066,33.65,2130179.0
1597571039.96875,12.11,0.333066,33.66,2131050.0
1597571039.984375,12.54,0.335628,33.66,2131563.0
1597571040.0,12.88,0.333066,33.66,2131645.0
1597571040.015625,13.12,0.334347,33.66,2131853.0
1597571040.03125,13.28,0.335628,33.66,2131639.0
1597571040.046875,13.41,0.336909,33.66,2131946.0
1597571040.0625,13.57,0.335628,33.66,2131964.0
1597571040.078125,13.82,0.334347,33.66,2132552.0
1597571040.09375,14.09,0.333066,33.65,2132606.0
1597571040.109375,14.3,0.334347,33.65,2133138.0
1597571040.125,14.31,0.33819,33.65,2133162.0
1597571040.140625,14.04,0.339471,33.65,2132983.0
1597571040.15625,13.48,0.336909,33.65,2133148.0
1597571040.171875,12.73,0.335628,33.65,2133185.0
1597571040.1875,11.91,0.33819,33.65,2133263.0
1597571040.203125,11.15,0.339471,33.65,2133457.0
1597571040.21875,10.5,0.340752,33.65,2133461.0
1597571040.234375,9.97,0.33819,33.65,2133201.0
1597571040.25,9.56,0.342033,33.65,2132813.0
1597571040.265625,9.27,0.342033,33.65,2132264.0
1597571040.28125,9.13,0.342033,33.66,2131991.0
1597571040.296875,9.13,0.342033,33.66,2132095.0
1597571040.3125,9.15,0.33819,33.66,2131871.0
1597571040.328125,9.04,0.33819,33.66,2131596.0
1597571040.34375,8.59,0.336909,33.63,2131779.0
1597571040.359375,7.67,0.340752,33.63,2131535.0
1597571040.375,6.26,0.340752,33.63,2131755.0
1597571040.390625,4.54,0.339471,33.63,2131449.0
1597571040.40625,2.72,0.340752,33.63,2131907.0
1597571040.421875,0.94,0.33819,33.63,2131962.0
1597571040.4375,-0.73,0.343314,33.63,2131837.0
1597571040.453125,-2.35,0.343314,33.63,2132366.0
1597571040.46875,-4.07,0.339471,33.63,2132367.0
1597571040.484375,-5.99,0.33819,33.63,2132509.0
1597571040.5,-8.1,0.340752,33.63,2132774.0
1597571040.515625,-10.35,0.343314,33.63,2133128.0
1597571040.53125,-12.62,0.343314,33.65,2133426.0
1597571040.546875,-14.81,0.340752,33.65,2133470.0
1597571040.5625,-16.89,0.342033,33.65,2133875.0
1597571040.578125,-18.89,0.342033,33.65,2134012.0
1597571040.59375,-20.86,0.344595,33.65,2134429.0
1597571040.609375,-22.89,0.345876,33.65,2134524.0
1597571040.625,-25.04,0.344595,33.65,2134454.0
1597571040.640625,-27.33,0.343314,33.65,2134386.0
1597571040.65625,-29.75,0.342033,33.66,2135105.0
1597571040.671875,-32.18,0.344595,33.66,2135288.0
1597571040.6875,-34.4,0.349719,33.66,2135697.0
1597571040.703125,-36.05,0.347157,33.66,2135722.0
1597571040.71875,-36.78,0.343314,33.66,2135875.0
1597571040.734375,-36.26,0.343314,33.66,2135505.0
1597571040.75,-34.39,0.347157,33.66,2135465.0
1597571040.765625,-31.23,0.347157,33.66,2135712.0
1597571040.78125,-27.1,0.345876,33.66,2135823.0
1597571040.796875,-22.41,0.343314,33.66,2136151.0
1597571040.8125,-17.59,0.343314,33.66,2136294.0
1597571040.828125,-12.98,0.348438,33.66,2136269.0
1597571040.84375,-8.77,0.348438,33.65,2136575.0
1597571040.859375,-5.04,0.348438,33.65,2136628.0
1597571040.875,-1.89,0.345876,33.65,2136816.0
1597571040.890625,0.56,0.343314,33.65,2137396.0
1597571040.90625,2.13,0.345876,33.66,2137323.0
1597571040.921875,2.68,0.348438,33.66,2137426.0
1597571040.9375,2.16,0.348438,33.66,2137929.0
1597571040.953125,0.83,0.345876,33.66,2137986.0
1597571040.96875,-0.85,0.345876,33.65,2138157.0
1597571040.984375,-2.3,0.347157,33.65,2138255.0
1597571041.0,-3.01,0.349719,33.65,2138473.0
1597571041.015625,-2.82,0.351,33.65,2138301.0
1597571041.03125,-1.99,0.359967,33.65,2138389.0
1597571041.046875,-1.14,0.347157,33.65,2137869.0
1597571041.0625,-1.01,0.352281,33.65,2137941.0
1597571041.078125,-2.07,0.353562,33.65,2137664.0
1597571041.09375,-4.27,0.352281,33.66,2137768.0
1597571041.109375,-7.1,0.348438,33.66,2137571.0
1597571041.125,-9.73,0.351,33.66,2137714.0
1597571041.140625,-11.42,0.353562,33.66,2137579.0
1597571041.15625,-11.95,0.353562,33.66,2137606.0
1597571041.171875,-11.69,0.353562,33.66,2137768.0
1597571041.1875,-11.51,0.351,33.66,2137606.0
1597571041.203125,-12.33,0.348438,33.66,2137821.0
1597571041.21875,-14.75,0.351,33.65,2138008.0
1597571041.234375,-18.64,0.352281,33.65,2137937.0
1597571041.25,-23.31,0.353562,33.65,2138252.0
1597571041.265625,-27.71,0.352281,33.65,2138688.0
1597571041.28125,-30.93,0.352281,33.66,2138673.0
1597571041.296875,-32.51,0.348438,33.66,2139030.0
1597571041.3125,-32.6,0.353562,33.66,2139442.0
1597571041.328125,-31.82,0.353562,33.66,2139255.0
1597571041.34375,-31.03,0.352281,33.65,2139637.0
1597571041.359375,-31.01,0.351,33.65,2139846.0
1597571041.375,-32.28,0.352281,33.65,2139789.0
1597571041.390625,-34.84,0.357405,33.65,2140071.0
1597571041.40625,-37.87,0.359967,33.65,2139887.0
1597571041.421875,-39.52,0.377902,33.65,2140541.0
1597571041.4375,-36.99,0.372778,33.65,2140051.0
1597571041.453125,-27.16,0.371497,33.65,2141106.0
1597571041.46875,-7.64,0.372778,33.66,2141706.0
1597571041.484375,21.95,0.374059,33.66,2142070.0
1597571041.5,59.25,0.372778,33.66,2140415.0
1597571041.515625,99.29,0.372778,33.66,2139678.0
1597571041.53125,135.64,0.368935,33.65,2142066.0
1597571041.546875,162.25,0.370216,33.65,2141249.0
1597571041.5625,175.02,0.372778,33.65,2144116.0
1597571041.578125,172.7,0.372778,33.65,2146491.0
1597571041.59375,156.73,0.371497,33.65,2147549.0
1597571041.609375,130.32,0.367653,33.65,2147623.0
1597571041.625,97.29,0.370216,33.65,2147791.0
1597571041.640625,61.34,0.370216,33.65,2147802.0
1597571041.65625,25.59,0.370216,33.65,2148114.0
1597571041.671875,-7.23,0.367653,33.65,2148205.0
1597571041.6875,-34.79,0.368935,33.65,2148721.0
1597571041.703125,-55.19,0.367653,33.65,2148989.0
1597571041.71875,-67.29,0.370216,33.66,2149939.0
1597571041.734375,-71.07,0.371497,33.66,2149147.0
1597571041.75,-67.78,0.367653,33.66,2150738.0
1597571041.765625,-59.74,0.370216,33.66,2151455.0
1597571041.78125,-49.8,0.366372,33.66,2151729.0
1597571041.796875,-40.48,0.368935,33.66,2152122.0
1597571041.8125,-33.37,0.370216,33.66,2152351.0
1597571041.828125,-28.84,0.367653,33.66,2152546.0
1597571041.84375,-26.21,0.368935,33.65,2152660.0
1597571041.859375,-24.39,0.365091,33.65,2152321.0
1597571041.875,-22.46,0.366372,33.65,2152340.0
1597571041.890625,-20.14,0.370216,33.65,2152224.0
1597571041.90625,-17.76,0.365091,33.65,2152165.0
1597571041.921875,-15.85,0.365091,33.65,2152254.0
1597571041.9375,-14.76,0.365091,33.65,2152367.0
1597571041.953125,-14.3,0.366372,33.65,2152419.0
1597571041.96875,-13.91,0.368935,33.65,2152387.0
1597571041.984375,-12.93,0.368935,33.65,2152380.0
1597571042.0,-11.01,0.365091,33.65,2152860.0
1597571042.015625,-8.35,0.36381,33.65,2152527.0
1597571042.03125,-5.5,0.366372,33.63,2152836.0
1597571042.046875,-3.04,0.368935,33.63,2153077.0
1597571042.0625,-1.34,0.367653,33.63,2152823.0
1597571042.078125,-0.34,0.36381,33.63,2152876.0
1597571042.09375,0.3,0.36381,33.66,2153076.0
1597571042.109375,0.97,0.366372,33.66,2153063.0
1597571042.125,1.9,0.368935,33.66,2153986.0
1597571042.140625,3.13,0.368935,33.66,2153444.0
1597571042.15625,4.51,0.368935,33.65,2153777.0
1597571042.171875,5.8,0.366372,33.65,2154227.0
1597571042.1875,6.82,0.370216,33.65,2154425.0
1597571042.203125,7.47,0.371497,33.65,2154451.0
1597571042.21875,7.74,0.371497,33.65,2154876.0
1597571042.234375,7.69,0.370216,33.65,2154800.0
1597571042.25,7.48,0.368935,33.65,2154992.0
1597571042.265625,7.24,0.372778,33.65,2155097.0
1597571042.28125,7.08,0.374059,33.65,2153511.0
1597571042.296875,6.97,0.374059,33.65,2152667.0
1597571042.3125,6.8,0.370216,33.65,2152676.0
1597571042.328125,6.35,0.372778,33.65,2152785.0
1597571042.34375,5.46,0.371497,33.65,2153097.0
1597571042.359375,4.07,0.372778,33.65,2152702.0
1597571042.375,2.31,0.372778,33.65,2152576.0
1597571042.390625,0.38,0.370216,33.65,2152453.0
1597571042.40625,-1.51,0.368935,33.66,2152485.0
1597571042.421875,-3.2,0.370216,33.66,2152643.0
1597571042.4375,-4.7,0.374059,33.66,2152438.0
1597571042.453125,-6.05,0.379183,33.66,2152727.0
1597571042.46875,-7.38,0.370216,33.65,2152924.0
1597571042.484375,-8.8,0.370216,33.65,2153278.0
1597571042.5,-10.34,0.371497,33.65,2153756.0
1597571042.515625,-11.92,0.37534,33.65,2153765.0
1597571042.53125,-13.45,0.37534,33.65,2153976.0
1597571042.546875,-14.82,0.37534,33.65,2154595.0
1597571042.5625,-16.05,0.374059,33.65,2154451.0
1597571042.578125,-17.31,0.376621,33.65,2154653.0
1597571042.59375,-18.81,0.37534,33.63,2154879.0
1597571042.609375,-20.79,0.377902,33.63,2155020.0
1597571042.625,-23.37,0.376621,33.63,2155074.0
1597571042.640625,-26.49,0.374059,33.63,2155411.0
1597571042.65625,-29.93,0.37534,33.65,2155336.0
1597571042.671875,-33.26,0.37534,33.65,2155303.0
1597571042.6875,-35.97,0.37534,33.65,2155760.0
1597571042.703125,-37.49,0.376621,33.65,2155259.0
1597571042.71875,-37.35,0.374059,33.65,2155221.0
1597571042.734375,-35.29,0.372778,33.65,2155514.0
1597571042.75,-31.39,0.377902,33.65,2155665.0
1597571042.765625,-26.0,0.379183,33.65,2155778.0
1597571042.78125,-19.75,0.377902,33.65,2155581.0
1597571042.796875,-13.37,0.37534,33.65,2155625.0
1597571042.8125,-7.5,0.377902,33.65,2155850.0
1597571042.828125,-2.63,0.380464,33.65,2156176.0
1597571042.84375,1.04,0.380464,33.66,2156472.0
1597571042.859375,3.55,0.380464,33.66,2156734.0
1597571042.875,5.13,0.377902,33.66,2156699.0
1597571042.890625,6.16,0.37534,33.66,2157094.0
1597571042.90625,7.01,0.37534,33.65,2157372.0
1597571042.921875,7.93,0.379183,33.65,2157619.0
1597571042.9375,9.02,0.377902,33.65,2157667.0
1597571042.953125,10.23,0.379183,33.65,2157940.0
1597571042.96875,11.42,0.377902,33.63,2158308.0
1597571042.984375,12.54,0.376621,33.63,2158257.0
1597571043.0,13.56,0.377902,33.63,2158743.0
1597571043.015625,14.52,0.380464,33.63,2159178.0
1597571043.03125,15.42,0.380464,33.63,2159118.0
1597571043.046875,16.23,0.37534,33.63,2158582.0
1597571043.0625,16.89,0.377902,33.63,2158167.0
1597571043.078125,17.4,0.376621,33.63,2158615.0
1597571043.09375,17.79,0.377902,33.63,2160112.0
1597571043.109375,18.1,0.381745,33.63,2160670.0
1597571043.125,18.36,0.377902,33.63,2161162.0
1597571043.140625,18.51,0.37534,33.63,2161251.0
1597571043.15625,18.4,0.37534,33.65,2160896.0
1597571043.171875,17.9,0.377902,33.65,2161121.0
1597571043.1875,16.92,0.380464,33.65,2160794.0
1597571043.203125,15.54,0.380464,33.65,2160947.0
1597571043.21875,13.86,0.379183,33.65,2160939.0
1597571043.234375,12.1,0.376621,33.65,2160611.0
1597571043.25,10.4,0.377902,33.65,2160917.0
1597571043.265625,8.93,0.379183,33.65,2160983.0
1597571043.28125,7.79,0.376621,33.63,2161061.0
1597571043.296875,7.04,0.374059,33.63,2160967.0
1597571043.3125,6.62,0.370216,33.63,2161495.0
1597571043.328125,6.35,0.368935,33.63,2161954.0
1597571043.34375,5.95,0.371497,33.65,2162399.0
1597571043.359375,5.15,0.37534,33.65,2162460.0
1597571043.375,3.8,0.374059,33.65,2162445.0
1597571043.390625,2.02,0.37534,33.65,2162665.0
1597571043.40625,0.05,0.37534,33.63,2162801.0
1597571043.421875,-1.79,0.377902,33.63,2163047.0
1597571043.4375,-3.37,0.377902,33.63,2162920.0
1597571043.453125,-4.82,0.37534,33.63,2163307.0
1597571043.46875,-6.42,0.374059,33.61,2163812.0
1597571043.484375,-8.45,0.372778,33.61,2163739.0
1597571043.5,-11.02,0.37534,33.61,2163791.0
1597571043.515625,-13.96,0.377902,33.61,2164209.0
1597571043.53125,-16.94,0.377902,33.63,2163934.0
1597571043.546875,-19.68,0.374059,33.63,2163584.0
1597571043.5625,-22.09,0.372778,33.63,2163707.0
1597571043.578125,-24.3,0.376621,33.63,2163780.0
1597571043.59375,-26.6,0.376621,33.63,2163960.0
1597571043.609375,-29.29,0.376621,33.63,2163586.0
1597571043.625,-32.58,0.372778,33.63,2163861.0
1597571043.640625,-36.45,0.37534,33.63,2164019.0
1597571043.65625,-40.71,0.372778,33.63,2164073.0
1597571043.671875,-44.92,0.376621,33.63,2164150.0
1597571043.6875,-48.5,0.37534,33.63,2164358.0
1597571043.703125,-50.75,0.371497,33.63,2164582.0
1597571043.71875,-51.05,0.37534,33.61,2164310.0
1597571043.734375,-49.01,0.372778,33.61,2164324.0
1597571043.75,-44.69,0.37534,33.61,2164713.0
1597571043.765625,-38.6,0.376621,33.61,2165060.0
1597571043.78125,-31.5,0.376621,33.61,2164963.0
1597571043.796875,-24.21,0.374059,33.61,2165461.0
1597571043.8125,-17.31,0.37534,33.61,2165782.0
1597571043.828125,-11.07,0.379183,33.61,2166187.0
1597571043.84375,-5.5,0.377902,33.61,2166859.0
1597571043.859375,-0.54,0.376621,33.61,2167026.0
1597571043.875,3.79,0.374059,33.61,2167096.0
1597571043.890625,7.36,0.37534,33.61,2167390.0
1597571043.90625,10.08,0.37534,33.61,2167774.0
1597571043.921875,11.97,0.376621,33.61,2168194.0
1597571043.9375,13.25,0.376621,33.61,2168106.0
1597571043.953125,14.33,0.376621,33.61,2168238.0
1597571043.96875,15.54,0.376621,33.59,2168263.0
1597571043.984375,17.02,0.372778,33.59,2168232.0
1597571044.0,18.66,0.37534,33.59,2168421.0
1597571044.015625,20.17,0.376621,33.59,2168649.0
1597571044.03125,21.32,0.376621,33.59,2168606.0
1597571044.046875,22.08,0.372778,33.59,2168588.0
1597571044.0625,22.66,0.374059,33.59,2168450.0
1597571044.078125,23.4,0.37534,33.59,2168897.0
1597571044.09375,24.61,0.37534,33.57,2168953.0
1597571044.109375,26.33,0.376621,33.57,2169088.0
1597571044.125,28.34,0.386869,33.57,2169359.0
1597571044.140625,30.17,0.371497,33.57,2169136.0
1597571044.15625,31.31,0.374059,33.55,2169541.0
1597571044.171875,31.42,0.37534,33.55,2169764.0
1597571044.1875,30.4,0.376621,33.55,2170211.0
1597571044.203125,28.43,0.371497,33.55,2170317.0
1597571044.21875,25.95,0.374059,33.55,2170577.0
1597571044.234375,23.4,0.374059,33.55,2170557.0
1597571044.25,21.07,0.374059,33.55,2171034.0
1597571044.265625,19.01,0.37534,33.55,2171215.0
1597571044.28125,17.02,0.372778,33.55,2171366.0
1597571044.296875,14.83,0.371497,33.55,2171425.0
1597571044.3125,12.27,0.374059,33.55,2171661.0
1597571044.328125,9.45,0.376621,33.55,2171685.0
1597571044.34375,6.7,0.376621,33.55,2171498.0
1597571044.359375,4.35,0.374059,33.55,2171361.0
1597571044.375,2.54,0.372778,33.55,2171448.0
1597571044.390625,1.07,0.371497,33.55,2171374.0
1597571044.40625,-0.47,0.376621,33.55,2171371.0
1597571044.421875,-2.49,0.37534,33.55,2171615.0
1597571044.4375,-5.14,0.37534,33.55,2171402.0
1597571044.453125,-8.24,0.374059,33.55,2171561.0
1597571044.46875,-11.45,0.371497,33.53,2171630.0
1597571044.484375,-14.42,0.374059,33.53,2171840.0
1597571044.5,-17.07,0.37534,33.53,2172103.0
1597571044.515625,-19.53,0.374059,33.53,2172018.0
1597571044.53125,-22.09,0.374059,33.53,2172306.0
1597571044.546875,-25.01,0.370216,33.53,2172361.0
1597571044.5625,-28.46,0.370216,33.53,2172580.0
1597571044.578125,-32.48,0.37534,33.53,2172813.0
1597571044.59375,-36.98,0.372778,33.53,2172805.0
1597571044.609375,-41.72,0.374059,33.53,2173116.0
1597571044.625,-46.21,0.372778,33.53,2173177.0
1597571044.640625,-49.74,0.370216,33.53,2173375.0
1597571044.65625,-51.42,0.370216,33.49,2173879.0
1597571044.671875,-50.51,0.372778,33.49,2173696.0
1597571044.6875,-46.66,0.371497,33.49,2174113.0
1597571044.703125,-40.13,0.367653,33.49,2174064.0
1597571044.71875,-31.75,0.371497,33.5,2174617.0
1597571044.734375,-22.63,0.368935,33.5,2174304.0
1597571044.75,-13.88,0.371497,33.5,2174319.0
1597571044.765625,-6.21,0.372778,33.5,2173985.0
1597571044.78125,0.16,0.368935,33.5,2173955.0
1597571044.796875,5.38,0.367653,33.5,2173790.0
1597571044.8125,9.76,0.367653,33.5,2173514.0
1597571044.828125,13.62,0.372778,33.5,2173896.0
1597571044.84375,17.13,0.372778,33.47,2173586.0
1597571044.859375,20.31,0.371497,33.47,2173449.0
1597571044.875,23.09,0.368935,33.47,2173266.0
1597571044.890625,25.42,0.367653,33.47,2173407.0
1597571044.90625,27.21,0.370216,33.49,2173073.0
1597571044.921875,28.4,0.371497,33.49,2173108.0
1597571044.9375,28.99,0.370216,33.49,2173408.0
1597571044.953125,29.06,0.370216,33.49,2173562.0
1597571044.96875,28.81,0.367653,33.49,2173591.0
1597571044.984375,28.44,0.368935,33.49,2173482.0
1597571045.0,28.23,0.370216,33.49,2174029.0
1597571045.015625,28.33,0.372778,33.49,2174115.0
1597571045.03125,28.76,0.368935,33.49,2174053.0
1597571045.046875,29.42,0.367653,33.49,2174620.0
1597571045.0625,30.16,0.372778,33.49,2174644.0
1597571045.078125,30.85,0.370216,33.49,2175107.0
1597571045.09375,31.39,0.370216,33.45,2175333.0
1597571045.109375,31.67,0.367653,33.45,2175755.0
1597571045.125,31.63,0.367653,33.45,2175821.0
1597571045.140625,31.16,0.367653,33.45,2176155.0
1597571045.15625,30.28,0.370216,33.45,2176210.0
1597571045.171875,29.08,0.371497,33.45,2176388.0
1597571045.1875,27.74,0.371497,33.45,2175945.0
1597571045.203125,26.45,0.368935,33.45,2176249.0
1597571045.21875,25.29,0.370216,33.43,2175638.0
1597571045.234375,24.22,0.368935,33.43,2175851.0
1597571045.25,23.13,0.371497,33.43,2174888.0
1597571045.265625,21.94,0.370216,33.43,2174788.0
1597571045.28125,20.59,0.367653,33.47,2176067.0
1597571045.296875,19.14,0.366372,33.47,2178968.0
1597571045.3125,17.6,0.366372,33.47,2180647.0
1597571045.328125,15.95,0.368935,33.47,2181158.0
1597571045.34375,14.18,0.371497,33.45,2180733.0
1597571045.359375,12.24,0.370216,33.45,2180387.0
1597571045.375,10.21,0.366372,33.45,2180251.0
1597571045.390625,8.2,0.366372,33.45,2179915.0
1597571045.40625,6.32,0.368935,33.47,2179490.0
1597571045.421875,4.58,0.370216,33.47,2179423.0
1597571045.4375,2.86,0.372778,33.47,2179421.0
1597571045.453125,0.92,0.367653,33.47,2179451.0
1597571045.46875,-1.49,0.367653,33.47,2179635.0
1597571045.484375,-4.53,0.368935,33.47,2179511.0
1597571045.5,-8.12,0.371497,33.47,2179880.0
1597571045.515625,-12.01,0.370216,33.47,2179987.0
1597571045.53125,-15.81,0.367653,33.45,2179973.0
1597571045.546875,-19.19,0.366372,33.45,2180045.0
1597571045.5625,-21.97,0.368935,33.45,2180102.0
1597571045.578125,-24.28,0.371497,33.45,2180380.0
1597571045.59375,-26.49,0.370216,33.49,2180590.0
1597571045.609375,-29.1,0.371497,33.49,2180684.0
1597571045.625,-32.54,0.366372,33.49,2180307.0
1597571045.640625,-37.01,0.366372,33.49,2180239.0
1597571045.65625,-42.36,0.368935,33.47,2180230.0
1597571045.671875,-47.98,0.370216,33.47,2180056.0
1597571045.6875,-52.99,0.370216,33.47,2179995.0
1597571045.703125,-56.34,0.368935,33.47,2180091.0
1597571045.71875,-57.12,0.366372,33.45,2179869.0
1597571045.734375,-54.79,0.367653,33.45,2179673.0
1597571045.75,-49.32,0.368935,33.45,2179633.0
1597571045.765625,-41.28,0.368935,33.45,2179790.0
1597571045.78125,-31.63,0.365091,33.47,2179699.0
1597571045.796875,-21.55,0.365091,33.47,2179679.0
1597571045.8125,-12.1,0.367653,33.47,2180113.0
1597571045.828125,-4.07,0.367653,33.47,2180137.0
1597571045.84375,2.18,0.368935,33.49,2180255.0
1597571045.859375,6.64,0.368935,33.49,2180277.0
1597571045.875,9.55,0.367653,33.49,2180493.0
1597571045.890625,11.39,0.370216,33.49,2180725.0
1597571045.90625,12.69,0.365091,33.45,2180763.0
1597571045.921875,13.95,0.368935,33.45,2181207.0
1597571045.9375,15.48,0.370216,33.45,2181036.0
1597571045.953125,17.32,0.368935,33.45,2181181.0
1597571045.96875,19.23,0.36381,33.47,2181225.0
1597571045.984375,20.82,0.36381,33.47,2181557.0
1597571046.0,21.77,0.366372,33.47,2181729.0
1597571046.015625,22.0,0.366372,33.47,2181910.0
1597571046.03125,21.73,0.370216,33.47,2181825.0
1597571046.046875,21.42,0.36381,33.47,2181917.0
1597571046.0625,21.57,0.366372,33.47,2181710.0
1597571046.078125,22.46,0.365091,33.47,2181495.0
1597571046.09375,24.04,0.367653,33.45,2182005.0
1597571046.109375,25.93,0.366372,33.45,2182441.0
1597571046.125,27.61,0.36381,33.45,2182074.0
1597571046.140625,28.65,0.362529,33.45,2181911.0
1597571046.15625,28.88,0.362529,33.47,2182199.0
1597571046.171875,28.43,0.36381,33.47,2182256.0
1597571046.1875,27.6,0.365091,33.47,2182135.0
1597571046.203125,26.68,0.366372,33.47,2181754.0
1597571046.21875,25.79,0.36381,33.47,2181328.0
1597571046.234375,24.86,0.362529,33.47,2181158.0
1597571046.25,23.72,0.36381,33.47,2181176.0
1597571046.265625,22.23,0.365091,33.47,2181485.0
1597571046.28125,20.45,0.365091,33.47,2181583.0
1597571046.296875,18.51,0.362529,33.47,2181493.0
1597571046.3125,16.58,0.361248,33.47,2182074.0
1597571046.328125,14.73,0.362529,33.47,2182082.0
1597571046.34375,12.85,0.366372,33.45,2182315.0
1597571046.359375,10.77,0.365091,33.45,2182479.0
1597571046.375,8.33,0.365091,33.45,2182901.0
1597571046.390625,5.5,0.361248,33.45,2183134.0
1597571046.40625,2.42,0.361248,33.45,2183142.0
1597571046.421875,-0.66,0.365091,33.45,2183502.0
1597571046.4375,-3.55,0.366372,33.45,2183637.0
1597571046.453125,-6.11,0.36381,33.45,2183990.0
1597571046.46875,-8.36,0.361248,33.47,2184207.0
1597571046.484375,-10.45,0.359967,33.47,2184250.0
1597571046.5,-12.56,0.362529,33.47,2184196.0
1597571046.515625,-14.9,0.365091,33.47,2183992.0
1597571046.53125,-17.67,0.365091,33.47,2183795.0
1597571046.546875,-21.07,0.362529,33.47,2183960.0
1597571046.5625,-25.19,0.36381,33.47,2183839.0
1597571046.578125,-29.97,0.367653,33.47,2183809.0
1597571046.59375,-35.11,0.365091,33.45,2184032.0
1597571046.609375,-39.98,0.365091,33.45,2183800.0
1597571046.625,-43.76,0.361248,33.45,2183777.0
1597571046.640625,-45.54,0.36381,33.45,2183984.0
1597571046.65625,-44.66,0.36381,33.45,2184145.0
1597571046.671875,-40.92,0.365091,33.45,2184173.0
1597571046.6875,-34.74,0.365091,33.45,2184491.0
1597571046.703125,-26.95,0.361248,33.45,2184515.0
1597571046.71875,-18.61,0.36381,33.47,2184746.0
1597571046.734375,-10.67,0.359967,33.47,2185010.0
1597571046.75,-3.71,0.362529,33.47,2185012.0
1597571046.765625,2.06,0.365091,33.47,2185317.0
1597571046.78125,6.72,0.365091,33.47,2185627.0
1597571046.796875,10.49,0.359967,33.47,2185757.0
1597571046.8125,13.68,0.358686,33.47,2185903.0
1597571046.828125,16.54,0.361248,33.47,2186040.0
1597571046.84375,19.3,0.362529,33.45,2186087.0
1597571046.859375,22.02,0.36381,33.45,2186388.0
1597571046.875,24.56,0.371497,33.45,2186724.0
1597571046.890625,26.62,0.358686,33.45,2186819.0
1597571046.90625,27.89,0.359967,33.45,2186810.0
1597571046.921875,28.25,0.362529,33.45,2186600.0
1597571046.9375,27.86,0.36381,33.45,2186882.0
1597571046.953125,27.1,0.365091,33.45,2186078.0
1597571046.96875,26.36,0.359967,33.45,2186219.0
1597571046.984375,25.88,0.359967,33.45,2186537.0
1597571047.0,25.69,0.361248,33.45,2186011.0
1597571047.015625,25.72,0.36381,33.45,2186394.0
1597571047.03125,25.97,0.36381,33.45,2186181.0
1597571047.046875,26.53,0.359967,33.45,2185928.0
1597571047.0625,27.51,0.359967,33.45,2186073.0
1597571047.078125,28.83,0.362529,33.45,2185950.0
1597571047.09375,30.16,0.362529,33.45,2185924.0
1597571047.109375,31.04,0.36381,33.45,2185801.0
1597571047.125,31.1,0.36381,33.45,2185883.0
1597571047.140625,30.26,0.359967,33.45,2185914.0
1597571047.15625,28.79,0.359967,33.43,2185956.0
1597571047.171875,27.14,0.361248,33.43,2186279.0
1597571047.1875,25.63,0.36381,33.43,2186289.0
1597571047.203125,24.43,0.36381,33.43,2186548.0
1597571047.21875,23.48,0.36381,33.45,2186769.0
1597571047.234375,22.59,0.359967,33.45,2187425.0
1597571047.25,21.63,0.36381,33.45,2187124.0
1597571047.265625,20.51,0.36381,33.45,2186997.0
1597571047.28125,19.2,0.362529,33.45,2187310.0
1597571047.296875,17.65,0.358686,33.45,2187555.0
1597571047.3125,15.82,0.358686,33.45,2187735.0
1597571047.328125,13.68,0.361248,33.45,2188103.0
1597571047.34375,11.29,0.362529,33.45,2188001.0
1597571047.359375,8.77,0.362529,33.45,2187610.0
1597571047.375,6.24,0.358686,33.45,2187683.0
1597571047.390625,3.77,0.358686,33.45,2187893.0
1597571047.40625,1.33,0.362529,33.45,2186349.0
1597571047.421875,-1.21,0.36381,33.45,2187787.0
1597571047.4375,-3.99,0.365091,33.45,2187549.0
1597571047.453125,-7.1,0.359967,33.45,2188087.0
1597571047.46875,-10.5,0.357405,33.47,2188137.0
1597571047.484375,-14.05,0.358686,33.47,2187880.0
1597571047.5,-17.52,0.362529,33.47,2188081.0
1597571047.515625,-20.68,0.365091,33.47,2188291.0
1597571047.53125,-23.39,0.365091,33.45,2188472.0
1597571047.546875,-25.61,0.361248,33.45,2188395.0
1597571047.5625,-27.49,0.361248,33.45,2188521.0
1597571047.578125,-29.3,0.36381,33.45,2188672.0
1597571047.59375,-31.4,0.365091,33.45,2189081.0
1597571047.609375,-34.16,0.366372,33.45,2189013.0
1597571047.625,-37.82,0.362529,33.45,2189459.0
1597571047.640625,-42.44,0.361248,33.45,2189550.0
1597571047.65625,-47.76,0.362529,33.45,2189729.0
1597571047.671875,-53.17,0.365091,33.45,2190283.0
1597571047.6875,-57.73,0.359967,33.45,2191037.0
1597571047.703125,-60.32,0.359967,33.45,2191269.0
1597571047.71875,-59.95,0.362529,33.45,2191323.0
1597571047.734375,-56.0,0.358686,33.45,2191658.0
1597571047.75,-48.53,0.362529,33.45,2191547.0
1597571047.765625,-38.28,0.36381,33.45,2191507.0
1597571047.78125,-26.49,0.362529,33.47,2191132.0
1597571047.796875,-14.61,0.361248,33.47,2190760.0
1597571047.8125,-3.9,0.359967,33.47,2190661.0
1597571047.828125,4.85,0.362529,33.47,2190622.0
1597571047.84375,11.37,0.362529,33.47,2190374.0
1597571047.859375,15.87,0.365091,33.47,2190421.0
1597571047.875,18.85,0.361248,33.47,2190530.0
1597571047.890625,20.8,0.361248,33.47,2190196.0
1597571047.90625,22.17,0.361248,33.47,2190208.0
1597571047.921875,23.23,0.36381,33.47,2190424.0
1597571047.9375,24.17,0.36381,33.47,2190151.0
1597571047.953125,25.05,0.359967,33.47,2190095.0
1597571047.96875,25.9,0.359967,33.47,2190401.0
1597571047.984375,26.65,0.359967,33.47,2190334.0
1597571048.0,27.2,0.36381,33.47,2190514.0
1597571048.015625,27.44,0.362529,33.47,2190582.0
1597571048.03125,27.37,0.36381,33.47,2190582.0
1597571048.046875,27.09,0.361248,33.47,2190698.0
1597571048.0625,26.81,0.36381,33.47,2190796.0
1597571048.078125,26.74,0.365091,33.47,2190724.0
1597571048.09375,26.99,0.36381,33.45,2191107.0
1597571048.109375,27.48,0.361248,33.45,2191148.0
1597571048.125,28.01,0.361248,33.45,2191233.0
1597571048.140625,28.33,0.365091,33.45,2191188.0
1597571048.15625,28.33,0.365091,33.47,2191639.0
1597571048.171875,27.99,0.367653,33.47,2191549.0
1597571048.1875,27.37,0.367653,33.47,2191746.0
1597571048.203125,26.57,0.366372,33.47,2191826.0
1597571048.21875,25.59,0.367653,33.47,2192197.0
1597571048.234375,24.39,0.370216,33.47,2191402.0
1597571048.25,22.91,0.372778,33.47,2191477.0
1597571048.265625,21.18,0.372778,33.47,2191310.0
1597571048.28125,19.24,0.371497,33.49,2191030.0
1597571048.296875,17.13,0.381745,33.49,2191076.0
1597571048.3125,14.87,0.390712,33.49,2191315.0
1597571048.328125,12.48,0.391993,33.49,2190971.0
1597571048.34375,9.96,0.393274,33.45,2190852.0
1597571048.359375,7.37,0.398398,33.45,2190767.0
1597571048.375,4.83,0.390712,33.45,2190839.0
1597571048.390625,2.43,0.386869,33.45,2190899.0
1597571048.40625,0.24,0.38815,33.47,2190473.0
1597571048.421875,-1.72,0.386869,33.47,2190866.0
1597571048.4375,-3.52,0.370216,33.47,2191830.0
1597571048.453125,-5.34,0.354843,33.47,2192628.0
1597571048.46875,-7.47,0.351,33.49,2193276.0
1597571048.484375,-10.25,0.353562,33.49,2193485.0
1597571048.5,-14.02,0.362529,33.49,2193878.0
1597571048.515625,-18.9,0.365091,33.49,2193445.0
1597571048.53125,-24.64,0.366372,33.45,2193572.0
1597571048.546875,-30.6,0.367653,33.45,2193627.0
1597571048.5625,-35.94,0.352281,33.45,2193936.0
1597571048.578125,-40.01,0.340752,33.45,2193957.0
1597571048.59375,-42.73,0.334347,33.45,2194203.0
1597571048.609375,-44.76,0.322818,33.45,2194414.0
1597571048.625,-47.35,0.315132,33.45,2194190.0
1597571048.640625,-51.75,,,2194359.0
1597571048.65625,-58.48,,,2193977.0
1597571048.671875,-66.92,,,2193907.0
1597571048.6875,-75.25,,,2193690.0
1597571048.703125,-81.03,,,2193618.0
1597571048.71875,-82.17,,,2193455.0
1597571048.734375,-77.77,,,2193216.0
1597571048.75,-68.57,,,2192915.0
1597571048.765625,-56.7,,,2192730.0
1597571048.78125,-44.84,,,2192390.0
1597571048.796875,-35.23,,,2192629.0
1597571048.8125,-28.87,,,2193025.0
1597571048.828125,-25.37,,,2193141.0
1597571048.84375,-23.33,,,2193363.0
1597571048.859375,-21.19,,,2193551.0
1597571048.875,-17.85,,,2193511.0
1597571048.890625,-13.08,,,2193510.0
1597571048.90625,-7.48,,,2194018.0
1597571048.921875,-2.14,,,2194000.0
1597571048.9375,1.75,,,2193836.0
1597571048.953125,3.44,,,2194017.0
1597571048.96875,3.05,,,2194060.0
1597571048.984375,1.96,,,2194326.0
1597571049.0,3.05,,,2194522.0
1597571049.015625,10.25,,,2194821.0
1597571049.03125,27.56,,,2194989.0
1597571049.046875,57.44,,,2194944.0
1597571049.0625,99.26,,,2194988.0
1597571049.078125,148.6,,,2194721.0
1597571049.09375,197.86,,,2194632.0
1597571049.109375,238.1,,,2194677.0
1597571049.125,261.74,,,2194493.0
1597571049.140625,264.66,,,2194448.0
1597571049.15625,247.17,,,2194007.0
1597571049.171875,213.43,,,2194255.0
1597571049.1875,169.74,,,2194224.0
1597571049.203125,122.5,,,2194425.0
1597571049.21875,76.8,,,2194430.0
1597571049.234375,35.92,,,2194533.0
1597571049.25,1.63,,,2194036.0
1597571049.265625,-25.21,,,2194186.0
1597571049.28125,-44.23,,,2193869.0
1597571049.296875,-55.55,,,2193923.0
1597571049.3125,-60.09,,,2193779.0
1597571049.328125,-59.66,,,2193722.0
1597571049.34375,-56.73,,,2193763.0
1597571049.359375,-53.71,,,2193804.0
1597571049.375,-52.27,,,2194234.0
1597571049.390625,-52.78,,,2194136.0
1597571049.40625,-54.38,,,2194715.0
1597571049.421875,-55.67,,,2194574.0
1597571049.4375,-55.44,,,2194849.0
1597571049.453125,-53.4,,,2195136.0
1597571049.46875,-50.26,,,2195535.0
1597571049.484375,-47.28,,,2195470.0
1597571049.5,-45.63,,,2195897.0
1597571049.515625,-45.82,,,2196119.0
1597571049.53125,-47.48,,,2195959.0
1597571049.546875,-49.72,,,2195571.0
1597571049.5625,-51.53,,,2195809.0
1597571049.578125,-52.28,,,2195744.0
1597571049.59375,-51.95,,,2195586.0
1597571049.609375,-51.09,,,2195390.0
1597571049.625,-50.52,,,2195404.0
1597571049.640625,-51.03,,,2195324.0
1597571049.65625,-53.03,,,2195472.0
1597571049.671875,-56.48,,,2195529.0
1597571049.6875,-60.78,,,2195643.0
1597571049.703125,-64.96,,,2195600.0
1597571049.71875,-67.82,,,2195917.0
1597571049.734375,-68.26,,,2196057.0
1597571049.75,-65.53,,,2196206.0
1597571049.765625,-59.44,,,2196363.0
1597571049.78125,-50.37,,,2196739.0
1597571049.796875,-39.16,,,2196707.0
1597571049.8125,-26.97,,,2196889.0
1597571049.828125,-14.93,,,2197078.0
1597571049.84375,-4.08,,,2197373.0
1597571049.859375,4.92,,,2197455.0
1597571049.875,11.74,,,2197702.0
1597571049.890625,16.43,,,2197725.0
1597571049.90625,19.37,,,2198061.0
1597571049.921875,21.06,,,2198147.0
1597571049.9375,22.06,,,2197925.0
1597571049.953125,22.82,,,2198116.0
1597571049.96875,23.65,,,2198020.0
1597571049.984375,24.66,,,2197542.0
1597571050.0,25.82,,,2197744.0
1597571050.015625,26.99,,,2197328.0
1597571050.03125,28.0,,,2197326.0
1597571050.046875,28.73,,,2197207.0
1597571050.0625,29.16,,,2197235.0
1597571050.078125,29.35,,,2196981.0
1597571050.09375,29.5,,,2197230.0
1597571050.109375,29.77,,,2196961.0
1597571050.125,30.28,,,2196969.0
1597571050.140625,30.98,,,2197186.0
1597571050.15625,31.66,,,2197156.0
1597571050.171875,32.03,,,2197165.0
1597571050.1875,31.84,,,2197178.0
1597571050.203125,30.97,,,2197637.0
1597571050.21875,29.54,,,2197570.0
1597571050.234375,27.81,,,2197494.0
1597571050.25,26.05,,,2197926.0
1597571050.265625,24.37,,,2197940.0
1597571050.28125,22.75,,,2198057.0
1597571050.296875,20.99,,,2197961.0
1597571050.3125,18.94,,,2198106.0
1597571050.328125,16.57,,,2198396.0
1597571050.34375,14.0,,,2198350.0
1597571050.359375,11.42,,,2198561.0
1597571050.375,8.94,,,2198117.0
1597571050.390625,6.5,,,2197917.0
1597571050.40625,3.95,,,2197388.0
1597571050.421875,1.12,,,2197061.0
1597571050.4375,-1.99,,,2196643.0
1597571050.453125,-5.26,,,2196649.0
1597571050.46875,-8.44,,,2196560.0
1597571050.484375,-11.36,,,2196372.0
1597571050.5,-13.98,,,2195896.0
1597571050.515625,-16.37,,,2196137.0
1597571050.53125,-18.71,,,2195687.0
1597571050.546875,-21.19,,,2195708.0
1597571050.5625,-23.95,,,2195749.0
1597571050.578125,-27.15,,,2195813.0
1597571050.59375,-30.9,,,2196173.0
1597571050.609375,-35.3,,,2196230.0
1597571050.625,-40.18,,,2196490.0
1597571050.640625,-45.06,,,2195996.0
1597571050.65625,-49.15,,,2195647.0
1597571050.671875,-51.44,,,2200510.0
1597571050.6875,-51.07,,,2202454.0
1597571050.703125,-47.57,,,2202395.0
1597571050.71875,-41.06,,,2197754.0
1597571050.734375,-32.27,,,2202462.0
1597571050.75,-22.31,,,2201694.0
1597571050.765625,-12.4,,,2201364.0
1597571050.78125,-3.53,,,2200758.0
1597571050.796875,3.74,,,2200050.0
1597571050.8125,9.37,,,2199915.0
1597571050.828125,13.62,,,2199620.0
1597571050.84375,16.93,,,2199440.0
1597571050.859375,19.63,,,2199305.0
1597571050.875,21.87,,,2199369.0
1597571050.890625,23.62,,,2198962.0
1597571050.90625,24.87,,,2199220.0
1597571050.921875,25.68,,,2199042.0
1597571050.9375,26.29,,,2199079.0
1597571050.953125,26.92,,,2198805.0
1597571050.96875,27.69,,,2198862.0
1597571050.984375,28.5,,,2199155.0
1597571051.0,29.1,,,2199273.0
1597571051.015625,29.27,,,2199370.0
1597571051.03125,29.0,,,2199450.0
1597571051.046875,28.47,,,2199600.0
1597571051.0625,27.99,,,2199688.0
1597571051.078125,27.78,,,2199580.0
1597571051.09375,27.84,,,2200068.0
1597571051.109375,27.96,,,2200038.0
1597571051.125,27.85,,,2200441.0
1597571051.140625,27.33,,,2200415.0
1597571051.15625,26.43,,,2200384.0
1597571051.171875,25.3,,,2200398.0
1597571051.1875,24.15,,,2200074.0
1597571051.203125,23.11,,,2199901.0
1597571051.21875,22.23,,,2199678.0
1597571051.234375,21.43,,,2199677.0
1597571051.25,20.62,,,2199391.0
1597571051.265625,19.66,,,2199671.0
1597571051.28125,18.43,,,2199741.0
1597571051.296875,16.85,,,2199430.0
1597571051.3125,14.96,,,2199585.0
1597571051.328125,12.89,,,2199833.0
1597571051.34375,10.91,,,2199692.0
1597571051.359375,9.28,,,2199441.0
1597571051.375,8.17,,,2199549.0
1597571051.390625,7.52,,,2199566.0
1597571051.40625,7.09,,,2199926.0
1597571051.421875,6.53,,,2200453.0
1597571051.4375,5.54,,,2200842.0
1597571051.453125,3.99,,,2201026.0
1597571051.46875,1.98,,,2200926.0
1597571051.484375,-0.24,,,2200839.0
1597571051.5,-2.46,,,2200685.0
1597571051.515625,-4.53,,,2200645.0
1597571051.53125,-6.4,,,2200923.0
1597571051.546875,-8.11,,,2201117.0
1597571051.5625,-9.78,,,2200762.0
1597571051.578125,-11.52,,,2200969.0
1597571051.59375,-13.44,,,2201099.0
1597571051.609375,-15.65,,,2201034.0
1597571051.625,-18.26,,,2200484.0
1597571051.640625,-21.3,,,2200431.0
1597571051.65625,-24.66,,,2200025.0
1597571051.671875,-28.16,,,2199945.0
1597571051.6875,-31.59,,,2199644.0
1597571051.703125,-34.84,,,2200120.0
1597571051.71875,-38.05,,,2199560.0
1597571051.734375,-41.48,,,2199410.0
1597571051.75,-45.43,,,2199287.0
1597571051.765625,-49.93,,,2199544.0
1597571051.78125,-54.57,,,2199507.0
1597571051.796875,-58.48,,,2199684.0
1597571051.8125,-60.55,,,2200014.0
1597571051.828125,-59.78,,,2199751.0
1597571051.84375,-55.62,,,2200422.0
1597571051.859375,-48.21,,,2201017.0
1597571051.875,-38.32,,,2200886.0
1597571051.890625,-27.18,,,2201383.0
1597571051.90625,-16.07,,,2201384.0
1597571051.921875,-6.09,,,2201915.0
1597571051.9375,2.07,,,2202178.0
1597571051.953125,8.15,,,2202150.0
1597571051.96875,12.2,,,2202395.0
1597571051.984375,14.54,,,2202441.0
1597571052.0,15.62,,,2202033.0
1597571052.015625,15.96,,,2202096.0
1597571052.03125,16.06,,,2201985.0
1597571052.046875,16.28,,,2201534.0
1597571052.0625,16.87,,,2201662.0
1597571052.078125,17.78,,,2202093.0
1597571052.09375,18.84,,,2201698.0
1597571052.109375,19.78,,,2201573.0
1597571052.125,20.39,,,2201564.0
1597571052.140625,20.58,,,2202100.0
1597571052.15625,20.44,,,2202805.0
1597571052.171875,20.18,,,2202937.0
1597571052.1875,20.06,,,2203093.0
1597571052.203125,20.28,,,2202916.0
1597571052.21875,20.95,,,2203269.0
1597571052.234375,22.01,,,2203062.0
1597571052.25,23.19,,,2203160.0
1597571052.265625,24.11,,,2203479.0
1597571052.28125,24.4,,,2203703.0
1597571052.296875,23.85,,,2203907.0
1597571052.3125,22.5,,,2203796.0
1597571052.328125,20.66,,,2204099.0
1597571052.34375,18.67,,,2204286.0
1597571052.359375,16.83,,,2204528.0
1597571052.375,15.24,,,2204710.0
1597571052.390625,13.81,,,2204989.0
1597571052.40625,12.37,,,2204793.0
1597571052.421875,10.73,,,2204668.0
1597571052.4375,8.79,,,2204495.0
1597571052.453125,6.51,,,2204164.0
1597571052.46875,3.95,,,2204257.0
1597571052.484375,1.25,,,2204102.0
1597571052.5,-1.41,,,2204185.0
1597571052.515625,-3.86,,,2204030.0
1597571052.53125,-6.03,,,2203723.0
1597571052.546875,-8.02,,,2203622.0
1597571052.5625,-10.08,,,2203725.0
1597571052.578125,-12.45,,,2203843.0
1597571052.59375,-15.25,,,2203818.0
1597571052.609375,-18.39,,,2204085.0
1597571052.625,-21.64,,,2203851.0
1597571052.640625,-24.72,,,2204276.0
1597571052.65625,-27.47,,,2204264.0
1597571052.671875,-29.87,,,2204306.0
1597571052.6875,-32.03,,,2204668.0
1597571052.703125,-34.13,,,2204571.0
1597571052.71875,-36.38,,,2204796.0
1597571052.734375,-38.93,,,2204919.0
1597571052.75,-41.8,,,2205074.0
1597571052.765625,-44.76,,,2205572.0
1597571052.78125,-47.21,,,2205444.0
1597571052.796875,-48.23,,,2205928.0
1597571052.8125,-46.88,,,2205987.0
1597571052.828125,-42.56,,,2205727.0
1597571052.84375,-35.34,,,2205521.0
1597571052.859375,-26.09,,,2205081.0
1597571052.875,-16.13,,,2204909.0
1597571052.890625,-6.85,,,2204528.0
1597571052.90625,0.83,,,2204684.0
1597571052.921875,6.62,,,2204625.0
1597571052.9375,10.76,,,2204798.0
1597571052.953125,13.76,,,2204471.0
1597571052.96875,16.09,,,2204097.0
1597571052.984375,18.03,,,2203196.0
1597571053.0,19.72,,,2203251.0
1597571053.015625,21.2,,,2203125.0
1597571053.03125,22.56,,,2203275.0
1597571053.046875,23.86,,,2203667.0
1597571053.0625,25.07,,,2203785.0
1597571053.078125,26.08,,,2204135.0
1597571053.09375,26.75,,,2204204.0
1597571053.109375,26.95,,,2204572.0
1597571053.125,26.73,,,2204984.0
1597571053.140625,26.23,,,2205058.0
1597571053.15625,25.69,,,2205215.0
1597571053.171875,25.29,,,2205459.0
1597571053.1875,25.12,,,2205737.0
1597571053.203125,25.18,,,2205919.0
1597571053.21875,25.35,,,2206410.0
1597571053.234375,25.5,,,2206191.0
1597571053.25,25.51,,,2206097.0
1597571053.265625,25.24,,,2205875.0
1597571053.28125,24.65,,,2205751.0
1597571053.296875,23.69,,,2205843.0
1597571053.3125,22.4,,,2205621.0
1597571053.328125,20.84,,,2205665.0
1597571053.34375,19.11,,,2205709.0
1597571053.359375,17.27,,,2205538.0
1597571053.375,15.39,,,2205363.0
1597571053.390625,13.47,,,2205626.0
1597571053.40625,11.52,,,2205479.0
1597571053.421875,9.56,,,2205723.0
1597571053.4375,7.62,,,2205344.0
1597571053.453125,5.71,,,2205115.0
1597571053.46875,3.8,,,2205315.0
1597571053.484375,1.87,,,2205148.0
1597571053.5,-0.1,,,2205604.0
1597571053.515625,-2.05,,,2205756.0
1597571053.53125,-3.92,,,2205601.0
1597571053.546875,-5.61,,,2205590.0
1597571053.5625,-7.14,,,2205872.0
1597571053.578125,-8.63,,,2205965.0
1597571053.59375,-10.29,,,2206378.0
1597571053.609375,-12.28,,,2206643.0
1597571053.625,-14.71,,,2206028.0
1597571053.640625,-17.47,,,2205614.0
1597571053.65625,-20.36,,,2206312.0
1597571053.671875,-23.18,,,2207822.0
1597571053.6875,-25.75,,,2209887.0
1597571053.703125,-28.07,,,2210946.0
1597571053.71875,-30.28,,,2210958.0
1597571053.734375,-32.62,,,2210202.0
1597571053.75,-35.43,,,2209420.0
1597571053.765625,-39.0,,,2208798.0
1597571053.78125,-43.37,,,2208486.0
1597571053.796875,-48.23,,,2207910.0
1597571053.8125,-52.81,,,2207997.0
1597571053.828125,-56.02,,,2207800.0
1597571053.84375,-56.77,,,2207683.0
1597571053.859375,-54.35,,,2207850.0
1597571053.875,-48.73,,,2207956.0
1597571053.890625,-40.6,,,2207932.0
1597571053.90625,-31.15,,,2207924.0
1597571053.921875,-21.65,,,2208323.0
1597571053.9375,-13.14,,,2208575.0
1597571053.953125,-6.17,,,2208324.0
1597571053.96875,-0.87,,,2208878.0
1597571053.984375,3.01,,,2208571.0
1597571054.0,5.8,,,2208899.0
1597571054.015625,7.87,,,2208889.0
1597571054.03125,9.55,,,2209244.0
1597571054.046875,11.09,,,2209230.0
1597571054.0625,12.68,,,2209609.0
1597571054.078125,14.36,,,2209732.0
1597571054.09375,16.05,,,2210194.0
1597571054.109375,17.53,,,2210272.0
1597571054.125,18.59,,,2210079.0
1597571054.140625,19.07,,,2209547.0
1597571054.15625,19.05,,,2209732.0
1597571054.171875,18.75,,,2209395.0
1597571054.1875,18.46,,,2209434.0
1597571054.203125,18.45,,,2209411.0
1597571054.21875,18.8,,,2209476.0
1597571054.234375,19.4,,,2209839.0
1597571054.25,20.08,,,2209589.0
1597571054.265625,20.65,,,2209665.0
1597571054.28125,20.98,,,2209665.0
1597571054.296875,20.98,,,2209315.0
1597571054.3125,20.64,,,2209114.0
1597571054.328125,19.98,,,2209156.0
1597571054.34375,19.03,,,2210197.0
1597571054.359375,17.9,,,2211324.0
1597571054.375,16.73,,,2214215.0
1597571054.390625,15.62,,,2215651.0
1597571054.40625,14.59,,,2215782.0
1597571054.421875,13.55,,,2215532.0
1597571054.4375,12.42,,,2214781.0
1597571054.453125,11.12,,,2214165.0
1597571054.46875,9.66,,,2213915.0
1597571054.484375,8.12,,,2213731.0
1597571054.5,6.52,,,2213818.0
1597571054.515625,4.81,,,2213636.0
1597571054.53125,2.86,,,2213717.0
1597571054.546875,0.63,,,2213552.0
1597571054.5625,-1.79,,,2213082.0
1597571054.578125,-4.15,,,2212806.0
1597571054.59375,-6.2,,,2212652.0
1597571054.609375,-7.88,,,2212333.0
1597571054.625,-9.36,,,2212447.0
1597571054.640625,-11.05,,,2212470.0
1597571054.65625,-13.35,,,2212605.0
1597571054.671875,-16.39,,,2212392.0
1597571054.6875,-19.98,,,2212388.0
1597571054.703125,-23.66,,,2212640.0
1597571054.71875,-26.94,,,2212576.0
1597571054.734375,-29.53,,,2212656.0
1597571054.75,-31.5,,,2212829.0
1597571054.765625,-33.19,,,2212835.0
1597571054.78125,-35.09,,,2213151.0
1597571054.796875,-37.69,,,2213245.0
1597571054.8125,-41.27,,,2213336.0
1597571054.828125,-45.78,,,2213291.0
1597571054.84375,-50.8,,,2213931.0
1597571054.859375,-55.54,,,2213979.0
1597571054.875,-58.99,,,2214083.0
1597571054.890625,-60.15,,,2213988.0
1597571054.90625,-58.3,,,2214112.0
1597571054.921875,-53.21,,,2214537.0
1597571054.9375,-45.26,,,2214298.0
1597571054.953125,-35.39,,,2214252.0
1597571054.96875,-24.81,,,2213896.0
1597571054.984375,-14.72,,,2213601.0
1597571055.0,-5.97,,,2213494.0
1597571055.015625,0.98,,,2213227.0
1597571055.03125,6.12,,,2213186.0
1597571055.046875,9.68,,,2213414.0
1597571055.0625,12.0,,,2213007.0
1597571055.078125,13.42,,,2213146.0
1597571055.09375,14.27,,,2212806.0
1597571055.109375,14.82,,,2212772.0
1597571055.125,15.29,,,2211693.0
1597571055.140625,15.83,,,2211365.0
1597571055.15625,16.49,,,2212007.0
1597571055.171875,17.25,,,2213333.0
1597571055.1875,18.12,,,2215129.0
1597571055.203125,19.14,,,2215988.0
1597571055.21875,20.44,,,2216070.0
1597571055.234375,22.12,,,2215945.0
1597571055.25,24.2,,,2215389.0
1597571055.265625,26.54,,,2215532.0
1597571055.28125,28.93,,,2215277.0
1597571055.296875,31.13,,,2215294.0
1597571055.3125,32.98,,,2215261.0
1597571055.328125,34.37,,,2215587.0
1597571055.34375,35.18,,,2215661.0
1597571055.359375,35.36,,,2215520.0
1597571055.375,34.87,,,2215507.0
1597571055.390625,33.78,,,2214946.0
1597571055.40625,32.23,,,2214636.0
1597571055.421875,30.46,,,2214156.0
1597571055.4375,28.7,,,2214150.0
1597571055.453125,27.05,,,2213663.0
1597571055.46875,25.58,,,2213440.0
1597571055.484375,24.29,,,2213406.0
1597571055.5,23.13,,,2213145.0
1597571055.515625,22.0,,,2212858.0
1597571055.53125,20.75,,,2213038.0
1597571055.546875,19.13,,,2212714.0
1597571055.5625,16.99,,,2212720.0
1597571055.578125,14.28,,,2212839.0
1597571055.59375,11.2,,,2213048.0
1597571055.609375,8.01,,,2212944.0
1597571055.625,4.97,,,2213505.0
1597571055.640625,2.21,,,2213554.0
1597571055.65625,-0.38,,,2213667.0
1597571055.671875,-2.94,,,2213894.0
1597571055.6875,-5.54,,,2214096.0
1597571055.703125,-8.13,,,2214398.0
1597571055.71875,-10.57,,,2214736.0
1597571055.734375,-12.75,,,2214980.0
1597571055.75,-14.75,,,2215180.0
1597571055.765625,-16.77,,,2215474.0
1597571055.78125,-19.05,,,2215200.0
1597571055.796875,-21.69,,,2214905.0
1597571055.8125,-24.59,,,2214728.0
1597571055.828125,-27.58,,,2214516.0
1597571055.84375,-30.52,,,2214398.0
1597571055.859375,-33.49,,,2214357.0
1597571055.875,-36.79,,,2214642.0
1597571055.890625,-40.72,,,2214438.0
1597571055.90625,-45.37,,,2214352.0
1597571055.921875,-50.39,,,2214447.0
1597571055.9375,-54.95,,,2214480.0
1597571055.953125,-57.98,,,2214887.0
1597571055.96875,-58.4,,,2214556.0
1597571055.984375,-55.57,,,2214406.0
1597571056.0,-49.51,,,2215837.0
1597571056.015625,-40.9,,,2216260.0
1597571056.03125,-30.91,,,2216666.0
1597571056.046875,-20.85,,,2216436.0
1597571056.0625,-11.76,,,2215901.0
1597571056.078125,-4.24,,,2216262.0
1597571056.09375,1.64,,,2216291.0
1597571056.109375,6.12,,,2216611.0
1597571056.125,9.55,,,2216864.0
1597571056.140625,12.24,,,2216821.0
1597571056.15625,14.36,,,2217201.0
1597571056.171875,16.03,,,2216506.0
1597571056.1875,17.38,,,2215572.0
1597571056.203125,18.58,,,2216875.0
1597571056.21875,19.79,,,2216467.0
1597571056.234375,21.1,,,2216111.0
1597571056.25,22.47,,,2216063.0
1597571056.265625,23.72,,,2215588.0
1597571056.28125,24.7,,,2215446.0
1597571056.296875,25.37,,,2215496.0
1597571056.3125,25.85,,,2216055.0
1597571056.328125,26.41,,,2215384.0
1597571056.34375,27.32,,,2215303.0
1597571056.359375,28.7,,,2215395.0
1597571056.375,30.46,,,2215389.0
1597571056.390625,32.23,,,2215369.0
1597571056.40625,33.55,,,2215351.0
1597571056.421875,34.08,,,2215586.0
1597571056.4375,33.73,,,2215675.0
1597571056.453125,32.71,,,2215815.0
1597571056.46875,31.33,,,2215914.0
1597571056.484375,29.91,,,2216064.0
1597571056.5,28.52,,,2216096.0
1597571056.515625,27.11,,,2216550.0
1597571056.53125,25.48,,,2216435.0
1597571056.546875,23.48,,,2216775.0
1597571056.5625,21.06,,,2216958.0
1597571056.578125,18.26,,,2216888.0
1597571056.59375,15.2,,,2217070.0
1597571056.609375,12.01,,,2217157.0
1597571056.625,8.79,,,2216871.0
1597571056.640625,5.71,,,2216363.0
1597571056.65625,2.89,,,2215997.0
1597571056.671875,0.46,,,2215553.0
1597571056.6875,-1.52,,,2215471.0
1597571056.703125,-3.1,,,2214918.0
1597571056.71875,-4.43,,,2215176.0
1597571056.734375,-5.63,,,2215023.0
1597571056.75,-6.88,,,2214748.0
1597571056.765625,-8.3,,,2214958.0
1597571056.78125,-10.02,,,2214903.0
1597571056.796875,-12.11,,,2214917.0
1597571056.8125,-14.62,,,2214891.0
1597571056.828125,-17.46,,,2215330.0
1597571056.84375,-20.41,,,2215847.0
1597571056.859375,-23.27,,,2216540.0
1597571056.875,-25.91,,,2216317.0
1597571056.890625,-28.45,,,2217419.0
1597571056.90625,-31.17,,,2217331.0
1597571056.921875,-34.44,,,2217716.0
1597571056.9375,-38.52,,,2216926.0
1597571056.953125,-43.48,,,2217474.0
1597571056.96875,-49.15,,,2217441.0
1597571056.984375,-55.01,,,2217665.0
1597571057.0,-60.32,,,2217341.0
1597571057.015625,-64.09,,,2217632.0
1597571057.03125,-65.3,,,2216534.0
1597571057.046875,-63.16,,,2215773.0
1597571057.0625,-57.42,,,2216395.0
1597571057.078125,-48.53,,,2215515.0
1597571057.09375,-37.62,,,2215554.0
1597571057.109375,-26.21,,,2215288.0
1597571057.125,-15.74,,,2215648.0
1597571057.140625,-7.14,,,2215154.0
1597571057.15625,-0.75,,,2215162.0
1597571057.171875,3.65,,,2214994.0
1597571057.1875,6.62,,,2215385.0
1597571057.203125,8.77,,,2215277.0
1597571057.21875,10.56,,,2215533.0
1597571057.234375,12.35,,,2215956.0
1597571057.25,14.29,,,2216444.0
1597571057.265625,16.37,,,2216627.0
1597571057.28125,18.5,,,2216602.0
1597571057.296875,20.51,,,2217055.0
1597571057.3125,22.26,,,2217363.0
1597571057.328125,23.71,,,2217638.0
1597571057.34375,24.9,,,2217996.0
1597571057.359375,25.91,,,2218127.0
1597571057.375,26.82,,,2218179.0
1597571057.390625,27.64,,,2218029.0
1597571057.40625,28.35,,,2217534.0
1597571057.421875,28.93,,,2217221.0
1597571057.4375,29.38,,,2216614.0
1597571057.453125,29.77,,,2216260.0
1597571057.46875,30.11,,,2215942.0
1597571057.484375,30.34,,,2215769.0
1597571057.5,30.28,,,2215719.0
1597571057.515625,29.69,,,2215443.0
1597571057.53125,28.43,,,2215394.0
1597571057.546875,26.56,,,2215414.0
1597571057.5625,24.34,,,2215191.0
1597571057.578125,22.16,,,2215267.0
1597571057.59375,20.33,,,2214915.0
1597571057.609375,18.96,,,2214643.0
1597571057.625,17.92,,,2214873.0
1597571057.640625,16.89,,,2215351.0
1597571057.65625,15.59,,,2215411.0
1597571057.671875,13.85,,,2215317.0
1597571057.6875,11.7,,,2216059.0
1597571057.703125,9.33,,,2215988.0
1597571057.71875,7.0,,,2216452.0
1597571057.734375,4.93,,,2216844.0
1597571057.75,3.21,,,2217184.0
1597571057.765625,1.78,,,2217389.0
1597571057.78125,0.45,,,2217394.0
1597571057.796875,-1.1,,,2216761.0
1597571057.8125,-3.17,,,2216092.0
1597571057.828125,-5.93,,,2216017.0
1597571057.84375,-9.36,,,2215691.0
1597571057.859375,-13.23,,,2215321.0
1597571057.875,-17.21,,,2215439.0
1597571057.890625,-21.04,,,2215689.0
1597571057.90625,-24.59,,,2215364.0
1597571057.921875,-27.92,,,2215240.0
1597571057.9375,-31.24,,,2215617.0
1597571057.953125,-34.8,,,2215449.0
1597571057.96875,-38.82,,,2215800.0
1597571057.984375,-43.44,,,2215956.0
1597571058.0,-48.66,,,2216193.0
1597571058.015625,-54.18,,,2216582.0
1597571058.03125,-59.36,,,2216653.0
1597571058.046875,-63.23,,,2216804.0
1597571058.0625,-64.68,,,2216990.0
1597571058.078125,-62.88,,,2217329.0
1597571058.09375,-57.63,,,2217800.0
1597571058.109375,-49.5,,,2217856.0
1597571058.125,-39.64,,,2218295.0
1597571058.140625,-29.33,,,2218375.0
1597571058.15625,-19.63,,,2218057.0
1597571058.171875,-10.97,,,2218757.0
1597571058.1875,-3.31,,,2218317.0
1597571058.203125,3.63,,,2218854.0
1597571058.21875,10.1,,,2219350.0
1597571058.234375,16.1,,,2219970.0
1597571058.25,21.44,,,2219219.0
1597571058.265625,25.92,,,2218792.0
1597571058.28125,29.49,,,2217664.0
1597571058.296875,32.31,,,2217054.0
1597571058.3125,34.67,,,2216110.0
1597571058.328125,36.78,,,2215986.0
1597571058.34375,38.71,,,2215070.0
1597571058.359375,40.33,,,2214797.0
1597571058.375,41.51,,,2214609.0
1597571058.390625,42.19,,,2214627.0
1597571058.40625,42.51,,,2214313.0
1597571058.421875,42.68,,,2214681.0
1597571058.4375,42.91,,,2214600.0
1597571058.453125,43.26,,,2214641.0
1597571058.46875,43.63,,,2215064.0
1597571058.484375,43.81,,,2214845.0
1597571058.5,43.56,,,2215394.0
1597571058.515625,42.74,,,2215204.0
1597571058.53125,41.31,,,2215521.0
1597571058.546875,39.32,,,2215473.0
1597571058.5625,36.89,,,2215821.0
1597571058.578125,34.22,,,2216022.0
1597571058.59375,31.52,,,2216401.0
1597571058.609375,29.0,,,2216652.0
1597571058.625,26.82,,,2216911.0
1597571058.640625,25.03,,,2217162.0
1597571058.65625,23.54,,,2217062.0
1597571058.671875,22.14,,,2216150.0
1597571058.6875,20.59,,,2215837.0
1597571058.703125,18.72,,,2215551.0
1597571058.71875,16.42,,,2215048.0
1597571058.734375,13.75,,,2215115.0
1597571058.75,10.86,,,2215271.0
1597571058.765625,7.94,,,2214875.0
1597571058.78125,5.15,,,2215051.0
1597571058.796875,2.6,,,2215180.0
1597571058.8125,0.26,,,2215076.0
1597571058.828125,-1.98,,,2215338.0
1597571058.84375,-4.23,,,2215254.0
1597571058.859375,-6.61,,,2215022.0
1597571058.875,-9.23,,,2215211.0
1597571058.890625,-12.15,,,2215849.0
1597571058.90625,-15.38,,,2216964.0
1597571058.921875,-18.93,,,2217586.0
1597571058.9375,-22.72,,,2217809.0
1597571058.953125,-26.65,,,2217633.0
1597571058.96875,-30.55,,,2217584.0
1597571058.984375,-34.26,,,2217702.0
1597571059.0,-37.82,,,2217964.0
1597571059.015625,-41.4,,,2217876.0
1597571059.03125,-45.33,,,2218092.0
1597571059.046875,-49.93,,,2217916.0
1597571059.0625,-55.2,,,2217813.0
1597571059.078125,-60.68,,,2216963.0
1597571059.09375,-65.39,,,2216417.0
1597571059.109375,-68.13,,,2215917.0
1597571059.125,-67.79,,,2215303.0
1597571059.140625,-63.82,,,2215608.0
1597571059.15625,-56.4,,,2214926.0
1597571059.171875,-46.45,,,2214672.0
1597571059.1875,-35.29,,,2214860.0
1597571059.203125,-24.23,,,2214494.0
1597571059.21875,-14.23,,,2214721.0
1597571059.234375,-5.78,,,2214813.0
1597571059.25,1.04,,,2215109.0
1597571059.265625,6.42,,,2215152.0
1597571059.28125,10.62,,,2215410.0
1597571059.296875,13.94,,,2215691.0
1597571059.3125,16.64,,,2215788.0
1597571059.328125,18.97,,,2216430.0
1597571059.34375,21.16,,,2216684.0
1597571059.359375,23.35,,,2216917.0
1597571059.375,25.55,,,2216793.0
1597571059.390625,27.64,,,2217294.0
1597571059.40625,29.5,,,2217846.0
1597571059.421875,31.02,,,2217980.0
1597571059.4375,32.21,,,2218339.0
1597571059.453125,33.14,,,2218515.0
1597571059.46875,33.97,,,2218586.0
1597571059.484375,34.86,,,2218189.0
1597571059.5,35.87,,,2217715.0
1597571059.515625,36.99,,,2217234.0
1597571059.53125,38.11,,,2216684.0
1597571059.546875,39.05,,,2216965.0
1597571059.5625,39.56,,,2216752.0
1597571059.578125,39.48,,,2216797.0
1597571059.59375,38.7,,,2216570.0
1597571059.609375,37.3,,,2216870.0
1597571059.625,35.48,,,2217122.0
1597571059.640625,33.51,,,2216636.0
1597571059.65625,31.56,,,2216913.0
1597571059.671875,29.7,,,2216302.0
1597571059.6875,27.81,,,2215777.0
1597571059.703125,25.81,,,2215494.0
1597571059.71875,23.71,,,2215811.0
1597571059.734375,21.61,,,2215805.0
1597571059.75,19.66,,,2215994.0
1597571059.765625,17.92,,,2216110.0
1597571059.78125,16.33,,,2216433.0
1597571059.796875,14.78,,,2216979.0
1597571059.8125,13.22,,,2217459.0
1597571059.828125,11.76,,,2217981.0
1597571059.84375,10.58,,,2218139.0
1597571059.859375,9.79,,,2217619.0
1597571059.875,9.25,,,2216840.0
1597571059.890625,8.62,,,2216396.0
1597571059.90625,7.46,,,2215890.0
1597571059.921875,5.51,,,2215432.0
1597571059.9375,2.84,,,2215200.0
1597571059.953125,-0.27,,,2214961.0
1597571059.96875,-3.47,,,2214877.0
1597571059.984375,-6.58,,,2214964.0
1597571060.0,-9.69,,,2214941.0
1597571060.015625,-13.06,,,2214614.0
1597571060.03125,-16.89,,,2214709.0
1597571060.046875,-21.17,,,2215177.0
1597571060.0625,-25.67,,,2215433.0
1597571060.078125,-30.01,,,2216030.0
1597571060.09375,-33.92,,,2216511.0
1597571060.109375,-37.33,,,2216695.0
1597571060.125,-40.38,,,2217420.0
1597571060.140625,-43.4,,,2218287.0
1597571060.15625,-46.75,,,2219237.0
1597571060.171875,-50.69,,,2219375.0
1597571060.1875,-55.26,,,2219548.0
1597571060.203125,-60.19,,,2220040.0
1597571060.21875,-64.87,,,2220326.0
1597571060.234375,-68.36,,,2220073.0
1597571060.25,-69.64,,,2219220.0
1597571060.265625,-67.89,,,2218523.0
1597571060.28125,-62.78,,,2217760.0
1597571060.296875,-54.61,,,2217809.0
1597571060.3125,-44.27,,,2217455.0
1597571060.328125,-32.95,,,2217549.0
1597571060.34375,-21.85,,,2217340.0
1597571060.359375,-11.87,,,2216841.0
1597571060.375,-3.52,,,2216578.0
1597571060.390625,3.03,,,2216734.0
1597571060.40625,7.92,,,2217435.0
1597571060.421875,11.42,,,2217731.0
1597571060.4375,13.92,,,2218744.0
1597571060.453125,15.8,,,2218725.0
1597571060.46875,17.42,,,2219003.0
1597571060.484375,19.02,,,2218409.0
1597571060.5,20.69,,,2219378.0
1597571060.515625,22.31,,,2219484.0
1597571060.53125,23.75,,,2219608.0
1597571060.546875,24.86,,,2219681.0
1597571060.5625,25.61,,,2219782.0
1597571060.578125,26.04,,,2220330.0
1597571060.59375,26.29,,,2220305.0
1597571060.609375,26.52,,,2220711.0
1597571060.625,26.84,,,2220473.0
1597571060.640625,27.3,,,2219895.0
1597571060.65625,27.85,,,2219180.0
1597571060.671875,28.36,,,2218977.0
1597571060.6875,28.68,,,2218700.0
1597571060.703125,28.67,,,2218578.0
1597571060.71875,28.32,,,2218553.0
1597571060.734375,27.7,,,2218538.0
1597571060.75,26.87,,,2218334.0
1597571060.765625,25.91,,,2218216.0
1597571060.78125,24.8,,,2218016.0
1597571060.796875,23.49,,,2218094.0
1597571060.8125,21.98,,,2218094.0
1597571060.828125,20.34,,,2218330.0
1597571060.84375,18.65,,,2218557.0
1597571060.859375,16.97,,,2218838.0
1597571060.875,15.24,,,2218773.0
1597571060.890625,13.26,,,2219179.0
1597571060.90625,10.85,,,2219382.0
1597571060.921875,7.98,,,2219684.0
1597571060.9375,4.89,,,2220212.0
1597571060.953125,1.96,,,2220442.0
1597571060.96875,-0.41,,,2219609.0
1597571060.984375,-2.06,,,2218921.0
1597571061.0,-3.19,,,2217725.0
1597571061.015625,-4.25,,,2217250.0
1597571061.03125,-5.72,,,2216463.0
1597571061.046875,-7.85,,,2216702.0
1597571061.0625,-10.59,,,2216301.0
1597571061.078125,-13.66,,,2216054.0
1597571061.09375,-16.72,,,2216025.0
1597571061.109375,-19.62,,,2216009.0
1597571061.125,-22.36,,,2215760.0
1597571061.140625,-25.08,,,2215475.0
1597571061.15625,-27.96,,,2215477.0
1597571061.171875,-31.1,,,2216283.0
1597571061.1875,-34.56,,,2216441.0
1597571061.203125,-38.39,,,2217270.0
1597571061.21875,-42.55,,,2217618.0
1597571061.234375,-46.76,,,2217582.0
1597571061.25,-50.48,,,2217738.0
1597571061.265625,-52.85,,,2217960.0
1597571061.28125,-52.92,,,2220231.0
1597571061.296875,-50.02,,,2218726.0
1597571061.3125,-44.01,,,2218802.0
1597571061.328125,-35.39,,,2219384.0
1597571061.34375,-25.19,,,2219721.0
1597571061.359375,-14.65,,,2217265.0
1597571061.375,-4.89,,,2216835.0
1597571061.390625,3.35,,,2217576.0
1597571061.40625,9.75,,,2217503.0
1597571061.421875,14.39,,,2219764.0
1597571061.4375,17.62,,,2217305.0
1597571061.453125,19.87,,,2218254.0
1597571061.46875,21.52,,,2219000.0
1597571061.484375,22.83,,,2217534.0
1597571061.5,23.84,,,2219903.0
1597571061.515625,24.51,,,2216900.0
1597571061.53125,24.79,,,2216450.0
1597571061.546875,24.72,,,2216931.0
1597571061.5625,24.48,,,2217508.0
1597571061.578125,24.31,,,2217415.0
1597571061.59375,24.43,,,2216718.0
1597571061.609375,24.89,,,2216636.0
1597571061.625,25.66,,,2217788.0
1597571061.640625,26.6,,,2218114.0
1597571061.65625,27.6,,,2218262.0
1597571061.671875,28.61,,,2218773.0
1597571061.6875,29.68,,,2219070.0
1597571061.703125,30.85,,,2219183.0
1597571061.71875,32.0,,,2220014.0
1597571061.734375,32.87,,,2219890.0
1597571061.75,33.13,,,2220607.0
1597571061.765625,32.54,,,2220593.0
1597571061.78125,31.12,,,2220657.0
1597571061.796875,29.14,,,2219805.0
1597571061.8125,27.0,,,2218872.0
1597571061.828125,25.0,,,2218439.0
1597571061.84375,23.18,,,2218085.0
1597571061.859375,21.33,,,2217578.0
1597571061.875,19.18,,,2217129.0
1597571061.890625,16.55,,,2215980.0
1597571061.90625,13.55,,,2218121.0
1597571061.921875,10.48,,,2221450.0
1597571061.9375,7.66,,,2224670.0
1597571061.953125,5.3,,,2225549.0
1597571061.96875,3.35,,,2225828.0
1597571061.984375,1.6,,,2225421.0
1597571062.0,-0.24,,,2224361.0
1597571062.015625,-2.4,,,2224147.0
1597571062.03125,-5.03,,,2223498.0
1597571062.046875,-8.14,,,2223672.0
1597571062.0625,-11.63,,,2223293.0
1597571062.078125,-15.35,,,2223604.0
1597571062.09375,-19.07,,,2223796.0
1597571062.109375,-22.63,,,2223901.0
1597571062.125,-25.95,,,2223979.0
1597571062.140625,-29.13,,,2223950.0
1597571062.15625,-32.35,,,2223397.0
1597571062.171875,-35.88,,,2222358.0
1597571062.1875,-39.96,,,2221006.0
1597571062.203125,-44.69,,,2220464.0
1597571062.21875,-50.04,,,2219723.0
1597571062.234375,-55.73,,,2219442.0
1597571062.25,-61.19,,,2219319.0
1597571062.265625,-65.58,,,2218838.0
1597571062.28125,-67.91,,,2218108.0
1597571062.296875,-67.27,,,2217595.0
1597571062.3125,-63.14,,,2217217.0
1597571062.328125,-55.67,,,2217158.0
1597571062.34375,-45.69,,,2217499.0
1597571062.359375,-34.59,,,2217751.0
1597571062.375,-23.88,,,2217666.0
1597571062.390625,-14.87,,,2217793.0
1597571062.40625,-8.29,,,2217883.0
1597571062.421875,-4.23,,,2218050.0
1597571062.4375,-2.22,,,2218447.0
1597571062.453125,-1.44,,,2218479.0
1597571062.46875,-0.99,,,2218254.0
1597571062.484375,-0.12,,,2218161.0
1597571062.5,1.58,,,2219064.0
1597571062.515625,4.02,,,2219343.0
1597571062.53125,6.76,,,2219393.0
1597571062.546875,9.09,,,2218845.0
1597571062.5625,10.38,,,2217812.0
1597571062.578125,10.35,,,2216860.0
1597571062.59375,9.25,,,2216429.0
1597571062.609375,7.87,,,2216649.0
1597571062.625,7.26,,,2216391.0
1597571062.640625,8.24,,,2216626.0
1597571062.65625,11.07,,,2216140.0
1597571062.671875,15.24,,,2215923.0
1597571062.6875,19.63,,,2217458.0
1597571062.703125,22.95,,,2220363.0
1597571062.71875,24.39,,,2223444.0
1597571062.734375,24.01,,,2224163.0
1597571062.75,23.01,,,2224008.0
1597571062.765625,23.48,,,2223425.0
1597571062.78125,28.01,,,2222890.0
1597571062.796875,38.95,,,2222624.0
1597571062.8125,57.61,,,2222307.0
1597571062.828125,83.46,,,2222293.0
1597571062.84375,113.69,,,2222189.0
1597571062.859375,143.49,,,2222321.0
1597571062.875,167.01,,,2222663.0
1597571062.890625,179.11,,,2222710.0
1597571062.90625,176.93,,,2222304.0
1597571062.921875,160.88,,,2221708.0
1597571062.9375,134.39,,,2220580.0
1597571062.953125,102.54,,,2219868.0
1597571062.96875,70.3,,,2219412.0
1597571062.984375,41.14,,,2218743.0
1597571063.0,16.63,,,2218438.0
1597571063.015625,-3.1,,,2218192.0
1597571063.03125,-18.5,,,2217722.0
1597571063.046875,-29.96,,,2218012.0
1597571063.0625,-37.67,,,2217917.0
1597571063.078125,-41.99,,,2217912.0
1597571063.09375,-43.76,,,2218006.0
1597571063.109375,-44.29,,,2218574.0
1597571063.125,-44.92,,,2218547.0
1597571063.140625,-46.62,,,2219308.0
1597571063.15625,-49.61,,,2219315.0
1597571063.171875,-53.42,,,2219740.0
1597571063.1875,-57.21,,,2219675.0
1597571063.203125,-60.24,,,2220076.0
1597571063.21875,-62.13,,,2220389.0
1597571063.234375,-63.04,,,2220589.0
1597571063.25,-63.51,,,2220356.0
1597571063.265625,-64.21,,,2219354.0
1597571063.28125,-65.64,,,2218284.0
1597571063.296875,-67.96,,,2217385.0
1597571063.3125,-71.04,,,2216695.0
1597571063.328125,-74.54,,,2215964.0
1597571063.34375,-78.11,,,2215570.0
1597571063.359375,-81.52,,,2215263.0
1597571063.375,-84.54,,,2214966.0
1597571063.390625,-86.81,,,2214873.0
1597571063.40625,-87.69,,,2214438.0
1597571063.421875,-86.31,,,2214417.0
1597571063.4375,-81.88,,,2214134.0
1597571063.453125,-74.02,,,2214580.0
1597571063.46875,-63.04,,,2215237.0
1597571063.484375,-49.96,,,2215750.0
1597571063.5,-36.31,,,2216159.0
1597571063.515625,-23.6,,,2216550.0
1597571063.53125,-13.01,,,2216623.0
1597571063.546875,-5.07,,,2217216.0
1597571063.5625,0.39,,,2217473.0
1597571063.578125,4.02,,,2217563.0
1597571063.59375,6.7,,,2218080.0
1597571063.609375,9.23,,,2218430.0
1597571063.625,12.13,,,2218985.0
1597571063.640625,15.49,,,2219311.0
1597571063.65625,19.01,,,2219091.0
1597571063.671875,22.24,,,2217771.0
1597571063.6875,24.71,,,2216541.0
1597571063.703125,26.2,,,2215479.0
1597571063.71875,26.82,,,2214263.0
1597571063.734375,26.95,,,2213624.0
1597571063.75,27.07,,,2212913.0
1597571063.765625,27.59,,,2212648.0
1597571063.78125,28.65,,,2212312.0
1597571063.796875,30.15,,,2211746.0
1597571063.8125,31.78,,,2211170.0
1597571063.828125,33.22,,,2210825.0
1597571063.84375,34.27,,,2210868.0
1597571063.859375,34.9,,,2211127.0
1597571063.875,35.13,,,2211105.0
1597571063.890625,34.93,,,2210870.0
1597571063.90625,34.23,,,2211085.0
1597571063.921875,32.9,,,2211140.0
1597571063.9375,30.98,,,2211193.0
1597571063.953125,28.73,,,2211175.0
1597571063.96875,26.58,,,2211232.0
1597571063.984375,24.9,,,2211755.0
1597571064.0,23.85,,,2212031.0
1597571064.015625,23.23,,,2212669.0
1597571064.03125,22.65,,,2213055.0
1597571064.046875,21.7,,,2213264.0
1597571064.0625,20.23,,,2213608.0
1597571064.078125,18.32,,,2212726.0
1597571064.09375,16.21,,,2211195.0
1597571064.109375,14.11,,,2210158.0
1597571064.125,12.12,,,2209200.0
1597571064.140625,10.17,,,2208365.0
1597571064.15625,8.16,,,2208069.0
1597571064.171875,6.03,,,2207786.0
1597571064.1875,3.78,,,2207883.0
1597571064.203125,1.4,,,2207848.0
1597571064.21875,-1.14,,,2208230.0
1597571064.234375,-3.91,,,2208376.0
1597571064.25,-6.96,,,2209158.0
1597571064.265625,-10.24,,,2209426.0
1597571064.28125,-13.65,,,2209876.0
1597571064.296875,-17.04,,,2210108.0
1597571064.3125,-20.32,,,2210669.0
1597571064.328125,-23.48,,,2211236.0
1597571064.34375,-26.64,,,2211553.0
1597571064.359375,-30.01,,,2212194.0
1597571064.375,-33.83,,,2212816.0
1597571064.390625,-38.36,,,2213448.0
1597571064.40625,-43.65,,,2213867.0
1597571064.421875,-49.53,,,2214632.0
1597571064.4375,-55.36,,,2214865.0
1597571064.453125,-60.13,,,2216602.0
1597571064.46875,-62.57,,,2216116.0
1597571064.484375,-61.63,,,2216471.0
1597571064.5,-56.78,,,2215636.0
1597571064.515625,-48.34,,,2214405.0
1597571064.53125,-37.42,,,2213387.0
1597571064.546875,-25.53,,,2212785.0
1597571064.5625,-14.12,,,2211925.0
1597571064.578125,-4.19,,,2211966.0
1597571064.59375,3.91,,,2211624.0
1597571064.609375,10.27,,,2211601.0
1597571064.625,15.22,,,2211335.0
1597571064.640625,19.02,,,2211289.0
1597571064.65625,21.8,,,2211108.0
1597571064.671875,23.62,,,2211558.0
1597571064.6875,24.59,,,2211445.0
1597571064.703125,25.0,,,2211875.0
1597571064.71875,25.21,,,2212429.0
1597571064.734375,25.6,,,2212728.0
1597571064.75,26.41,,,2213136.0
1597571064.765625,27.67,,,2213678.0
1597571064.78125,29.24,,,2213770.0
1597571064.796875,30.88,,,2214470.0
1597571064.8125,32.36,,,2214820.0
1597571064.828125,33.52,,,2215254.0
1597571064.84375,34.39,,,2215513.0
1597571064.859375,35.07,,,2216471.0
1597571064.875,35.73,,,2216872.0
1597571064.890625,36.49,,,2217117.0
1597571064.90625,37.27,,,2217586.0
1597571064.921875,37.88,,,2216960.0
1597571064.9375,38.03,,,2215855.0
1597571064.953125,37.5,,,2214821.0
1597571064.96875,36.28,,,2213849.0
1597571064.984375,34.56,,,2213301.0
1597571065.0,32.65,,,2212961.0
1597571065.015625,30.83,,,2212941.0
1597571065.03125,29.18,,,2212730.0
1597571065.046875,27.58,,,2212649.0
1597571065.0625,25.83,,,2212467.0
1597571065.078125,23.76,,,2212059.0
1597571065.09375,21.41,,,2212572.0
1597571065.109375,18.98,,,2212629.0
1597571065.125,16.76,,,2212790.0
1597571065.140625,14.95,,,2212694.0
1597571065.15625,13.57,,,2213057.0
1597571065.171875,12.47,,,2213660.0
1597571065.1875,11.42,,,2213604.0
1597571065.203125,10.23,,,2214211.0
1597571065.21875,8.82,,,2214446.0
1597571065.234375,7.17,,,2214923.0
1597571065.25,5.32,,,2215207.0
1597571065.265625,3.29,,,2215857.0
1597571065.28125,1.14,,,2216429.0
1597571065.296875,-1.04,,,2216622.0
1597571065.3125,-3.11,,,2217189.0
1597571065.328125,-5.01,,,2217532.0
1597571065.34375,-6.82,,,2217759.0
1597571065.359375,-8.81,,,2216989.0
1597571065.375,-11.29,,,2216083.0
1597571065.390625,-14.5,,,2215437.0
1597571065.40625,-18.44,,,2214869.0
1597571065.421875,-22.89,,,2214650.0
1597571065.4375,-27.48,,,2214431.0
1597571065.453125,-31.82,,,2214670.0
1597571065.46875,-35.67,,,2214615.0
1597571065.484375,-38.95,,,2214767.0
1597571065.5,-41.76,,,2215008.0
1597571065.515625,-44.4,,,2215049.0
1597571065.53125,-47.31,,,2215178.0
1597571065.546875,-50.98,,,2215792.0
1597571065.5625,-55.74,,,2216126.0
1597571065.578125,-61.43,,,2216748.0
1597571065.59375,-67.2,,,2217131.0
1597571065.609375,-71.65,,,2217542.0
1597571065.625,-73.13,,,2218288.0
1597571065.640625,-70.43,,,2218378.0
1597571065.65625,-63.26,,,2218716.0
1597571065.671875,-52.46,,,2219304.0
1597571065.6875,-39.69,,,2219480.0
1597571065.703125,-26.86,,,2219617.0
1597571065.71875,-15.47,,,2220341.0
1597571065.734375,-6.24,,,2222173.0
1597571065.75,0.83,,,2224710.0
1597571065.765625,6.22,,,2225572.0
1597571065.78125,10.39,,,2225115.0
1597571065.796875,13.7,,,2223775.0
1597571065.8125,16.3,,,2222113.0
1597571065.828125,18.34,,,2221380.0
1597571065.84375,20.09,,,2220799.0
1597571065.859375,21.85,,,2220218.0
1597571065.875,23.89,,,2219900.0
1597571065.890625,26.17,,,2219400.0
1597571065.90625,28.46,,,2219439.0
1597571065.921875,30.4,,,2219540.0
1597571065.9375,31.8,,,2219777.0
1597571065.953125,32.71,,,2220093.0
1597571065.96875,33.42,,,2220318.0
1597571065.984375,34.28,,,2220393.0
1597571066.0,35.51,,,2220879.0
1597571066.015625,37.07,,,2220879.0
1597571066.03125,38.73,,,2221254.0
1597571066.046875,40.2,,,2222022.0
1597571066.0625,41.21,,,2221313.0
1597571066.078125,41.62,,,2222228.0
1597571066.09375,41.39,,,2222304.0
1597571066.109375,40.53,,,2223080.0
1597571066.125,39.15,,,2223448.0
1597571066.140625,37.39,,,2223513.0
1597571066.15625,35.39,,,2223854.0
1597571066.171875,33.29,,,2223649.0
1597571066.1875,31.2,,,2222588.0
1597571066.203125,29.22,,,2221949.0
1597571066.21875,27.36,,,2221363.0
1597571066.234375,25.65,,,2220998.0
1597571066.25,24.06,,,2220873.0
1597571066.265625,22.51,,,2220711.0
1597571066.28125,20.86,,,2220576.0
1597571066.296875,18.99,,,2220322.0
1597571066.3125,16.87,,,2220376.0
1597571066.328125,14.59,,,2219966.0
1597571066.34375,12.3,,,2220196.0
1597571066.359375,10.15,,,2220133.0
1597571066.375,8.16,,,2220487.0
1597571066.390625,6.16,,,2221095.0
1597571066.40625,3.92,,,2220946.0
1597571066.421875,1.29,,,2221611.0
1597571066.4375,-1.73,,,2221814.0
1597571066.453125,-4.92,,,2221829.0
1597571066.46875,-7.97,,,2221087.0
1597571066.484375,-10.58,,,2221758.0
1597571066.5,-12.7,,,2223289.0
1597571066.515625,-14.52,,,2224550.0
1597571066.53125,-16.42,,,2225206.0
1597571066.546875,-18.79,,,2225765.0
1597571066.5625,-21.8,,,2225702.0
1597571066.578125,-25.35,,,2225758.0
1597571066.59375,-29.11,,,2225287.0
1597571066.609375,-32.71,,,2224589.0
1597571066.625,-35.9,,,2223631.0
1597571066.640625,-38.7,,,2223041.0
1597571066.65625,-41.33,,,2222683.0
1597571066.671875,-44.22,,,2222670.0
1597571066.6875,-47.8,,,2222420.0
1597571066.703125,-52.4,,,2222486.0
1597571066.71875,-58.06,,,2222193.0
1597571066.734375,-64.34,,,2222012.0
1597571066.75,-70.31,,,2222413.0
1597571066.765625,-74.53,,,2222339.0
1597571066.78125,-75.5,,,2222503.0
1597571066.796875,-72.11,,,2223004.0
1597571066.8125,-64.17,,,2223105.0
1597571066.828125,-52.57,,,2223707.0
1597571066.84375,-39.06,,,2223876.0
1597571066.859375,-25.64,,,2224112.0
1597571066.875,-13.91,,,2224652.0
1597571066.890625,-4.71,,,2224872.0
1597571066.90625,1.96,,,2225084.0
1597571066.921875,6.6,,,2225249.0
1597571066.9375,9.82,,,2225667.0
1597571066.953125,12.16,,,2225957.0
1597571066.96875,13.94,,,2226555.0
1597571066.984375,15.46,,,2226507.0
1597571067.0,16.97,,,2226388.0
1597571067.015625,18.66,,,2226180.0
1597571067.03125,20.61,,,2225982.0
1597571067.046875,22.71,,,2225321.0
1597571067.0625,24.72,,,2224977.0
1597571067.078125,26.39,,,2224878.0
1597571067.09375,27.64,,,2224859.0
1597571067.109375,28.55,,,2224617.0
1597571067.125,29.36,,,2224808.0
1597571067.140625,30.26,,,2224747.0
1597571067.15625,31.38,,,2224583.0
1597571067.171875,32.65,,,2224889.0
1597571067.1875,33.91,,,2225304.0
1597571067.203125,34.97,,,2226295.0
1597571067.21875,35.64,,,2226655.0
1597571067.234375,35.84,,,2225867.0
1597571067.25,35.51,,,2228276.0
1597571067.265625,34.72,,,2226723.0
1597571067.28125,33.56,,,2229050.0
1597571067.296875,32.21,,,2230035.0
1597571067.3125,30.82,,,2230269.0
1597571067.328125,29.53,,,2230092.0
1597571067.34375,28.41,,,2230377.0
1597571067.359375,27.42,,,2230774.0
1597571067.375,26.47,,,2230524.0
1597571067.390625,25.43,,,2230595.0
1597571067.40625,24.19,,,2230129.0
1597571067.421875,22.71,,,2230287.0
1597571067.4375,21.0,,,2229245.0
1597571067.453125,19.14,,,2228636.0
1597571067.46875,17.16,,,2229639.0
1597571067.484375,15.1,,,2230870.0
1597571067.5,12.92,,,2228395.0
1597571067.515625,10.55,,,2228496.0
1597571067.53125,7.92,,,2228097.0
1597571067.546875,5.08,,,2228047.0
1597571067.5625,2.11,,,2227752.0
1597571067.578125,-0.84,,,2227904.0
1597571067.59375,-3.64,,,2227810.0
1597571067.609375,-6.27,,,2228102.0
1597571067.625,-8.88,,,2228313.0
1597571067.640625,-11.75,,,2228212.0
1597571067.65625,-15.15,,,2228241.0
1597571067.671875,-19.23,,,2228641.0
1597571067.6875,-23.86,,,2228740.0
1597571067.703125,-28.66,,,2228999.0
1597571067.71875,-33.1,,,2229045.0
1597571067.734375,-36.76,,,2229614.0
1597571067.75,-39.53,,,2229829.0
1597571067.765625,-41.7,,,2229860.0
1597571067.78125,-43.87,,,2230380.0
1597571067.796875,-46.74,,,2230584.0
1597571067.8125,-50.77,,,2230922.0
1597571067.828125,-55.9,,,2231049.0
1597571067.84375,-61.49,,,2231224.0
1597571067.859375,-66.41,,,2230826.0
1597571067.875,-69.33,,,2230447.0
1597571067.890625,-69.09,,,2230058.0
1597571067.90625,-65.07,,,2229984.0
1597571067.921875,-57.37,,,2229106.0
1597571067.9375,-46.79,,,2229091.0
1597571067.953125,-34.65,,,2228888.0
1597571067.96875,-22.45,,,2228909.0
1597571067.984375,-11.47,,,2229089.0
1597571068.0,-2.45,,,2229460.0
1597571068.015625,4.39,,,2229439.0
1597571068.03125,9.25,,,2229669.0
1597571068.046875,12.54,,,2230205.0
1597571068.0625,14.7,,,2229982.0
1597571068.078125,16.2,,,2230560.0
1597571068.09375,17.45,,,2231013.0
1597571068.109375,18.87,,,2231803.0
1597571068.125,20.77,,,2232336.0
1597571068.140625,23.2,,,2232853.0
1597571068.15625,25.91,,,2233314.0
1597571068.171875,28.46,,,2233292.0
1597571068.1875,30.42,,,2233883.0
1597571068.203125,31.55,,,2233843.0
1597571068.21875,31.92,,,2234163.0
1597571068.234375,31.88,,,2234169.0
1597571068.25,31.83,,,2234157.0
1597571068.265625,32.04,,,2233553.0
1597571068.28125,32.54,,,2233442.0
1597571068.296875,33.18,,,2233162.0
1597571068.3125,33.73,,,2232682.0
1597571068.328125,33.97,,,2232754.0
1597571068.34375,33.82,,,2232404.0
1597571068.359375,33.27,,,2232700.0
1597571068.375,32.38,,,2232323.0
1597571068.390625,31.24,,,2232099.0
1597571068.40625,29.93,,,2232183.0
1597571068.421875,28.5,,,2231784.0
1597571068.4375,27.01,,,2232078.0
1597571068.453125,25.51,,,2232678.0
1597571068.46875,23.97,,,2232635.0
1597571068.484375,22.3,,,2233022.0
1597571068.5,20.37,,,2233238.0
1597571068.515625,18.15,,,2233148.0
1597571068.53125,15.7,,,2233589.0
1597571068.546875,13.31,,,2233579.0
1597571068.5625,11.32,,,2233749.0
1597571068.578125,9.92,,,2234016.0
1597571068.59375,8.98,,,2234457.0
1597571068.609375,8.03,,,2234661.0
1597571068.625,6.43,,,2234583.0
1597571068.640625,3.71,,,2234893.0
1597571068.65625,-0.15,,,2234415.0
1597571068.671875,-4.69,,,2234441.0
1597571068.6875,-9.1,,,2233508.0
1597571068.703125,-12.54,,,2233280.0
1597571068.71875,-14.57,,,2233331.0
1597571068.734375,-15.2,,,2232882.0
1597571068.75,-14.97,,,2233017.0
1597571068.765625,-14.66,,,2233306.0
1597571068.78125,-15.11,,,2233601.0
1597571068.796875,-16.88,,,2233688.0
1597571068.8125,-19.97,,,2233843.0
1597571068.828125,-23.67,,,2233796.0
1597571068.84375,-26.48,,,2233795.0
1597571068.859375,-26.37,,,2234073.0
1597571068.875,-21.31,,,2234011.0
1597571068.890625,-10.09,,,2234325.0
1597571068.90625,6.94,,,2234511.0
1597571068.921875,27.4,,,2234472.0
1597571068.9375,47.29,,,2234479.0
1597571068.953125,62.04,,,2234866.0
1597571068.96875,68.01,,,2235052.0
1597571068.984375,63.66,,,2235081.0
1597571069.0,50.07,,,2235395.0
1597571069.015625,30.34,,,2235593.0
1597571069.03125,8.32,,,2235852.0
1597571069.046875,-12.75,,,2236065.0
1597571069.0625,-31.03,,,2236034.0
1597571069.078125,-46.07,,,2236213.0
1597571069.09375,-58.12,,,2235507.0
1597571069.109375,-67.3,,,2234980.0
1597571069.125,-73.34,,,2234813.0
1597571069.140625,-75.7,,,2234559.0
1597571069.15625,-74.12,,,2234212.0
1597571069.171875,-69.1,,,2234086.0
1597571069.1875,-61.84,,,2233882.0
1597571069.203125,-53.81,,,2233364.0
1597571069.21875,-46.16,,,2233522.0
1597571069.234375,-39.33,,,2233438.0
1597571069.25,-33.09,,,2233704.0
1597571069.265625,-26.89,,,2233601.0
1597571069.28125,-20.34,,,2233804.0
1597571069.296875,-13.5,,,2233950.0
1597571069.3125,-6.83,,,2234071.0
1597571069.328125,-0.95,,,2234528.0
1597571069.34375,3.72,,,2234719.0
1597571069.359375,7.12,,,2234820.0
1597571069.375,9.56,,,2234935.0
1597571069.390625,11.53,,,2235226.0
1597571069.40625,13.42,,,2235061.0
1597571069.421875,15.36,,,2235527.0
1597571069.4375,17.25,,,2235812.0
1597571069.453125,18.87,,,2235609.0
1597571069.46875,19.99,,,2236211.0
1597571069.484375,20.55,,,2236303.0
1597571069.5,20.6,,,2236000.0
1597571069.515625,20.26,,,2235568.0
1597571069.53125,19.58,,,2235370.0
1597571069.546875,18.62,,,2235106.0
1597571069.5625,17.41,,,2235102.0
1597571069.578125,16.07,,,2234853.0
1597571069.59375,14.78,,,2234866.0
1597571069.609375,13.74,,,2234491.0
1597571069.625,13.02,,,2234529.0
1597571069.640625,12.53,,,2234471.0
1597571069.65625,12.06,,,2234633.0
1597571069.671875,11.36,,,2234687.0
1597571069.6875,10.29,,,2234682.0
1597571069.703125,8.88,,,2235057.0
1597571069.71875,7.28,,,2235210.0
1597571069.734375,5.68,,,2235478.0
1597571069.75,4.28,,,2235195.0
1597571069.765625,3.12,,,2235520.0
1597571069.78125,2.15,,,2235346.0
1597571069.796875,1.17,,,2235635.0
1597571069.8125,-0.08,,,2235533.0
1597571069.828125,-1.9,,,2235974.0
1597571069.84375,-4.45,,,2236204.0
1597571069.859375,-7.74,,,2236000.0
1597571069.875,-11.55,,,2235708.0
1597571069.890625,-15.54,,,2235237.0
1597571069.90625,-19.4,,,2235018.0
1597571069.921875,-22.94,,,2234597.0
1597571069.9375,-26.19,,,2234473.0
1597571069.953125,-29.29,,,2233904.0
1597571069.96875,-32.45,,,2234328.0
1597571069.984375,-35.87,,,2233917.0
1597571070.0,-39.7,,,2233748.0
1597571070.015625,-44.05,,,2234000.0
1597571070.03125,-48.89,,,2233617.0
1597571070.046875,-53.84,,,2234123.0
1597571070.0625,-58.13,,,2234310.0
1597571070.078125,-60.62,,,2234002.0
1597571070.09375,-60.11,,,2233887.0
1597571070.109375,-55.83,,,2234828.0
1597571070.125,-47.84,,,2234875.0
1597571070.140625,-37.1,,,2234518.0
1597571070.15625,-25.17,,,2235365.0
1597571070.171875,-13.66,,,2235110.0
1597571070.1875,-3.77,,,2235955.0
1597571070.203125,4.04,,,2236391.0
1597571070.21875,9.87,,,2237421.0
1597571070.234375,14.14,,,2238187.0
1597571070.25,17.28,,,2238548.0
1597571070.265625,19.61,,,2238771.0
1597571070.28125,21.28,,,2239096.0
1597571070.296875,22.42,,,2239163.0
1597571070.3125,23.25,,,2238972.0
1597571070.328125,23.98,,,2238680.0
1597571070.34375,24.83,,,2237960.0
1597571070.359375,25.9,,,2237072.0
1597571070.375,27.17,,,2236772.0
1597571070.390625,28.53,,,2236164.0
1597571070.40625,29.81,,,2235632.0
1597571070.421875,30.98,,,2235587.0
1597571070.4375,32.07,,,2234914.0
1597571070.453125,33.2,,,2235248.0
1597571070.46875,34.49,,,2235076.0
1597571070.484375,35.97,,,2234933.0
1597571070.5,37.55,,,2235126.0
1597571070.515625,38.98,,,2234991.0
1597571070.53125,39.93,,,2235230.0
1597571070.546875,40.13,,,2235100.0
1597571070.5625,39.46,,,2235175.0
1597571070.578125,37.97,,,2235679.0
1597571070.59375,35.95,,,2235883.0
1597571070.609375,33.73,,,2235805.0
1597571070.625,31.64,,,2236067.0
1597571070.640625,29.84,,,2236316.0
1597571070.65625,28.32,,,2236959.0
1597571070.671875,26.88,,,2236818.0
1597571070.6875,25.31,,,2237053.0
1597571070.703125,23.48,,,2237076.0
1597571070.71875,21.43,,,2236416.0
1597571070.734375,19.3,,,2235975.0
1597571070.75,17.21,,,2235455.0
1597571070.765625,15.17,,,2235604.0
1597571070.78125,13.07,,,2235192.0
1597571070.796875,10.76,,,2235171.0
1597571070.8125,8.2,,,2235381.0
1597571070.828125,5.49,,,2235185.0
1597571070.84375,2.83,,,2235037.0
1597571070.859375,0.39,,,2234861.0
1597571070.875,-1.81,,,2235146.0
1597571070.890625,-3.99,,,2235355.0
1597571070.90625,-6.43,,,2235522.0
1597571070.921875,-9.4,,,2235503.0
1597571070.9375,-12.96,,,2235659.0
1597571070.953125,-16.99,,,2236137.0
1597571070.96875,-21.22,,,2236438.0
1597571070.984375,-25.38,,,2236163.0
1597571071.0,-29.27,,,2236700.0
1597571071.015625,-32.78,,,2236913.0
1597571071.03125,-35.97,,,2237064.0
1597571071.046875,-39.06,,,2237402.0
1597571071.0625,-42.38,,,2237696.0
1597571071.078125,-46.36,,,2237342.0
1597571071.09375,-51.36,,,2236699.0
1597571071.109375,-57.43,,,2236225.0
1597571071.125,-64.11,,,2235737.0
1597571071.140625,-70.37,,,2235542.0
1597571071.15625,-74.82,,,2234566.0
1597571071.171875,-76.09,,,2234812.0
1597571071.1875,-73.32,,,2234466.0
1597571071.203125,-66.43,,,2234392.0
1597571071.21875,-56.26,,,2234095.0
1597571071.234375,-44.24,,,2233726.0
1597571071.25,-31.92,,,2233451.0
1597571071.265625,-20.61,,,2233562.0
1597571071.28125,-11.06,,,2233135.0
1597571071.296875,-3.51,,,2233620.0
1597571071.3125,2.24,,,2233879.0
1597571071.328125,6.53,,,2233743.0
1597571071.34375,9.77,,,2234146.0
1597571071.359375,12.34,,,2234133.0
1597571071.375,14.57,,,2234561.0
1597571071.390625,16.76,,,2234703.0
1597571071.40625,19.09,,,2235031.0
1597571071.421875,21.62,,,2235564.0
1597571071.4375,24.28,,,2235479.0
1597571071.453125,26.85,,,2235651.0
1597571071.46875,29.13,,,2235361.0
1597571071.484375,30.95,,,2234027.0
1597571071.5,32.26,,,2234861.0
1597571071.515625,33.18,,,2233859.0
1597571071.53125,33.88,,,2232835.0
1597571071.546875,34.55,,,2232277.0
1597571071.5625,35.29,,,2231838.0
1597571071.578125,36.11,,,2231548.0
1597571071.59375,36.88,,,2231385.0
1597571071.609375,37.41,,,2231143.0
1597571071.625,37.56,,,2230924.0
1597571071.640625,37.29,,,2230634.0
1597571071.65625,36.67,,,2230546.0
1597571071.671875,35.83,,,2230570.0
1597571071.6875,34.81,,,2230799.0
1597571071.703125,33.64,,,2230885.0
1597571071.71875,32.27,,,2230995.0
1597571071.734375,30.71,,,2231394.0
1597571071.75,29.03,,,2231612.0
1597571071.765625,27.32,,,2231835.0
1597571071.78125,25.64,,,2232130.0
1597571071.796875,23.92,,,2232284.0
1597571071.8125,22.05,,,2232783.0
1597571071.828125,19.98,,,2232902.0
1597571071.84375,17.78,,,2233258.0
1597571071.859375,15.62,,,2233561.0
1597571071.875,13.7,,,2233276.0
1597571071.890625,12.04,,,2233092.0
1597571071.90625,10.48,,,2231359.0
1597571071.921875,8.7,,,2232004.0
1597571071.9375,6.45,,,2228890.0
1597571071.953125,3.72,,,2227177.0
1597571071.96875,0.73,,,2226974.0
1597571071.984375,-2.21,,,2226482.0
1597571072.0,-4.9,,,2227804.0
1597571072.015625,-7.4,,,2227715.0
1597571072.03125,-9.97,,,2228280.0
1597571072.046875,-12.89,,,2227248.0
1597571072.0625,-16.36,,,2227022.0
1597571072.078125,-20.39,,,2227082.0
1597571072.09375,-24.77,,,2226805.0
1597571072.109375,-29.28,,,2226706.0
1597571072.125,-33.69,,,2226736.0
1597571072.140625,-37.82,,,2226628.0
1597571072.15625,-41.55,,,2226746.0
1597571072.171875,-44.87,,,2226935.0
1597571072.1875,-47.94,,,2227104.0
1597571072.203125,-51.09,,,2226953.0
1597571072.21875,-54.76,,,2228049.0
1597571072.234375,-59.19,,,2228065.0
1597571072.25,-64.23,,,2227537.0
1597571072.265625,-69.09,,,2228690.0
1597571072.28125,-72.51,,,2228534.0
1597571072.296875,-73.1,,,2228924.0
1597571072.3125,-69.84,,,2229155.0
1597571072.328125,-62.53,,,2227986.0
1597571072.34375,-51.84,,,2226698.0
1597571072.359375,-39.18,,,2228967.0
1597571072.375,-26.14,,,2229243.0
1597571072.390625,-14.14,,,2225486.0
1597571072.40625,-4.04,,,2224406.0
1597571072.421875,3.79,,,2223639.0
1597571072.4375,9.42,,,2223152.0
1597571072.453125,13.17,,,2222408.0
1597571072.46875,15.48,,,2222164.0
1597571072.484375,16.84,,,2221510.0
1597571072.5,17.75,,,2221669.0
1597571072.515625,18.62,,,2221549.0
1597571072.53125,19.71,,,2221644.0
1597571072.546875,21.04,,,2221661.0
1597571072.5625,22.48,,,2222239.0
1597571072.578125,23.83,,,2222351.0
1597571072.59375,24.99,,,2221403.0
1597571072.609375,26.01,,,2222817.0
1597571072.625,27.04,,,2223937.0
1597571072.640625,28.21,,,2224169.0
1597571072.65625,29.57,,,2223386.0
1597571072.671875,31.05,,,2224886.0
1597571072.6875,32.5,,,2223551.0
1597571072.703125,33.78,,,2225247.0
1597571072.71875,34.82,,,2225713.0
1597571072.734375,35.61,,,2224916.0
1597571072.75,36.09,,,2220937.0
1597571072.765625,36.23,,,2221290.0
1597571072.78125,35.89,,,2219026.0
1597571072.796875,34.98,,,2219925.0
1597571072.8125,33.47,,,2218109.0
1597571072.828125,31.4,,,2217262.0
1597571072.84375,28.96,,,2216051.0
1597571072.859375,26.4,,,2215063.0
1597571072.875,23.94,,,2214432.0
1597571072.890625,21.77,,,2214217.0
1597571072.90625,19.96,,,2213790.0
1597571072.921875,18.45,,,2213657.0
1597571072.9375,17.09,,,2213631.0
1597571072.953125,15.7,,,2213887.0
1597571072.96875,14.14,,,2214363.0
1597571072.984375,12.38,,,2214179.0
1597571073.0,10.46,,,2214810.0
1597571073.015625,8.52,,,2215871.0
1597571073.03125,6.7,,,2215392.0
1597571073.046875,5.04,,,2216336.0
1597571073.0625,3.51,,,2216683.0
1597571073.078125,1.95,,,2217050.0
1597571073.09375,0.2,,,2218018.0
1597571073.109375,-1.89,,,2218790.0
1597571073.125,-4.4,,,2219262.0
1597571073.140625,-7.35,,,2218895.0
1597571073.15625,-10.63,,,2218173.0
1597571073.171875,-14.13,,,2216029.0
1597571073.1875,-17.7,,,2214397.0
1597571073.203125,-21.22,,,2212785.0
1597571073.21875,-24.65,,,2211103.0
1597571073.234375,-28.07,,,2210005.0
1597571073.25,-31.74,,,2209526.0
1597571073.265625,-35.99,,,2211747.0
1597571073.28125,-41.21,,,2210392.0
1597571073.296875,-47.53,,,2209577.0
1597571073.3125,-54.63,,,2209300.0
1597571073.328125,-61.63,,,2209439.0
1597571073.34375,-67.21,,,2209520.0
1597571073.359375,-69.96,,,2209968.0
1597571073.375,-68.75,,,2209283.0
1597571073.390625,-63.18,,,2210939.0
1597571073.40625,-53.67,,,2210731.0
1597571073.421875,-41.44,,,2211488.0
1597571073.4375,-28.12,,,2212169.0
1597571073.453125,-15.33,,,2212490.0
1597571073.46875,-4.29,,,2212989.0
1597571073.484375,4.4,,,2213578.0
1597571073.5,10.76,,,2214591.0
1597571073.515625,15.25,,,2214121.0
1597571073.53125,18.51,,,2215864.0
1597571073.546875,21.1,,,2217908.0
1597571073.5625,23.38,,,2218691.0
1597571073.578125,25.44,,,2218059.0
1597571073.59375,27.24,,,2215902.0
1597571073.609375,28.71,,,2213098.0
1597571073.625,29.82,,,2211553.0
1597571073.640625,30.61,,,2210338.0
1597571073.65625,31.14,,,2209898.0
1597571073.671875,31.46,,,2210091.0
1597571073.6875,31.58,,,2209975.0
1597571073.703125,31.55,,,2209560.0
1597571073.71875,31.51,,,2209372.0
1597571073.734375,31.66,,,2209474.0
1597571073.75,32.22,,,2209546.0
1597571073.765625,33.27,,,2210108.0
1597571073.78125,34.65,,,2210852.0
1597571073.796875,35.97,,,2211253.0
1597571073.8125,36.78,,,2210458.0
1597571073.828125,36.7,,,2211074.0
1597571073.84375,35.63,,,2209858.0
1597571073.859375,33.79,,,2211803.0
1597571073.875,31.61,,,2212365.0
1597571073.890625,29.53,,,2212853.0
1597571073.90625,27.81,,,2213427.0
1597571073.921875,26.47,,,2213684.0
1597571073.9375,25.38,,,2213727.0
1597571073.953125,24.32,,,2210570.0
1597571073.96875,23.16,,,2212425.0
1597571073.984375,21.82,,,2208664.0
1597571074.0,20.29,,,2207402.0
1597571074.015625,18.56,,,2206331.0
1597571074.03125,16.58,,,2205966.0
1597571074.046875,14.32,,,2205339.0
1597571074.0625,11.8,,,2204669.0
1597571074.078125,9.12,,,2204285.0
1597571074.09375,6.46,,,2203978.0
1597571074.109375,3.94,,,2204303.0
1597571074.125,1.59,,,2204449.0
1597571074.140625,-0.67,,,2204611.0
1597571074.15625,-3.01,,,2204961.0
1597571074.171875,-5.59,,,2205693.0
1597571074.1875,-8.51,,,2206073.0
1597571074.203125,-11.85,,,2206507.0
1597571074.21875,-15.61,,,2206908.0
1597571074.234375,-19.7,,,2207370.0
1597571074.25,-23.96,,,2207864.0
1597571074.265625,-28.17,,,2208264.0
1597571074.28125,-32.07,,,2210030.0
1597571074.296875,-35.56,,,2210309.0
1597571074.3125,-38.69,,,2209123.0
1597571074.328125,-41.76,,,2212607.0
1597571074.34375,-45.17,,,2215737.0
1597571074.359375,-49.28,,,2217210.0
1597571074.375,-54.26,,,2216556.0
1597571074.390625,-60.05,,,2215116.0
1597571074.40625,-66.22,,,2209714.0
1597571074.421875,-72.04,,,2209983.0
1597571074.4375,-76.49,,,2211253.0
1597571074.453125,-78.39,,,2209544.0
1597571074.46875,-76.72,,,2209025.0
1597571074.484375,-70.98,,,2213075.0
1597571074.5,-61.47,,,2208902.0
1597571074.515625,-49.34,,,2210038.0
1597571074.53125,-36.27,,,2209025.0
1597571074.546875,-23.91,,,2208957.0
1597571074.5625,-13.41,,,2210127.0
1597571074.578125,-5.15,,,2209661.0
1597571074.59375,1.12,,,2210680.0
1597571074.609375,5.99,,,2210933.0
1597571074.625,9.94,,,2211243.0
1597571074.640625,13.25,,,2212033.0
1597571074.65625,16.01,,,2213200.0
1597571074.671875,18.24,,,2214271.0
1597571074.6875,20.09,,,2213542.0
1597571074.703125,21.7,,,2212438.0
1597571074.71875,23.21,,,2214699.0
1597571074.734375,24.67,,,2214914.0
1597571074.75,26.03,,,2214147.0
1597571074.765625,27.28,,,2212344.0
1597571074.78125,28.38,,,2211061.0
1597571074.796875,29.32,,,2209907.0
1597571074.8125,30.13,,,2209180.0
1597571074.828125,30.85,,,2209111.0
1597571074.84375,31.52,,,2209102.0
1597571074.859375,32.24,,,2208859.0
1597571074.875,33.05,,,2208866.0
1597571074.890625,33.89,,,2208630.0
1597571074.90625,34.58,,,2208701.0
1597571074.921875,34.82,,,2208815.0
1597571074.9375,34.4,,,2209388.0
1597571074.953125,33.29,,,2209931.0
1597571074.96875,31.69,,,2210158.0
1597571074.984375,29.96,,,2210797.0
1597571075.0,28.44,,,2211390.0
1597571075.015625,27.26,,,2212307.0
1597571075.03125,26.31,,,2214858.0
1597571075.046875,25.34,,,2218514.0
1597571075.0625,24.11,,,2223384.0
1597571075.078125,22.54,,,2226234.0
1597571075.09375,20.73,,,2226224.0
1597571075.109375,18.85,,,2225216.0
1597571075.125,17.06,,,2222961.0
1597571075.140625,15.41,,,2220210.0
1597571075.15625,13.9,,,2218011.0
1597571075.171875,12.48,,,2216421.0
1597571075.1875,11.13,,,2215468.0
1597571075.203125,9.79,,,2215038.0
1597571075.21875,8.43,,,2214389.0
1597571075.234375,6.95,,,2214264.0
1597571075.25,5.25,,,2214033.0
1597571075.265625,3.3,,,2213954.0
1597571075.28125,1.15,,,2213944.0
1597571075.296875,-1.06,,,2214404.0
1597571075.3125,-3.12,,,2214468.0
1597571075.328125,-4.93,,,2214992.0
1597571075.34375,-6.49,,,2215777.0
1597571075.359375,-7.95,,,2215949.0
1597571075.375,-9.55,,,2216541.0
1597571075.390625,-11.51,,,2216987.0
1597571075.40625,-13.99,,,2217715.0
1597571075.421875,-17.02,,,2218356.0
1597571075.4375,-20.52,,,2218082.0
1597571075.453125,-24.28,,,2218185.0
1597571075.46875,-28.08,,,2216892.0
1597571075.484375,-31.68,,,2215526.0
1597571075.5,-34.93,,,2214517.0
1597571075.515625,-37.87,,,2213125.0
1597571075.53125,-40.78,,,2212739.0
1597571075.546875,-44.16,,,2212238.0
1597571075.5625,-48.56,,,2212252.0
1597571075.578125,-54.2,,,2211953.0
1597571075.59375,-60.73,,,2211513.0
1597571075.609375,-67.1,,,2211686.0
1597571075.625,-71.79,,,2211742.0
1597571075.640625,-73.24,,,2212048.0
1597571075.65625,-70.45,,,2212380.0
1597571075.671875,-63.35,,,2212666.0
1597571075.6875,-52.77,,,2214142.0
1597571075.703125,-40.23,,,2214528.0
1597571075.71875,-27.34,,,2215417.0
1597571075.734375,-15.42,,,2215904.0
1597571075.75,-5.32,,,2216277.0
1597571075.765625,2.7,,,2216262.0
1597571075.78125,8.66,,,2213252.0
1597571075.796875,12.8,,,2214058.0
1597571075.8125,15.5,,,2211833.0
1597571075.828125,17.22,,,2210184.0
1597571075.84375,18.47,,,2208775.0
1597571075.859375,19.68,,,2208114.0
1597571075.875,21.15,,,2213650.0
1597571075.890625,22.99,,,2207930.0
1597571075.90625,25.07,,,2215498.0
1597571075.921875,27.17,,,2207515.0
1597571075.9375,29.0,,,2207187.0
1597571075.953125,30.36,,,2207439.0
1597571075.96875,31.2,,,2207968.0
1597571075.984375,31.64,,,2208223.0
1597571076.0,31.94,,,2207464.0
1597571076.015625,32.42,,,2207836.0
1597571076.03125,33.27,,,2208975.0
1597571076.046875,34.45,,,2209453.0
1597571076.0625,35.63,,,2210229.0
1597571076.078125,36.27,,,2210542.0
1597571076.09375,35.91,,,2207500.0
1597571076.109375,34.38,,,2211233.0
1597571076.125,31.93,,,2211918.0
1597571076.140625,29.13,,,2212745.0
1597571076.15625,26.6,,,2212700.0
1597571076.171875,24.73,,,2211828.0
1597571076.1875,23.53,,,2209398.0
1597571076.203125,22.57,,,2206967.0
1597571076.21875,21.31,,,2204848.0
1597571076.234375,19.34,,,2203531.0
1597571076.25,16.52,,,2202719.0
1597571076.265625,13.12,,,2202210.0
1597571076.28125,9.71,,,2202031.0
1597571076.296875,6.93,,,2201673.0
1597571076.3125,5.19,,,2201547.0
1597571076.328125,4.58,,,2201254.0
1597571076.34375,4.64,,,2201363.0
1597571076.359375,4.53,,,2201593.0
1597571076.375,3.33,,,2201923.0
1597571076.390625,0.43,,,2203117.0
1597571076.40625,-4.1,,,2203571.0
1597571076.421875,-9.5,,,2204629.0
1597571076.4375,-14.56,,,2206036.0
1597571076.453125,-18.19,,,2205011.0
1597571076.46875,-19.81,,,2206786.0
1597571076.484375,-19.64,,,2208002.0
1597571076.5,-18.52,,,2207100.0
1597571076.515625,-17.63,,,2209085.0
1597571076.53125,-18.01,,,2209317.0
1597571076.546875,-20.16,,,2208980.0
1597571076.5625,-23.77,,,2206201.0
1597571076.578125,-27.43,,,2204180.0
1597571076.59375,-28.64,,,2205084.0
1597571076.609375,-24.25,,,2207485.0
1597571076.625,-11.4,,,2208446.0
1597571076.640625,11.16,,,2209125.0
1597571076.65625,41.84,,,2208602.0
1597571076.671875,75.92,,,2207384.0
1597571076.6875,106.64,,,2206479.0
1597571076.703125,127.2,,,2206042.0
1597571076.71875,133.09,,,2206558.0
1597571076.734375,123.44,,,2206944.0
1597571076.75,100.97,,,2206921.0
1597571076.765625,70.5,,,2207366.0
1597571076.78125,37.04,,,2207703.0
1597571076.796875,4.37,,,2208732.0
1597571076.8125,-25.28,,,2209024.0
1597571076.828125,-50.69,,,2209977.0
1597571076.84375,-70.84,,,2211086.0
1597571076.859375,-84.65,,,2212403.0
1597571076.875,-91.28,,,2213485.0
1597571076.890625,-90.75,,,2214349.0
1597571076.90625,-84.4,,,2214962.0
1597571076.921875,-74.59,,,2215578.0
1597571076.9375,-63.95,,,2215446.0
1597571076.953125,-54.48,,,2213691.0
1597571076.96875,-46.99,,,2210974.0
1597571076.984375,-41.18,,,2208401.0
1597571077.0,-36.08,,,2207094.0
1597571077.015625,-30.76,,,2205609.0
1597571077.03125,-24.74,,,2204987.0
1597571077.046875,-18.17,,,2204517.0
1597571077.0625,-11.64,,,2203876.0
1597571077.078125,-5.86,,,2203710.0
1597571077.09375,-1.33,,,2203620.0
1597571077.109375,1.88,,,2203032.0
1597571077.125,4.11,,,2203747.0
1597571077.140625,5.97,,,2203687.0
1597571077.15625,8.05,,,2204483.0
1597571077.171875,10.62,,,2204662.0
1597571077.1875,13.5,,,2205581.0
1597571077.203125,16.25,,,2206313.0
1597571077.21875,18.28,,,2206684.0
1597571077.234375,19.25,,,2207389.0
1597571077.25,19.12,,,2207998.0
1597571077.265625,18.18,,,2208873.0
1597571077.28125,16.86,,,2209754.0
1597571077.296875,15.56,,,2209968.0
1597571077.3125,14.51,,,2210445.0
1597571077.328125,13.79,,,2209588.0
1597571077.34375,13.34,,,2207641.0
1597571077.359375,13.05,,,2205820.0
1597571077.375,12.73,,,2204058.0
1597571077.390625,12.17,,,2202563.0
1597571077.40625,11.19,,,2203211.0
1597571077.421875,9.67,,,2202251.0
1597571077.4375,7.62,,,2201711.0
1597571077.453125,5.24,,,2201988.0
1597571077.46875,2.8,,,2201703.0
1597571077.484375,0.55,,,2201784.0
1597571077.5,-1.4,,,2201823.0
1597571077.515625,-3.11,,,2202257.0
1597571077.53125,-4.8,,,2203044.0
1597571077.546875,-6.72,,,2203298.0
1597571077.5625,-9.11,,,2204195.0
1597571077.578125,-12.1,,,2204542.0
1597571077.59375,-15.68,,,2205463.0
1597571077.609375,-19.74,,,2205790.0
1597571077.625,-24.05,,,2206676.0
1597571077.640625,-28.34,,,2207169.0
1597571077.65625,-32.35,,,2208227.0
1597571077.671875,-35.92,,,2208980.0
1597571077.6875,-39.11,,,2209654.0
1597571077.703125,-42.21,,,2210202.0
1597571077.71875,-45.71,,,2211143.0
1597571077.734375,-50.11,,,2211184.0
1597571077.75,-55.64,,,2211401.0
1597571077.765625,-62.0,,,2209759.0
1597571077.78125,-68.25,,,2207829.0
1597571077.796875,-72.95,,,2206054.0
1597571077.8125,-74.59,,,2204565.0
1597571077.828125,-72.06,,,2203770.0
1597571077.84375,-65.09,,,2203448.0
1597571077.859375,-54.37,,,2203311.0
1597571077.875,-41.28,,,2202954.0
1597571077.890625,-27.58,,,2202967.0
1597571077.90625,-14.83,,,2202892.0
1597571077.921875,-4.18,,,2203169.0
1597571077.9375,3.85,,,2203691.0
1597571077.953125,9.29,,,2204021.0
1597571077.96875,12.62,,,2204524.0
1597571077.984375,14.58,,,2205445.0
1597571078.0,15.96,,,2206084.0
1597571078.015625,17.4,,,2207265.0
1597571078.03125,19.23,,,2208173.0
1597571078.046875,21.47,,,2209166.0
1597571078.0625,23.9,,,2210391.0
1597571078.078125,26.26,,,2210984.0
1597571078.09375,28.42,,,2212001.0
1597571078.109375,30.38,,,2213149.0
1597571078.125,32.19,,,2213181.0
1597571078.140625,33.85,,,2212406.0
1597571078.15625,35.3,,,2211131.0
1597571078.171875,36.43,,,2211068.0
1597571078.1875,37.23,,,2211769.0
1597571078.203125,37.87,,,2211986.0
1597571078.21875,38.6,,,2211604.0
1597571078.234375,39.64,,,2211474.0
1597571078.25,40.93,,,2210450.0
1597571078.265625,42.15,,,2210184.0
1597571078.28125,42.79,,,2210037.0
1597571078.296875,42.4,,,2210046.0
1597571078.3125,40.87,,,2210246.0
1597571078.328125,38.47,,,2210372.0
1597571078.34375,35.74,,,2210905.0
1597571078.359375,33.21,,,2211471.0
1597571078.375,31.14,,,2212014.0
1597571078.390625,29.4,,,2212956.0
1597571078.40625,27.59,,,2213254.0
1597571078.421875,25.22,,,2213976.0
1597571078.4375,22.03,,,2214444.0
1597571078.453125,18.12,,,2215256.0
1597571078.46875,13.87,,,2215853.0
1597571078.484375,9.83,,,2216579.0
1597571078.5,6.42,,,2216978.0
1597571078.515625,3.75,,,2217531.0
1597571078.53125,1.64,,,2217651.0
1597571078.546875,-0.34,,,2217168.0
1597571078.5625,-2.64,,,2214618.0
1597571078.578125,-5.53,,,2216180.0
1597571078.59375,-8.98,,,2213196.0
1597571078.609375,-12.79,,,2212330.0
1597571078.625,-16.67,,,2211729.0
1597571078.640625,-20.45,,,2211124.0
1597571078.65625,-24.12,,,2210839.0
1597571078.671875,-27.75,,,2210526.0
1597571078.6875,-31.47,,,2210483.0
1597571078.703125,-35.36,,,2210646.0
1597571078.71875,-39.57,,,2210620.0
1597571078.734375,-44.28,,,2210922.0
1597571078.75,-49.67,,,2211288.0
1597571078.765625,-55.65,,,2212533.0
1597571078.78125,-61.66,,,2211669.0
1597571078.796875,-66.56,,,2213569.0
1597571078.8125,-68.91,,,2213050.0
1597571078.828125,-67.41,,,2214226.0
1597571078.84375,-61.46,,,2215051.0
1597571078.859375,-51.48,,,2215530.0
1597571078.875,-38.8,,,2215883.0
1597571078.890625,-25.28,,,2216820.0
1597571078.90625,-12.62,,,2217993.0
1597571078.921875,-1.98,,,2218553.0
1597571078.9375,6.25,,,2219213.0
1597571078.953125,12.28,,,2219607.0
1597571078.96875,16.66,,,2219360.0
1597571078.984375,19.9,,,2215495.0
1597571079.0,22.35,,,2217752.0
1597571079.015625,24.22,,,2212813.0
1597571079.03125,25.61,,,2214060.0
1597571079.046875,26.65,,,2212139.0
1597571079.0625,27.51,,,2211610.0
1597571079.078125,28.34,,,2211129.0
1597571079.09375,29.26,,,2210620.0
1597571079.109375,30.24,,,2210318.0
1597571079.125,31.27,,,2210304.0
1597571079.140625,32.31,,,2210607.0
1597571079.15625,33.39,,,2211388.0
1597571079.171875,34.6,,,2211805.0
1597571079.1875,35.96,,,2212518.0
1597571079.203125,37.46,,,2213150.0
1597571079.21875,39.0,,,2214084.0
1597571079.234375,40.36,,,2215323.0
1597571079.25,41.33,,,2214637.0
1597571079.265625,41.69,,,2215618.0
1597571079.28125,41.36,,,2216234.0
1597571079.296875,40.32,,,2216956.0
1597571079.3125,38.7,,,2217348.0
1597571079.328125,36.66,,,2217066.0
1597571079.34375,34.32,,,2216102.0
1597571079.359375,31.75,,,2213891.0
1597571079.375,29.01,,,2212428.0
1597571079.390625,26.16,,,2211128.0
1597571079.40625,23.33,,,2210614.0
1597571079.421875,20.69,,,2210564.0
1597571079.4375,18.3,,,2210222.0
1597571079.453125,16.11,,,2210250.0
1597571079.46875,13.91,,,2210365.0
1597571079.484375,11.48,,,2210430.0
1597571079.5,8.68,,,2210707.0
1597571079.515625,5.64,,,2210808.0
1597571079.53125,2.61,,,2211622.0
1597571079.546875,-0.12,,,2212152.0
1597571079.5625,-2.48,,,2212588.0
1597571079.578125,-4.63,,,2213585.0
1597571079.59375,-6.9,,,2213749.0
1597571079.609375,-9.6,,,2213800.0
1597571079.625,-12.88,,,2213059.0
1597571079.640625,-16.63,,,2212013.0
1597571079.65625,-20.63,,,2211356.0
1597571079.671875,-24.64,,,2210971.0
1597571079.6875,-28.57,,,2211454.0
1597571079.703125,-32.47,,,2212541.0
1597571079.71875,-36.45,,,2214182.0
1597571079.734375,-40.63,,,2214819.0
1597571079.75,-45.11,,,2215293.0
1597571079.765625,-50.02,,,2215104.0
1597571079.78125,-55.45,,,2215414.0
1597571079.796875,-61.34,,,2215083.0
1597571079.8125,-67.33,,,2215731.0
1597571079.828125,-72.54,,,2216272.0
1597571079.84375,-75.72,,,2216656.0
1597571079.859375,-75.57,,,2216887.0
1597571079.875,-71.22,,,2217427.0
1597571079.890625,-62.7,,,2217649.0
1597571079.90625,-50.95,,,2218646.0
1597571079.921875,-37.55,,,2219077.0
1597571079.9375,-24.21,,,2219811.0
1597571079.953125,-12.29,,,2220314.0
1597571079.96875,-2.49,,,2220958.0
1597571079.984375,5.08,,,2221778.0
1597571080.0,10.66,,,2222165.0
1597571080.015625,14.66,,,2222862.0
1597571080.03125,17.48,,,2223378.0
1597571080.046875,19.53,,,2223836.0
1597571080.0625,21.18,,,2224526.0
1597571080.078125,22.74,,,2225143.0
1597571080.09375,24.45,,,2225186.0
1597571080.109375,26.39,,,2224006.0
1597571080.125,28.52,,,2222809.0
1597571080.140625,30.72,,,2221461.0
1597571080.15625,32.85,,,2220489.0
1597571080.171875,34.74,,,2219551.0
1597571080.1875,36.3,,,2218923.0
1597571080.203125,37.52,,,2218618.0
1597571080.21875,38.48,,,2217974.0
1597571080.234375,39.37,,,2217787.0
1597571080.25,40.37,,,2217295.0
1597571080.265625,41.54,,,2217203.0
1597571080.28125,42.73,,,2217072.0
1597571080.296875,43.65,,,2217375.0
1597571080.3125,43.93,,,2217684.0
1597571080.328125,43.33,,,2217898.0
1597571080.34375,41.86,,,2218661.0
1597571080.359375,39.7,,,2219082.0
1597571080.375,37.18,,,2219674.0
