timestamp,bvp,eda,temp,PPG GREEN
1638177633.0,64.0,4.0,4.0,1942189.0
1638177633.015625,-0.0,0.0,35.23,1942771.0
1638177633.03125,-0.0,0.840149,35.23,1944383.0
1638177633.046875,-0.0,1.187489,35.23,1945842.0
1638177633.0625,-0.0,1.624281,35.23,1948838.0
1638177633.078125,-0.0,2.103368,35.23,1950731.0
1638177633.09375,-0.0,2.176567,35.23,1952458.0
1638177633.109375,-0.0,2.179129,35.23,1954043.0
1638177633.125,-0.0,2.179129,35.23,1947458.0
1638177633.140625,-0.0,2.18169,35.25,1956381.0
1638177633.15625,-0.0,2.18041,35.25,1960383.0
1638177633.171875,0.0,2.179129,35.25,1962776.0
1638177633.1875,0.01,2.18169,35.25,1958058.0
1638177633.203125,0.01,2.18041,35.23,1960877.0
1638177633.21875,-0.0,2.18169,35.23,1954974.0
1638177633.234375,-0.03,2.182971,35.23,1949175.0
1638177633.25,-0.05,2.18169,35.23,1945048.0
1638177633.265625,-0.05,2.175287,35.23,1942154.0
1638177633.28125,0.0,2.172725,35.23,1940432.0
1638177633.296875,0.13,2.172725,35.23,1940080.0
1638177633.3125,0.36,2.170164,35.23,1939785.0
1638177633.328125,0.66,2.171445,35.21,1939142.0
1638177633.34375,1.01,2.174006,35.21,1938595.0
1638177633.359375,1.37,2.172725,35.21,1938524.0
1638177633.375,1.72,2.171445,35.21,1938891.0
1638177633.390625,2.06,2.174006,35.23,1940119.0
1638177633.40625,2.4,2.189374,35.23,1941212.0
1638177633.421875,2.79,2.172725,35.23,1942910.0
1638177633.4375,3.24,2.174006,35.23,1944323.0
1638177633.453125,3.8,2.172725,35.23,1945983.0
1638177633.46875,4.42,2.170164,35.23,1948079.0
1638177633.484375,5.06,2.175287,35.23,1949692.0
1638177633.5,5.66,2.177848,35.23,1953503.0
1638177633.515625,6.2,2.175287,35.21,1955248.0
1638177633.53125,6.68,2.177848,35.21,1957740.0
1638177633.546875,7.15,2.18169,35.21,1960030.0
1638177633.5625,7.68,2.18169,35.21,1961748.0
1638177633.578125,8.31,2.18169,35.21,1958309.0
1638177633.59375,9.14,2.185532,35.21,1944773.0
1638177633.609375,10.09,2.184252,35.21,1940392.0
1638177633.625,11.04,2.188094,35.21,1951002.0
1638177633.640625,11.88,2.185532,35.21,1951586.0
1638177633.65625,12.56,2.179129,35.21,1936759.0
1638177633.671875,13.14,2.18169,35.21,1934373.0
1638177633.6875,13.76,2.176567,35.21,1933108.0
1638177633.703125,14.65,2.175287,35.21,1932048.0
1638177633.71875,15.96,2.174006,35.21,1930739.0
1638177633.734375,17.91,2.168883,35.21,1929922.0
1638177633.75,20.32,2.171445,35.21,1929265.0
1638177633.765625,22.9,2.171445,35.16,1929242.0
1638177633.78125,25.38,2.172725,35.16,1930023.0
1638177633.796875,27.58,2.172725,35.16,1932759.0
1638177633.8125,29.57,2.171445,35.16,1935529.0
1638177633.828125,31.68,2.168883,35.16,1934080.0
1638177633.84375,34.32,2.166322,35.16,1936798.0
1638177633.859375,37.81,2.16248,35.16,1931399.0
1638177633.875,42.54,2.159918,35.16,1938472.0
1638177633.890625,48.15,2.16248,35.18,1940617.0
1638177633.90625,54.1,2.157357,35.18,1942478.0
1638177633.921875,59.83,2.172725,35.18,1944340.0
1638177633.9375,64.97,2.157357,35.18,1946723.0
1638177633.953125,69.58,2.156076,35.16,1948928.0
1638177633.96875,74.14,2.158638,35.16,1942396.0
1638177633.984375,79.34,2.158638,35.16,1924279.0
1638177634.0,85.71,2.159918,35.16,1923520.0
1638177634.015625,93.76,2.158638,35.15,1924963.0
1638177634.03125,103.0,2.161199,35.15,1927726.0
1638177634.046875,112.62,2.161199,35.15,1935830.0
1638177634.0625,121.73,2.170164,35.15,1925442.0
1638177634.078125,129.77,2.174006,35.15,1931004.0
1638177634.09375,136.75,2.172725,35.15,1922335.0
1638177634.109375,143.3,2.176567,35.15,1922115.0
1638177634.125,150.75,2.182971,35.15,1922064.0
1638177634.140625,157.77,2.190655,35.15,1922679.0
1638177634.15625,166.64,2.197059,35.15,1924227.0
1638177634.171875,177.95,2.214989,35.15,1948906.0
1638177634.1875,191.79,2.216269,35.15,1925553.0
1638177634.203125,206.97,2.225235,35.15,1928612.0
1638177634.21875,220.57,2.211147,35.15,1927472.0
1638177634.234375,228.25,2.19962,35.15,1930687.0
1638177634.25,225.36,2.198339,35.15,1932533.0
1638177634.265625,208.53,2.198339,35.11,1934372.0
1638177634.28125,176.87,2.194497,35.11,1936469.0
1638177634.296875,132.76,2.211147,35.11,1938520.0
1638177634.3125,80.05,2.230357,35.11,1940937.0
1638177634.328125,23.07,2.232919,35.13,1943194.0
1638177634.34375,-34.94,2.226515,35.13,1945465.0
1638177634.359375,-92.44,2.232919,35.13,1944213.0
1638177634.375,-149.16,2.227796,35.13,1936355.0
1638177634.390625,-205.23,2.227796,35.13,1923809.0
1638177634.40625,-260.37,2.236761,35.13,1929465.0
1638177634.421875,-313.74,2.240603,35.13,1919563.0
1638177634.4375,-363.87,2.249568,35.13,1916052.0
1638177634.453125,-409.83,2.25341,35.11,1914462.0
1638177634.46875,-450.91,2.25213,35.11,1915589.0
1638177634.484375,-486.5,2.254691,35.11,1922518.0
1638177634.5,-515.74,2.25213,35.11,1935635.0
1638177634.515625,-537.23,2.245726,35.09,1947432.0
1638177634.53125,-549.22,2.238042,35.09,1956813.0
1638177634.546875,-549.96,2.230357,35.09,1961873.0
1638177634.5625,-538.37,2.226515,35.09,1964621.0
1638177634.578125,-514.21,2.216269,35.09,1963490.0
1638177634.59375,-478.67,2.214989,35.09,1961325.0
1638177634.609375,-433.88,2.209866,35.09,1959088.0
1638177634.625,-382.45,2.203462,35.09,1956640.0
1638177634.640625,-327.02,2.195778,35.11,1954013.0
1638177634.65625,-269.84,2.190655,35.11,1951116.0
1638177634.671875,-212.63,2.184252,35.11,1947920.0
1638177634.6875,-156.66,2.18041,35.11,1943856.0
1638177634.703125,-102.95,2.176567,35.09,1940469.0
1638177634.71875,-52.37,2.174006,35.09,1936961.0
1638177634.734375,-5.9,2.179129,35.09,1933927.0
1638177634.75,35.58,2.176567,35.09,1926594.0
1638177634.765625,71.43,2.175287,35.07,1912078.0
1638177634.78125,101.35,2.18041,35.07,1896055.0
1638177634.796875,125.5,2.172725,35.07,1880749.0
1638177634.8125,144.38,2.175287,35.07,1867136.0
1638177634.828125,158.69,2.175287,35.09,1855480.0
1638177634.84375,169.15,2.174006,35.09,1846804.0
1638177634.859375,176.37,2.175287,35.09,1840073.0
1638177634.875,180.75,2.179129,35.09,1833490.0
1638177634.890625,182.57,2.18169,35.07,1826328.0
1638177634.90625,182.07,2.170164,35.07,1820635.0
1638177634.921875,179.51,2.165041,35.07,1817009.0
1638177634.9375,175.23,2.16248,35.07,1813782.0
1638177634.953125,169.65,2.158638,35.07,1811979.0
1638177634.96875,163.18,2.154795,35.07,1810830.0
1638177634.984375,156.15,2.154795,35.07,1810718.0
1638177635.0,148.81,2.156076,35.07,1810646.0
1638177635.015625,141.3,2.148392,35.09,1810495.0
1638177635.03125,133.69,2.150953,35.09,1810213.0
1638177635.046875,126.02,2.147111,35.09,1809255.0
1638177635.0625,118.33,2.14583,35.09,1809153.0
1638177635.078125,110.69,2.149673,35.07,1809350.0
1638177635.09375,103.16,2.150953,35.07,1809746.0
1638177635.109375,95.8,2.153515,35.07,1807315.0
1638177635.125,88.68,2.14583,35.07,1797747.0
1638177635.140625,81.83,2.140707,35.09,1785070.0
1638177635.15625,75.25,2.139427,35.09,1775335.0
1638177635.171875,68.95,2.138146,35.09,1766402.0
1638177635.1875,62.95,2.135585,35.09,1759282.0
1638177635.203125,57.25,2.135585,35.05,1754246.0
1638177635.21875,51.86,2.135585,35.05,1750163.0
1638177635.234375,46.78,2.134304,35.05,1745524.0
1638177635.25,42.03,2.136865,35.05,1740909.0
1638177635.265625,37.59,2.1279,35.05,1736499.0
1638177635.28125,33.45,2.134304,35.05,1733334.0
1638177635.296875,29.61,2.143269,35.05,1731938.0
1638177635.3125,26.07,2.133023,35.05,1731116.0
1638177635.328125,22.81,2.138146,35.05,1731509.0
1638177635.34375,19.83,2.136865,35.05,1732482.0
1638177635.359375,17.11,2.14583,35.05,1733139.0
1638177635.375,14.67,2.141988,35.05,1734631.0
1638177635.390625,12.48,2.148392,35.05,1735356.0
1638177635.40625,10.54,2.14455,35.05,1736005.0
1638177635.421875,8.83,2.147111,35.05,1737076.0
1638177635.4375,7.35,2.147111,35.05,1738475.0
1638177635.453125,6.07,2.147111,35.07,1739891.0
1638177635.46875,4.97,2.152234,35.07,1740407.0
1638177635.484375,4.05,2.147111,35.07,1733774.0
1638177635.5,3.27,2.143269,35.07,1724286.0
1638177635.515625,2.62,2.14583,35.05,1716044.0
1638177635.53125,2.09,2.138146,35.05,1710132.0
1638177635.546875,1.65,2.130462,35.05,1705387.0
1638177635.5625,1.3,2.134304,35.05,1702861.0
1638177635.578125,1.01,2.129181,35.05,1701627.0
1638177635.59375,0.79,2.122777,35.05,1700844.0
1638177635.609375,0.61,2.122777,35.05,1699088.0
1638177635.625,0.47,2.129181,35.05,1698627.0
1638177635.640625,0.37,2.122777,35.07,1698636.0
1638177635.65625,0.29,2.12662,35.07,1699709.0
1638177635.671875,0.23,2.130462,35.07,1701548.0
1638177635.6875,0.18,2.133023,35.07,1703577.0
1638177635.703125,0.15,2.131742,35.07,1705736.0
1638177635.71875,0.14,2.139427,35.07,1707632.0
1638177635.734375,0.13,2.134304,35.07,1709819.0
1638177635.75,0.14,2.133023,35.07,1712355.0
1638177635.765625,0.15,2.134304,35.03,1715114.0
1638177635.78125,0.17,2.138146,35.03,1717702.0
1638177635.796875,0.19,2.138146,35.03,1720222.0
1638177635.8125,0.22,2.138146,35.03,1723071.0
1638177635.828125,0.26,2.139427,35.03,1725787.0
1638177635.84375,0.29,2.138146,35.03,1724621.0
1638177635.859375,0.34,2.131742,35.03,1719123.0
1638177635.875,0.38,2.130462,35.03,1714604.0
1638177635.890625,0.42,2.130462,35.05,1713999.0
1638177635.90625,0.47,2.129181,35.05,1716151.0
1638177635.921875,0.52,2.129181,35.05,1718725.0
1638177635.9375,0.56,2.12662,35.05,1718378.0
1638177635.953125,0.62,2.125339,35.05,1720098.0
1638177635.96875,0.67,2.118935,35.05,1723542.0
1638177635.984375,0.73,2.120216,35.05,1726030.0
1638177636.0,0.79,2.120216,35.05,1732183.0
1638177636.015625,0.86,2.116374,35.05,1738904.0
1638177636.03125,0.93,2.115093,35.05,1747296.0
1638177636.046875,1.01,2.112532,35.05,1754875.0
1638177636.0625,1.1,2.116374,35.05,1761952.0
1638177636.078125,1.2,2.116374,35.05,1768878.0
1638177636.09375,1.31,2.116374,35.05,1774947.0
1638177636.109375,1.44,2.10997,35.05,1780486.0
1638177636.125,1.58,2.113812,35.05,1784241.0
1638177636.140625,1.74,2.112532,35.03,1784828.0
1638177636.15625,1.91,2.111251,35.03,1788818.0
1638177636.171875,2.11,2.111251,35.03,1792840.0
1638177636.1875,2.33,2.112532,35.03,1796496.0
1638177636.203125,2.57,2.112532,35.0,1797394.0
1638177636.21875,2.83,2.113812,35.0,1793633.0
1638177636.234375,3.13,2.118935,35.0,1790138.0
1638177636.25,3.45,2.113812,35.0,1786782.0
1638177636.265625,3.8,2.118935,35.03,1784347.0
1638177636.28125,4.18,2.111251,35.03,1781314.0
1638177636.296875,4.6,2.117655,35.03,1780809.0
1638177636.3125,5.07,2.113812,35.03,1780484.0
1638177636.328125,5.58,2.112532,35.03,1781080.0
1638177636.34375,6.13,2.115093,35.03,1782562.0
1638177636.359375,6.69,2.113812,35.03,1785026.0
1638177636.375,7.27,2.10997,35.03,1786614.0
1638177636.390625,7.85,2.10869,35.05,1788658.0
1638177636.40625,8.44,2.102286,35.05,1791182.0
1638177636.421875,9.06,2.103567,35.05,1793859.0
1638177636.4375,9.74,2.106128,35.05,1796935.0
1638177636.453125,10.5,2.115093,35.03,1798755.0
1638177636.46875,11.33,2.122777,35.03,1801657.0
1638177636.484375,12.24,2.135585,35.03,1804963.0
1638177636.5,13.21,2.152234,35.03,1807243.0
1638177636.515625,14.21,2.147111,35.03,1809805.0
1638177636.53125,15.22,2.153515,35.03,1812618.0
1638177636.546875,16.27,2.154795,35.03,1815290.0
1638177636.5625,17.35,2.161199,35.03,1816697.0
1638177636.578125,18.51,2.156076,35.03,1814045.0
1638177636.59375,19.71,2.150953,35.03,1810572.0
1638177636.609375,20.93,2.152234,35.03,1808799.0
1638177636.625,22.04,2.153515,35.03,1808171.0
1638177636.640625,22.92,2.159918,35.03,1808272.0
1638177636.65625,23.39,2.16248,35.03,1809237.0
1638177636.671875,23.28,2.172725,35.03,1809963.0
1638177636.6875,22.54,2.184252,35.03,1810801.0
1638177636.703125,21.11,2.189374,35.0,1813006.0
1638177636.71875,19.01,2.190655,35.0,1813543.0
1638177636.734375,16.32,2.186813,35.0,1813500.0
1638177636.75,13.07,2.184252,35.0,1814645.0
1638177636.765625,9.26,2.18041,35.03,1815350.0
1638177636.78125,4.93,2.172725,35.03,1816126.0
1638177636.796875,0.14,2.171445,35.03,1817471.0
1638177636.8125,-4.97,2.168883,35.03,1819214.0
1638177636.828125,-10.14,2.167602,35.0,1821124.0
1638177636.84375,-15.01,2.166322,35.0,1822804.0
1638177636.859375,-19.24,2.159918,35.0,1825026.0
1638177636.875,-22.53,2.16376,35.0,1826705.0
1638177636.890625,-24.8,2.158638,35.0,1828509.0
1638177636.90625,-26.21,2.159918,35.0,1830504.0
1638177636.921875,-27.06,2.156076,35.0,1828846.0
1638177636.9375,-27.7,2.150953,35.0,1826972.0
1638177636.953125,-28.39,2.14583,35.03,1826162.0
1638177636.96875,-29.15,2.139427,35.03,1826336.0
1638177636.984375,-29.8,2.143269,35.03,1827363.0
1638177637.0,-30.04,2.134304,35.03,1829404.0
1638177637.015625,-29.66,2.12662,35.03,1830719.0
1638177637.03125,-28.68,2.125339,35.03,1832188.0
1638177637.046875,-27.37,2.124058,35.03,1832223.0
1638177637.0625,-26.24,2.130462,35.03,1832617.0
1638177637.078125,-25.79,2.138146,34.99,1834105.0
1638177637.09375,-26.28,2.141988,34.99,1835657.0
1638177637.109375,-27.59,2.150953,34.99,1838946.0
1638177637.125,-29.27,2.154795,34.99,1842838.0
1638177637.140625,-30.75,2.157357,35.0,1848197.0
1638177637.15625,-31.57,2.149673,35.0,1855004.0
1638177637.171875,-31.59,2.149673,35.0,1862601.0
1638177637.1875,-31.05,2.147111,35.0,1870493.0
1638177637.203125,-30.38,2.143269,34.99,1878136.0
1638177637.21875,-30.13,2.136865,34.99,1885802.0
1638177637.234375,-30.77,2.136865,34.99,1891443.0
1638177637.25,-32.66,2.135585,34.99,1891644.0
1638177637.265625,-36.01,2.130462,34.99,1891655.0
1638177637.28125,-40.5,2.12662,34.99,1892909.0
1638177637.296875,-45.09,2.125339,34.99,1894749.0
1638177637.3125,-47.94,2.1279,34.99,1896873.0
1638177637.328125,-46.86,2.12662,34.99,1899580.0
1638177637.34375,-40.18,2.122777,34.99,1903429.0
1638177637.359375,-27.63,2.124058,34.99,1906277.0
1638177637.375,-10.73,2.120216,34.99,1908548.0
1638177637.390625,7.62,2.118935,34.97,1910946.0
1638177637.40625,24.17,2.113812,34.97,1913940.0
1638177637.421875,36.57,2.111251,34.97,1917098.0
1638177637.4375,44.03,2.106128,34.97,1920834.0
1638177637.453125,47.27,2.10869,34.99,1923799.0
1638177637.46875,47.76,2.10869,34.99,1927439.0
1638177637.484375,46.87,2.104847,34.99,1931412.0
1638177637.5,45.24,2.106128,34.99,1935015.0
1638177637.515625,42.98,2.10869,35.0,1938704.0
1638177637.53125,40.0,2.103567,35.0,1942708.0
1638177637.546875,36.46,2.106128,35.0,1946238.0
1638177637.5625,32.81,2.106128,35.0,1949640.0
1638177637.578125,29.64,2.107409,34.99,1948605.0
1638177637.59375,27.29,2.107409,34.99,1945480.0
1638177637.609375,25.72,2.106128,34.99,1942772.0
1638177637.625,24.58,2.10997,34.99,1941776.0
1638177637.640625,23.33,2.112532,34.99,1941645.0
1638177637.65625,21.55,2.112532,34.99,1941796.0
1638177637.671875,19.11,2.10869,34.99,1942602.0
1638177637.6875,16.18,2.106128,34.99,1943305.0
1638177637.703125,13.09,2.107409,34.97,1943499.0
1638177637.71875,10.14,2.10869,34.97,1944670.0
1638177637.734375,7.46,2.103567,34.97,1946318.0
1638177637.75,4.87,2.101005,34.97,1948348.0
1638177637.765625,2.46,2.098444,34.99,1950963.0
1638177637.78125,-0.02,2.095882,34.99,1953386.0
1638177637.796875,-2.86,2.094602,34.99,1958683.0
1638177637.8125,-6.23,2.09076,34.99,1964248.0
1638177637.828125,-10.21,2.089479,34.99,1967126.0
1638177637.84375,-14.68,2.088198,34.99,1969305.0
1638177637.859375,-19.44,2.09204,34.99,1971236.0
1638177637.875,-24.25,2.089479,34.99,1960941.0
1638177637.890625,-28.83,2.088198,34.95,1973069.0
1638177637.90625,-32.98,2.083075,34.95,1956275.0
1638177637.921875,-36.73,2.088198,34.95,1970969.0
1638177637.9375,-40.2,2.081795,34.95,1967102.0
1638177637.953125,-43.69,2.086917,34.97,1964686.0
1638177637.96875,-47.59,2.089479,34.97,1963369.0
1638177637.984375,-52.35,2.084356,34.97,1962477.0
1638177638.0,-58.41,2.083075,34.97,1962417.0
1638177638.015625,-65.99,2.083075,34.99,1963437.0
1638177638.03125,-74.85,2.084356,34.99,1965179.0
1638177638.046875,-84.06,2.076672,34.99,1965955.0
1638177638.0625,-91.91,2.076672,34.99,1966787.0
1638177638.078125,-96.12,2.075391,34.97,1967626.0
1638177638.09375,-94.42,2.07411,34.97,1968816.0
1638177638.109375,-85.3,2.075391,34.97,1969913.0
1638177638.125,-68.71,2.071549,34.97,1970732.0
1638177638.140625,-46.21,2.071549,34.95,1972193.0
1638177638.15625,-20.61,2.079233,34.95,1973383.0
1638177638.171875,4.91,2.075391,34.95,1975607.0
1638177638.1875,27.64,2.075391,34.95,1977742.0
1638177638.203125,45.96,2.077952,34.97,1979637.0
1638177638.21875,59.48,2.079233,34.97,1982106.0
1638177638.234375,68.72,2.077952,34.97,1979042.0
1638177638.25,74.59,2.076672,34.97,1982658.0
1638177638.265625,77.9,2.079233,34.95,1975974.0
1638177638.28125,79.19,2.07411,34.95,1975024.0
1638177638.296875,78.77,2.079233,34.95,1972966.0
1638177638.3125,76.95,2.076672,34.95,1971531.0
1638177638.328125,74.2,2.070268,34.99,1973544.0
1638177638.34375,71.13,2.070268,34.99,1976256.0
1638177638.359375,68.38,2.072829,34.99,1971707.0
1638177638.375,66.26,2.07411,34.99,1971710.0
1638177638.390625,64.74,2.072829,34.99,1980679.0
1638177638.40625,63.44,2.07411,34.99,1977750.0
1638177638.421875,61.94,2.067707,34.99,1985159.0
1638177638.4375,60.09,2.070268,34.99,1989218.0
1638177638.453125,58.13,2.066426,34.97,1989249.0
1638177638.46875,56.55,2.063864,34.97,1991611.0
1638177638.484375,55.74,2.065145,34.97,1975289.0
1638177638.5,55.66,2.067707,34.97,1994588.0
1638177638.515625,55.77,2.071549,34.95,1997448.0
1638177638.53125,55.25,2.077952,34.95,2001339.0
1638177638.546875,53.34,2.086917,34.95,2005518.0
1638177638.5625,49.73,2.089479,34.95,1999374.0
1638177638.578125,44.63,2.093321,34.95,2002723.0
1638177638.59375,38.65,2.095882,34.95,2001090.0
1638177638.609375,32.47,2.094602,34.95,1998046.0
1638177638.625,26.57,2.093321,34.95,1998339.0
1638177638.640625,21.14,2.088198,34.95,2008193.0
1638177638.65625,16.07,2.081795,34.95,2008287.0
1638177638.671875,11.15,2.079233,34.95,1999570.0
1638177638.6875,6.2,2.071549,34.95,2004238.0
1638177638.703125,1.2,2.071549,34.95,2006349.0
1638177638.71875,-3.79,2.067707,34.95,2007785.0
1638177638.734375,-8.62,2.068987,34.95,2004945.0
1638177638.75,-13.13,2.070268,34.95,2003023.0
1638177638.765625,-17.24,2.068987,34.95,2009557.0
1638177638.78125,-20.95,2.068987,34.95,2012901.0
1638177638.796875,-24.4,2.067707,34.95,2011795.0
1638177638.8125,-27.86,2.066426,34.95,2015991.0
1638177638.828125,-31.66,2.063864,34.93,2014320.0
1638177638.84375,-36.07,2.060022,34.93,2018182.0
1638177638.859375,-41.18,2.057461,34.93,2020043.0
1638177638.875,-46.85,2.058742,34.93,2022491.0
1638177638.890625,-52.66,2.067707,34.93,2024963.0
1638177638.90625,-58.09,2.070268,34.93,2026504.0
1638177638.921875,-62.73,2.088198,34.93,2023421.0
1638177638.9375,-66.53,2.099725,34.93,2017544.0
1638177638.953125,-69.86,2.10997,34.93,2014047.0
1638177638.96875,-73.51,2.120216,34.93,2012496.0
1638177638.984375,-78.47,2.124058,34.93,2011532.0
1638177639.0,-85.51,2.124058,34.93,2011348.0
1638177639.015625,-94.76,2.122777,34.95,2012218.0
1638177639.03125,-105.38,2.118935,34.95,2013012.0
1638177639.046875,-115.5,2.10997,34.95,2013330.0
1638177639.0625,-122.57,2.101005,34.95,2013736.0
1638177639.078125,-124.01,2.097163,34.95,2014751.0
1638177639.09375,-117.98,2.086917,34.95,2015502.0
1638177639.109375,-104.02,2.09076,34.95,2017071.0
1638177639.125,-83.23,2.089479,34.95,2018578.0
1638177639.140625,-57.97,2.089479,34.91,2020120.0
1638177639.15625,-31.2,2.086917,34.91,2021828.0
1638177639.171875,-5.73,2.086917,34.91,2024151.0
1638177639.1875,16.39,2.081795,34.91,2025813.0
1638177639.203125,34.12,2.079233,34.93,2027620.0
1638177639.21875,47.36,2.079233,34.93,2029399.0
1638177639.234375,56.63,2.07411,34.93,2031230.0
1638177639.25,62.73,2.068987,34.93,2032175.0
1638177639.265625,66.46,2.071549,34.93,2027274.0
1638177639.28125,68.43,2.063864,34.93,2021241.0
1638177639.296875,69.13,2.057461,34.93,2018278.0
1638177639.3125,68.93,2.054899,34.93,2016397.0
1638177639.328125,68.14,2.052338,34.93,2015296.0
1638177639.34375,67.01,2.051057,34.93,2015671.0
1638177639.359375,65.71,2.047215,34.93,2016147.0
1638177639.375,64.31,2.045935,34.93,2016587.0
1638177639.390625,62.81,2.043373,34.93,2016978.0
1638177639.40625,61.23,2.052338,34.93,2017215.0
1638177639.421875,59.68,2.052338,34.93,2017590.0
1638177639.4375,58.35,2.054899,34.93,2018538.0
1638177639.453125,57.45,2.052338,34.93,2020227.0
1638177639.46875,57.09,2.049777,34.93,2021557.0
1638177639.484375,57.2,2.047215,34.93,2023690.0
1638177639.5,57.41,2.048496,34.93,2025364.0
1638177639.515625,57.25,2.042092,34.91,2027210.0
1638177639.53125,56.18,2.03825,34.91,2028776.0
1638177639.546875,53.82,2.045935,34.91,2031028.0
1638177639.5625,50.05,2.047215,34.91,2032653.0
1638177639.578125,45.11,2.049777,34.93,2034344.0
1638177639.59375,39.51,2.053619,34.93,2025329.0
1638177639.609375,33.86,2.057461,34.93,2021088.0
1638177639.625,28.63,2.068987,34.93,2019278.0
1638177639.640625,23.94,2.071549,34.91,2018796.0
1638177639.65625,19.55,2.072829,34.91,2019010.0
1638177639.671875,15.0,2.071549,34.91,2020253.0
1638177639.6875,9.85,2.071549,34.91,2020704.0
1638177639.703125,4.03,2.071549,34.89,2020543.0
1638177639.71875,-2.13,2.063864,34.89,2019865.0
1638177639.734375,-8.03,2.057461,34.89,2020202.0
1638177639.75,-13.08,2.053619,34.89,2021125.0
1638177639.765625,-17.07,2.053619,34.93,2022514.0
1638177639.78125,-20.24,2.045935,34.93,2024112.0
1638177639.796875,-23.18,2.042092,34.93,2025166.0
1638177639.8125,-26.5,2.048496,34.93,2026853.0
1638177639.828125,-30.55,2.043373,34.91,2028697.0
1638177639.84375,-35.29,2.03825,34.91,2029839.0
1638177639.859375,-40.41,2.039531,34.91,2031540.0
1638177639.875,-45.54,2.03825,34.91,2033445.0
1638177639.890625,-50.54,2.035689,34.91,2031586.0
1638177639.90625,-55.48,2.033128,34.91,2024534.0
1638177639.921875,-60.6,2.030566,34.91,2018610.0
1638177639.9375,-66.13,2.03697,34.91,2015204.0
1638177639.953125,-72.33,2.029285,34.93,2013012.0
1638177639.96875,-79.43,2.024163,34.93,2012879.0
1638177639.984375,-87.62,2.031847,34.93,2013052.0
1638177640.0,-96.77,2.025443,34.93,2013369.0
1638177640.015625,-106.16,2.025443,34.89,2012998.0
1638177640.03125,-114.24,2.028005,34.89,2012082.0
1638177640.046875,-118.83,2.025443,34.89,2011741.0
1638177640.0625,-117.7,2.031847,34.89,2011767.0
1638177640.078125,-109.4,2.030566,34.95,2012652.0
1638177640.09375,-93.87,2.030566,34.95,2013682.0
1638177640.109375,-72.63,2.031847,34.95,2014542.0
1638177640.125,-48.23,2.024163,34.95,2015561.0
1638177640.140625,-23.59,2.022882,34.93,2016479.0
1638177640.15625,-1.1,2.022882,34.93,2017358.0
1638177640.171875,17.79,2.025443,34.93,2018156.0
1638177640.1875,32.6,2.02032,34.93,2019655.0
1638177640.203125,43.47,2.025443,34.91,2020640.0
1638177640.21875,50.84,2.01904,34.91,2019621.0
1638177640.234375,55.17,2.015198,34.91,2010978.0
1638177640.25,56.88,2.01904,34.91,2003313.0
1638177640.265625,56.47,2.017759,34.93,1997291.0
1638177640.28125,54.55,2.010075,34.93,1993897.0
1638177640.296875,51.87,2.012636,34.93,1991234.0
1638177640.3125,49.21,2.016478,34.93,1990015.0
1638177640.328125,47.17,2.013917,34.93,1989402.0
1638177640.34375,46.07,2.006233,34.93,1988313.0
1638177640.359375,45.85,2.00239,34.93,1987033.0
1638177640.375,46.24,2.008794,34.93,1986123.0
1638177640.390625,46.91,1.998548,34.91,1985692.0
1638177640.40625,47.67,2.00239,34.91,1985607.0
1638177640.421875,48.44,2.00111,34.91,1986390.0
1638177640.4375,49.19,2.006233,34.91,1987095.0
1638177640.453125,49.74,2.008794,34.93,1988135.0
1638177640.46875,49.78,2.007513,34.93,1989094.0
1638177640.484375,48.88,2.007513,34.93,1990598.0
1638177640.5,46.7,2.006233,34.93,1991580.0
1638177640.515625,43.2,2.00239,34.93,1992968.0
1638177640.53125,38.63,1.999829,34.93,1994302.0
1638177640.546875,33.41,1.997267,34.93,1993656.0
1638177640.5625,27.96,1.998548,34.93,1985706.0
1638177640.578125,22.55,1.999829,34.95,1978045.0
1638177640.59375,17.27,2.00239,34.95,1971936.0
1638177640.609375,12.1,2.003671,34.95,1968528.0
1638177640.625,7.03,1.998548,34.95,1965778.0
1638177640.640625,2.12,1.998548,34.95,1964403.0
1638177640.65625,-2.45,2.00111,34.95,1964257.0
1638177640.671875,-6.53,2.006233,34.95,1962681.0
1638177640.6875,-10.08,2.010075,34.95,1961666.0
1638177640.703125,-13.23,2.013917,34.95,1960959.0
1638177640.71875,-16.27,2.015198,34.95,1960208.0
1638177640.734375,-19.56,2.01904,34.95,1960355.0
1638177640.75,-23.35,2.017759,34.95,1960959.0
1638177640.765625,-27.72,2.012636,34.95,1961438.0
1638177640.78125,-32.55,2.008794,34.95,1962387.0
1638177640.796875,-37.52,2.00239,34.95,1963321.0
1638177640.8125,-42.28,2.00111,34.95,1964854.0
1638177640.828125,-46.62,2.00239,34.95,1965671.0
1638177640.84375,-50.5,1.998548,34.95,1967041.0
1638177640.859375,-54.2,2.003671,34.95,1968584.0
1638177640.875,-58.2,1.997267,34.95,1968542.0
1638177640.890625,-63.13,2.00239,34.95,1961313.0
1638177640.90625,-69.53,1.997267,34.95,1953122.0
1638177640.921875,-77.59,1.995987,34.95,1947005.0
1638177640.9375,-86.86,2.00111,34.95,1943559.0
1638177640.953125,-96.12,1.989583,34.95,1940892.0
1638177640.96875,-103.41,1.990864,34.95,1939933.0
1638177640.984375,-106.44,1.990864,34.95,1938782.0
1638177641.0,-103.27,1.990864,34.95,1937632.0
1638177641.015625,-92.91,1.993425,34.97,1935848.0
1638177641.03125,-75.75,1.994706,34.97,1934473.0
1638177641.046875,-53.48,2.00239,34.97,1934118.0
1638177641.0625,-28.64,2.012636,34.97,1934260.0
1638177641.078125,-3.84,2.015198,34.97,1934537.0
1638177641.09375,18.81,2.017759,34.97,1935530.0
1638177641.109375,38.03,2.024163,34.97,1936583.0
1638177641.125,53.35,2.02032,34.97,1937523.0
1638177641.140625,64.74,2.01904,34.97,1938580.0
1638177641.15625,72.42,2.012636,34.97,1939557.0
1638177641.171875,76.64,2.013917,34.97,1941018.0
1638177641.1875,77.73,2.006233,34.97,1941805.0
1638177641.203125,76.27,1.998548,34.97,1937233.0
1638177641.21875,73.12,1.997267,34.97,1929025.0
1638177641.234375,69.32,1.999829,34.97,1921889.0
1638177641.25,65.84,1.992145,34.97,1916832.0
1638177641.265625,63.37,1.992145,34.97,1913769.0
1638177641.28125,62.1,1.994706,34.97,1912149.0
1638177641.296875,61.86,1.994706,34.97,1911308.0
1638177641.3125,62.28,1.992145,34.97,1910282.0
1638177641.328125,63.05,1.992145,34.99,1908775.0
1638177641.34375,64.04,1.992145,34.99,1907532.0
1638177641.359375,65.28,1.988302,34.99,1907160.0
1638177641.375,66.77,1.992145,34.99,1907673.0
1638177641.390625,68.31,1.985741,35.0,1908578.0
1638177641.40625,69.42,1.98318,35.0,1909756.0
1638177641.421875,69.51,1.980618,35.0,1911479.0
1638177641.4375,68.02,1.98446,35.0,1912921.0
1638177641.453125,64.72,1.976776,35.0,1914275.0
1638177641.46875,59.81,1.978057,35.0,1915760.0
1638177641.484375,53.81,1.976776,35.0,1918110.0
1638177641.5,47.37,1.980618,35.0,1919743.0
1638177641.515625,40.97,1.980618,35.03,1922053.0
1638177641.53125,34.75,1.979337,35.03,1917822.0
1638177641.546875,28.6,1.978057,35.03,1909164.0
1638177641.5625,22.29,1.972934,35.03,1901726.0
1638177641.578125,15.71,1.974215,34.99,1896072.0
1638177641.59375,8.98,1.974215,34.99,1891689.0
1638177641.609375,2.46,1.975495,34.99,1888733.0
1638177641.625,-3.49,1.975495,34.99,1887425.0
1638177641.640625,-8.62,1.970372,34.99,1886622.0
1638177641.65625,-13.0,1.969092,34.99,1885598.0
1638177641.671875,-16.91,1.972934,34.99,1884308.0
1638177641.6875,-20.78,1.970372,34.99,1884025.0
1638177641.703125,-24.96,1.96525,35.03,1885302.0
1638177641.71875,-29.62,1.967811,35.03,1884669.0
1638177641.734375,-34.75,1.969092,35.03,1886977.0
1638177641.75,-40.2,1.963969,35.03,1888790.0
1638177641.765625,-45.76,1.967811,35.0,1890587.0
1638177641.78125,-51.31,1.96525,35.0,1892665.0
1638177641.796875,-56.81,1.969092,35.0,1894820.0
1638177641.8125,-62.4,1.96525,35.0,1897060.0
1638177641.828125,-68.43,1.963969,35.0,1899604.0
1638177641.84375,-75.43,1.957565,35.0,1902102.0
1638177641.859375,-83.92,1.962688,35.0,1903681.0
1638177641.875,-94.17,1.953723,35.0,1897875.0
1638177641.890625,-105.75,1.951162,35.03,1889841.0
1638177641.90625,-117.31,1.949881,35.03,1883175.0
1638177641.921875,-126.67,1.952442,35.03,1878804.0
1638177641.9375,-131.32,1.94732,35.03,1875255.0
1638177641.953125,-129.12,1.94732,35.03,1873340.0
1638177641.96875,-119.08,1.944758,35.03,1873067.0
1638177641.984375,-101.7,1.949881,35.03,1872178.0
1638177642.0,-78.83,1.953723,35.03,1871912.0
1638177642.015625,-53.1,1.949881,35.03,1871682.0
1638177642.03125,-27.12,1.951162,35.03,1871961.0
1638177642.046875,-2.98,1.951162,35.03,1873574.0
1638177642.0625,18.06,1.9486,35.03,1875327.0
1638177642.078125,35.49,1.9486,35.03,1877282.0
1638177642.09375,49.32,1.9486,35.03,1879816.0
1638177642.109375,59.82,1.952442,35.03,1882458.0
1638177642.125,67.33,1.951162,35.03,1884540.0
1638177642.140625,72.25,1.956285,35.05,1890258.0
1638177642.15625,74.98,1.955004,35.05,1892869.0
1638177642.171875,75.98,1.958846,35.05,1895785.0
1638177642.1875,75.75,1.956285,35.05,1887210.0
1638177642.203125,74.78,1.957565,35.05,1894195.0
1638177642.21875,73.54,1.958846,35.05,1887432.0
1638177642.234375,72.32,1.957565,35.05,1880933.0
1638177642.25,71.26,1.957565,35.05,1876769.0
1638177642.265625,70.32,1.958846,35.05,1874067.0
1638177642.28125,69.5,1.958846,35.05,1872896.0
1638177642.296875,68.87,1.961407,35.05,1872942.0
1638177642.3125,68.58,1.962688,35.05,1873147.0
1638177642.328125,68.8,1.961407,35.03,1872826.0
1638177642.34375,69.47,1.958846,35.03,1872664.0
1638177642.359375,70.24,1.957565,35.03,1873297.0
1638177642.375,70.45,1.955004,35.03,1874914.0
1638177642.390625,69.39,1.9486,35.05,1876903.0
1638177642.40625,66.64,1.94732,35.05,1879304.0
1638177642.421875,62.15,1.946039,35.05,1881460.0
1638177642.4375,56.39,1.944758,35.05,1884010.0
1638177642.453125,50.09,1.944758,35.05,1886400.0
1638177642.46875,43.93,1.946039,35.05,1888755.0
1638177642.484375,38.36,1.94732,35.05,1891361.0
1638177642.5,33.5,1.942197,35.05,1894300.0
1638177642.515625,29.11,1.942197,35.05,1897428.0
1638177642.53125,24.84,1.939635,35.05,1900086.0
1638177642.546875,20.31,1.939635,35.05,1897713.0
1638177642.5625,15.3,1.944758,35.05,1890593.0
1638177642.578125,9.84,1.934512,35.05,1884370.0
1638177642.59375,4.19,1.933232,35.05,1880163.0
1638177642.609375,-1.27,1.934512,35.05,1877366.0
1638177642.625,-6.17,1.93067,35.05,1875615.0
1638177642.640625,-10.41,1.92939,35.07,1875006.0
1638177642.65625,-14.23,1.93067,35.07,1875595.0
1638177642.671875,-18.13,1.928109,35.07,1875691.0
1638177642.6875,-22.66,1.935793,35.07,1875573.0
1638177642.703125,-28.15,1.935793,35.07,1875931.0
1638177642.71875,-34.53,1.934512,35.07,1877376.0
1638177642.734375,-41.38,1.937074,35.07,1879097.0
1638177642.75,-48.11,1.933232,35.07,1881214.0
1638177642.765625,-54.24,1.934512,35.07,1883906.0
1638177642.78125,-59.61,1.933232,35.07,1886309.0
1638177642.796875,-64.44,1.933232,35.07,1888772.0
1638177642.8125,-69.26,1.93067,35.07,1891496.0
1638177642.828125,-74.8,1.926828,35.07,1894391.0
1638177642.84375,-81.77,1.925547,35.07,1897357.0
1638177642.859375,-90.62,1.92939,35.07,1900590.0
1638177642.875,-101.23,1.922986,35.07,1903940.0
1638177642.890625,-112.62,1.924267,35.07,1905235.0
1638177642.90625,-122.88,1.92939,35.07,1901515.0
1638177642.921875,-129.51,1.942197,35.07,1895814.0
1638177642.9375,-130.06,1.958846,35.07,1891862.0
1638177642.953125,-122.93,1.979337,35.07,1889608.0
1638177642.96875,-107.95,1.997267,35.07,1889133.0
1638177642.984375,-86.49,2.01904,35.07,1890275.0
1638177643.0,-61.04,2.024163,35.07,1891724.0
1638177643.015625,-34.43,2.024163,35.07,1892783.0
1638177643.03125,-9.18,2.017759,35.07,1893104.0
1638177643.046875,13.02,2.015198,35.07,1893369.0
1638177643.0625,31.37,2.006233,35.07,1894418.0
1638177643.078125,45.77,2.004952,35.07,1896220.0
1638177643.09375,56.57,1.990864,35.07,1897942.0
1638177643.109375,64.28,1.985741,35.07,1899937.0
1638177643.125,69.52,1.98446,35.07,1902360.0
1638177643.140625,72.81,1.980618,35.07,1904860.0
1638177643.15625,74.6,1.978057,35.07,1907170.0
1638177643.171875,75.25,1.974215,35.07,1909479.0
1638177643.1875,75.0,1.969092,35.07,1911953.0
1638177643.203125,74.13,1.96653,35.09,1914465.0
1638177643.21875,72.87,1.96653,35.09,1917731.0
1638177643.234375,71.44,1.961407,35.09,1920125.0
1638177643.25,70.04,1.957565,35.09,1917493.0
1638177643.265625,68.77,1.958846,35.09,1911252.0
1638177643.28125,67.74,1.951162,35.09,1905922.0
1638177643.296875,67.08,1.952442,35.09,1903140.0
1638177643.3125,66.89,1.951162,35.09,1900919.0
1638177643.328125,67.2,1.9486,35.11,1900228.0
1638177643.34375,67.84,1.946039,35.11,1900402.0
1638177643.359375,68.4,1.946039,35.11,1900762.0
1638177643.375,68.34,1.942197,35.11,1900789.0
1638177643.390625,67.1,1.939635,35.09,1900773.0
1638177643.40625,64.39,1.935793,35.09,1901774.0
1638177643.421875,60.21,1.939635,35.09,1902959.0
1638177643.4375,54.95,1.935793,35.09,1905097.0
1638177643.453125,49.15,1.934512,35.09,1907341.0
1638177643.46875,43.41,1.92939,35.09,1909491.0
1638177643.484375,38.15,1.928109,35.09,1911518.0
1638177643.5,33.49,1.92939,35.09,1913823.0
1638177643.515625,29.25,1.92939,35.09,1916265.0
1638177643.53125,25.05,1.925547,35.09,1918458.0
1638177643.546875,20.5,1.921705,35.09,1921113.0
1638177643.5625,15.33,1.920425,35.09,1924308.0
1638177643.578125,9.65,1.919144,35.07,1927173.0
1638177643.59375,3.81,1.919144,35.07,1925309.0
1638177643.609375,-1.68,1.922986,35.07,1919136.0
1638177643.625,-6.45,1.921705,35.07,1913543.0
1638177643.640625,-10.43,1.921705,35.09,1910322.0
1638177643.65625,-13.99,1.915302,35.09,1907976.0
1638177643.671875,-17.67,1.922986,35.09,1906167.0
1638177643.6875,-21.99,1.920425,35.09,1905991.0
1638177643.703125,-27.18,1.920425,35.09,1905972.0
1638177643.71875,-33.05,1.920425,35.09,1905406.0
1638177643.734375,-39.2,1.916582,35.09,1905005.0
1638177643.75,-45.17,1.917863,35.09,1905261.0
1638177643.765625,-50.7,1.917863,35.13,1905948.0
1638177643.78125,-55.77,1.914021,35.13,1907647.0
1638177643.796875,-60.62,1.915302,35.13,1909479.0
1638177643.8125,-65.57,1.91274,35.13,1910940.0
1638177643.828125,-71.0,1.91146,35.11,1913043.0
1638177643.84375,-77.29,1.907617,35.11,1915172.0
1638177643.859375,-84.75,1.906337,35.11,1916919.0
1638177643.875,-93.4,1.905056,35.11,1919035.0
1638177643.890625,-102.69,1.908898,35.13,1921152.0
1638177643.90625,-111.32,1.915302,35.13,1924079.0
1638177643.921875,-117.29,1.920425,35.13,1926454.0
1638177643.9375,-118.4,1.916582,35.13,1926561.0
1638177643.953125,-112.99,1.915302,35.11,1920656.0
1638177643.96875,-100.54,1.919144,35.11,1913765.0
1638177643.984375,-81.92,1.916582,35.11,1908830.0
1638177644.0,-59.18,1.91274,35.11,1906353.0
1638177644.015625,-34.87,1.910179,35.13,1904205.0
1638177644.03125,-11.39,1.910179,35.13,1903634.0
1638177644.046875,9.55,1.908898,35.13,1903603.0
1638177644.0625,26.99,1.915302,35.13,1903658.0
1638177644.078125,40.6,1.91274,35.13,1903237.0
1638177644.09375,50.49,1.908898,35.13,1902718.0
1638177644.109375,56.96,1.91146,35.13,1903452.0
1638177644.125,60.47,1.907617,35.13,1904671.0
1638177644.140625,61.61,1.907617,35.15,1906111.0
1638177644.15625,61.05,1.907617,35.15,1908219.0
1638177644.171875,59.45,1.908898,35.15,1910239.0
1638177644.1875,57.35,1.905056,35.15,1912562.0
1638177644.203125,55.21,1.903775,35.15,1914687.0
1638177644.21875,53.33,1.899933,35.15,1916766.0
1638177644.234375,51.88,1.899933,35.15,1919493.0
1638177644.25,50.98,1.897372,35.15,1921723.0
1638177644.265625,50.66,1.898652,35.15,1924743.0
1638177644.28125,50.89,1.89481,35.15,1924514.0
1638177644.296875,51.6,1.897372,35.15,1918254.0
1638177644.3125,52.65,1.899933,35.15,1911454.0
1638177644.328125,53.83,1.899933,35.16,1906586.0
1638177644.34375,54.86,1.902495,35.16,1903620.0
1638177644.359375,55.43,1.903775,35.16,1901654.0
1638177644.375,55.21,1.898652,35.16,1902500.0
1638177644.390625,53.94,1.898652,35.16,1903120.0
1638177644.40625,51.52,1.897372,35.16,1902446.0
1638177644.421875,47.97,1.898652,35.16,1902038.0
1638177644.4375,43.46,1.892249,35.16,1902851.0
1638177644.453125,38.27,1.889687,35.16,1905549.0
1638177644.46875,32.7,1.885845,35.16,1909235.0
1638177644.484375,27.09,1.892249,35.16,1912214.0
1638177644.5,21.67,1.889687,35.16,1914322.0
1638177644.515625,16.58,1.888407,35.18,1916418.0
1638177644.53125,11.8,1.889687,35.18,1918564.0
1638177644.546875,7.18,1.89481,35.18,1920746.0
1638177644.5625,2.57,1.896091,35.18,1922932.0
1638177644.578125,-2.14,1.896091,35.16,1925367.0
1638177644.59375,-6.88,1.896091,35.16,1927894.0
1638177644.609375,-11.5,1.890968,35.16,1930330.0
1638177644.625,-15.86,1.890968,35.16,1929276.0
1638177644.640625,-19.95,1.888407,35.18,1922621.0
1638177644.65625,-23.97,1.888407,35.18,1916466.0
1638177644.671875,-28.22,1.883284,35.18,1912632.0
1638177644.6875,-32.9,1.880722,35.18,1910715.0
1638177644.703125,-38.0,1.878161,35.21,1909583.0
1638177644.71875,-43.27,1.880722,35.21,1909764.0
1638177644.734375,-48.4,1.880722,35.21,1910031.0
1638177644.75,-53.17,1.880722,35.21,1909338.0
1638177644.765625,-57.71,1.882003,35.21,1909263.0
1638177644.78125,-62.47,1.880722,35.21,1909693.0
1638177644.796875,-68.16,1.887126,35.21,1910537.0
1638177644.8125,-75.39,1.888407,35.21,1911920.0
1638177644.828125,-84.35,1.887126,35.18,1914179.0
1638177644.84375,-94.43,1.887126,35.18,1916079.0
1638177644.859375,-104.14,1.887126,35.18,1918196.0
1638177644.875,-111.35,1.889687,35.18,1920224.0
1638177644.890625,-113.8,1.887126,35.21,1922370.0
1638177644.90625,-109.77,1.883284,35.21,1924691.0
1638177644.921875,-98.71,1.880722,35.21,1926824.0
1638177644.9375,-81.37,1.878161,35.21,1929724.0
1638177644.953125,-59.57,1.879442,35.23,1929510.0
1638177644.96875,-35.74,1.874319,35.23,1922916.0
1638177644.984375,-12.2,1.883284,35.23,1915855.0
1638177645.0,9.22,1.885845,35.23,1911115.0
1638177645.015625,27.4,1.884565,35.21,1907958.0
1638177645.03125,41.82,1.883284,35.21,1905617.0
1638177645.046875,52.43,1.889687,35.21,1904665.0
1638177645.0625,59.49,1.889687,35.21,1904596.0
1638177645.078125,63.49,1.890968,35.21,1903995.0
1638177645.09375,65.05,1.889687,35.21,1903790.0
1638177645.109375,64.8,1.888407,35.21,1903595.0
1638177645.125,63.35,1.889687,35.21,1904270.0
1638177645.140625,61.17,1.889687,35.23,1905322.0
1638177645.15625,58.63,1.885845,35.23,1906772.0
1638177645.171875,56.06,1.883284,35.23,1908566.0
1638177645.1875,53.75,1.885845,35.23,1910604.0
1638177645.203125,51.96,1.882003,35.23,1912710.0
1638177645.21875,50.86,1.879442,35.23,1914466.0
1638177645.234375,50.5,1.885845,35.23,1916336.0
1638177645.25,50.83,1.890968,35.23,1919275.0
1638177645.265625,51.67,1.901214,35.25,1921805.0
1638177645.28125,52.78,1.915302,35.25,1923543.0
1638177645.296875,53.87,1.921705,35.25,1919989.0
1638177645.3125,54.59,1.928109,35.25,1913093.0
1638177645.328125,54.6,1.934512,35.25,1907191.0
1638177645.34375,53.55,1.938355,35.25,1903974.0
1638177645.359375,51.21,1.942197,35.25,1901348.0
1638177645.375,47.55,1.955004,35.25,1900135.0
1638177645.390625,42.8,1.967811,35.25,1900209.0
1638177645.40625,37.4,1.980618,35.25,1900223.0
1638177645.421875,31.91,1.989583,35.25,1899616.0
1638177645.4375,26.76,1.988302,35.25,1899261.0
1638177645.453125,22.13,1.989583,35.27,1899754.0
1638177645.46875,17.9,1.988302,35.27,1900596.0
1638177645.484375,13.72,1.975495,35.27,1901993.0
1638177645.5,9.26,1.969092,35.27,1903737.0
1638177645.515625,4.38,1.962688,35.27,1905414.0
1638177645.53125,-0.79,1.955004,35.27,1907057.0
1638177645.546875,-5.89,1.951162,35.27,1909216.0
1638177645.5625,-10.56,1.9486,35.27,1910919.0
1638177645.578125,-14.63,1.944758,35.27,1913289.0
1638177645.59375,-18.22,1.942197,35.27,1915663.0
1638177645.609375,-21.7,1.939635,35.27,1915993.0
1638177645.625,-25.53,1.939635,35.27,1910483.0
1638177645.640625,-30.03,1.937074,35.29,1903455.0
1638177645.65625,-35.26,1.93067,35.29,1898743.0
1638177645.671875,-40.99,1.926828,35.29,1895847.0
1638177645.6875,-46.85,1.926828,35.29,1893994.0
1638177645.703125,-52.45,1.928109,35.27,1893978.0
1638177645.71875,-57.58,1.925547,35.27,1894072.0
1638177645.734375,-62.31,1.928109,35.27,1893753.0
1638177645.75,-66.96,1.924267,35.27,1892983.0
1638177645.765625,-72.08,1.925547,35.29,1893047.0
1638177645.78125,-78.31,1.924267,35.29,1893699.0
1638177645.796875,-86.12,1.925547,35.29,1894764.0
1638177645.8125,-95.66,1.922986,35.29,1896526.0
1638177645.828125,-106.42,1.925547,35.29,1898527.0
1638177645.84375,-117.11,1.928109,35.29,1900654.0
1638177645.859375,-125.8,1.928109,35.29,1902645.0
1638177645.875,-130.24,1.92939,35.29,1904875.0
1638177645.890625,-128.54,1.93067,35.31,1907261.0
1638177645.90625,-119.66,1.938355,35.31,1909393.0
1638177645.921875,-103.9,1.937074,35.31,1911921.0
1638177645.9375,-82.75,1.937074,35.31,1911051.0
1638177645.953125,-58.55,1.931951,35.29,1904399.0
1638177645.96875,-33.82,1.938355,35.29,1896867.0
1638177645.984375,-10.69,1.955004,35.29,1891528.0
1638177646.0,9.44,1.970372,35.29,1887650.0
1638177646.015625,25.95,1.987022,35.29,1884151.0
1638177646.03125,38.85,1.987022,35.29,1882842.0
1638177646.046875,48.51,2.007513,35.29,1882109.0
1638177646.0625,55.39,2.013917,35.29,1881270.0
1638177646.078125,59.99,2.013917,35.31,1880735.0
1638177646.09375,62.77,2.00111,35.31,1880460.0
1638177646.109375,64.2,1.998548,35.31,1880798.0
1638177646.125,64.67,1.981899,35.31,1881811.0
1638177646.140625,64.5,1.980618,35.31,1883231.0
1638177646.15625,63.91,1.969092,35.31,1884882.0
1638177646.171875,62.98,1.969092,35.31,1886915.0
1638177646.1875,61.8,1.963969,35.31,1889088.0
1638177646.203125,60.49,1.960127,35.33,1891350.0
1638177646.21875,59.29,1.962688,35.33,1893713.0
1638177646.234375,58.5,1.957565,35.33,1896060.0
1638177646.25,58.38,1.960127,35.33,1899030.0
1638177646.265625,59.02,1.969092,35.31,1901377.0
1638177646.28125,60.18,1.96653,35.31,1899733.0
1638177646.296875,61.4,1.98446,35.31,1892814.0
1638177646.3125,62.1,1.988302,35.31,1886204.0
1638177646.328125,61.77,1.985741,35.33,1881486.0
1638177646.34375,60.17,1.988302,35.33,1878174.0
1638177646.359375,57.26,1.981899,35.33,1876076.0
1638177646.375,53.24,1.976776,35.33,1875715.0
1638177646.390625,48.39,1.978057,35.33,1875642.0
1638177646.40625,43.05,1.974215,35.33,1875285.0
1638177646.421875,37.51,1.974215,35.33,1875219.0
1638177646.4375,32.02,1.971653,35.33,1875788.0
1638177646.453125,26.76,1.96653,35.34,1876572.0
1638177646.46875,21.76,1.96653,35.34,1878390.0
1638177646.484375,16.95,1.96653,35.34,1880501.0
1638177646.5,12.21,1.967811,35.34,1882441.0
1638177646.515625,7.45,1.96653,35.33,1884854.0
1638177646.53125,2.66,1.955004,35.33,1887405.0
1638177646.546875,-2.01,1.952442,35.33,1889782.0
1638177646.5625,-6.38,1.955004,35.33,1892396.0
1638177646.578125,-10.33,1.949881,35.37,1895243.0
1638177646.59375,-13.94,1.943477,35.37,1898064.0
1638177646.609375,-17.51,1.94732,35.37,1900404.0
1638177646.625,-21.44,1.9486,35.37,1896451.0
1638177646.640625,-26.04,1.9486,35.34,1890275.0
1638177646.65625,-31.33,1.946039,35.34,1885744.0
1638177646.671875,-37.04,1.94732,35.34,1882914.0
1638177646.6875,-42.67,1.944758,35.34,1880483.0
1638177646.703125,-47.79,1.940916,35.37,1879831.0
1638177646.71875,-52.26,1.935793,35.37,1880328.0
1638177646.734375,-56.28,1.933232,35.37,1880554.0
1638177646.75,-60.46,1.935793,35.37,1880693.0
1638177646.765625,-65.63,1.934512,35.37,1880662.0
1638177646.78125,-72.47,1.943477,35.37,1881243.0
1638177646.796875,-81.22,1.949881,35.37,1882608.0
1638177646.8125,-91.29,1.953723,35.37,1884589.0
1638177646.828125,-101.2,1.962688,35.34,1886736.0
1638177646.84375,-108.8,1.96653,35.34,1889186.0
1638177646.859375,-111.82,1.969092,35.34,1891753.0
1638177646.875,-108.53,1.970372,35.34,1893668.0
1638177646.890625,-98.34,1.96525,35.37,1896187.0
1638177646.90625,-81.92,1.962688,35.37,1898837.0
1638177646.921875,-60.99,1.956285,35.37,1901349.0
1638177646.9375,-37.83,1.955004,35.37,1904585.0
1638177646.953125,-14.69,1.944758,35.39,1907142.0
1638177646.96875,6.63,1.942197,35.39,1906473.0
1638177646.984375,24.89,1.939635,35.39,1900346.0
1638177647.0,39.42,1.938355,35.39,1895059.0
1638177647.015625,50.06,1.943477,35.34,1891536.0
1638177647.03125,57.04,1.953723,35.34,1889100.0
1638177647.046875,60.86,1.962688,35.34,1887217.0
1638177647.0625,62.22,1.988302,35.34,1887457.0
1638177647.078125,61.79,1.998548,35.34,1888026.0
1638177647.09375,60.2,2.00111,35.34,1888478.0
1638177647.109375,57.95,2.010075,35.34,1888564.0
1638177647.125,55.45,2.00239,35.34,1889082.0
1638177647.140625,53.12,2.015198,35.37,1890575.0
1638177647.15625,51.31,2.006233,35.37,1892280.0
1638177647.171875,50.25,2.003671,35.37,1894796.0
1638177647.1875,49.99,1.998548,35.37,1897207.0
1638177647.203125,50.46,1.995987,35.37,1899354.0
1638177647.21875,51.42,1.985741,35.37,1902072.0
1638177647.234375,52.68,1.980618,35.37,1904840.0
1638177647.25,54.02,1.987022,35.37,1907223.0
1638177647.265625,55.21,1.989583,35.39,1910155.0
1638177647.28125,55.99,1.985741,35.39,1912610.0
1638177647.296875,55.98,1.981899,35.39,1916040.0
1638177647.3125,54.86,1.981899,35.39,1917771.0
1638177647.328125,52.4,1.98318,35.37,1913564.0
1638177647.34375,48.65,1.98446,35.37,1908300.0
1638177647.359375,43.92,1.96653,35.37,1906157.0
1638177647.375,38.7,1.961407,35.37,1903883.0
1638177647.390625,33.51,1.961407,35.37,1901976.0
1638177647.40625,28.74,1.956285,35.37,1901805.0
1638177647.421875,24.5,1.955004,35.37,1902410.0
1638177647.4375,20.63,1.955004,35.37,1903928.0
1638177647.453125,16.8,1.955004,35.39,1904495.0
1638177647.46875,12.68,1.960127,35.39,1905297.0
1638177647.484375,8.03,1.958846,35.39,1906250.0
1638177647.5,2.93,1.960127,35.39,1907306.0
1638177647.515625,-2.33,1.960127,35.39,1909174.0
1638177647.53125,-7.3,1.961407,35.39,1913274.0
1638177647.546875,-11.64,1.963969,35.39,1911147.0
1638177647.5625,-15.27,1.974215,35.39,1915137.0
1638177647.578125,-18.48,1.979337,35.39,1917213.0
1638177647.59375,-21.78,1.98446,35.39,1919026.0
1638177647.609375,-25.7,1.987022,35.39,1921236.0
1638177647.625,-30.57,1.988302,35.39,1923109.0
1638177647.640625,-36.33,1.988302,35.41,1925753.0
1638177647.65625,-42.57,1.98318,35.41,1928037.0
1638177647.671875,-48.74,2.00239,35.41,1926940.0
1638177647.6875,-54.32,2.008794,35.41,1920893.0
1638177647.703125,-59.06,2.012636,35.37,1915348.0
1638177647.71875,-63.12,2.029285,35.37,1915336.0
1638177647.734375,-66.96,2.028005,35.37,1917691.0
1638177647.75,-71.3,2.028005,35.37,1910516.0
1638177647.765625,-76.92,2.026724,35.34,1919610.0
1638177647.78125,-84.33,2.01904,35.34,1912114.0
1638177647.796875,-93.41,2.013917,35.34,1924589.0
1638177647.8125,-103.19,2.006233,35.34,1926460.0
1638177647.828125,-111.81,1.998548,35.34,1913583.0
1638177647.84375,-116.91,1.993425,35.34,1912404.0
1638177647.859375,-116.24,1.988302,35.34,1922167.0
1638177647.875,-108.43,1.981899,35.34,1928975.0
1638177647.890625,-93.39,1.978057,35.39,1931209.0
1638177647.90625,-72.4,1.98318,35.39,1911057.0
1638177647.921875,-47.68,1.972934,35.39,1911249.0
1638177647.9375,-21.74,1.975495,35.39,1912365.0
1638177647.953125,3.21,1.978057,35.37,1935887.0
1638177647.96875,25.71,1.979337,35.37,1933318.0
1638177647.984375,44.96,1.979337,35.37,1935193.0
1638177648.0,60.73,1.979337,35.37,1929475.0
1638177648.015625,73.09,1.975495,35.39,1923654.0
1638177648.03125,82.2,1.975495,35.39,1920086.0
1638177648.046875,88.24,1.975495,35.39,1912791.0
1638177648.0625,91.36,1.974215,35.39,1917739.0
1638177648.078125,91.73,1.96653,35.37,1916317.0
1638177648.09375,89.56,1.967811,35.37,1916152.0
1638177648.109375,85.18,1.971653,35.37,1916613.0
1638177648.125,79.04,1.985741,35.37,1916848.0
1638177648.140625,71.69,2.010075,35.39,1916686.0
1638177648.15625,63.74,2.031847,35.39,1916866.0
1638177648.171875,55.74,2.051057,35.39,1919211.0
1638177648.1875,48.23,2.065145,35.39,1921273.0
1638177648.203125,41.72,2.067707,35.37,1923277.0
1638177648.21875,36.69,2.066426,35.37,1925207.0
1638177648.234375,33.53,2.058742,35.37,1927581.0
1638177648.25,32.36,2.048496,35.37,1917878.0
1638177648.265625,32.91,2.045935,35.37,1932061.0
1638177648.28125,34.5,2.031847,35.37,1929992.0
1638177648.296875,36.15,2.02032,35.37,1936998.0
1638177648.3125,36.85,2.012636,35.37,1940050.0
1638177648.328125,35.9,2.011355,35.37,1934456.0
1638177648.34375,33.07,2.015198,35.37,1941757.0
1638177648.359375,28.71,2.033128,35.37,1936932.0
1638177648.375,23.45,2.052338,35.37,1930410.0
1638177648.390625,18.08,2.060022,35.37,1925420.0
1638177648.40625,13.18,2.067707,35.37,1922291.0
1638177648.421875,9.05,2.066426,35.37,1920122.0
1638177648.4375,5.65,2.063864,35.37,1919087.0
1638177648.453125,2.66,2.062584,35.37,1919570.0
1638177648.46875,-0.32,2.058742,35.37,1919455.0
1638177648.484375,-3.67,2.054899,35.37,1919766.0
1638177648.5,-7.58,2.045935,35.37,1919813.0
1638177648.515625,-11.95,2.045935,35.37,1920476.0
1638177648.53125,-16.46,2.047215,35.37,1921693.0
1638177648.546875,-20.71,2.049777,35.37,1923685.0
1638177648.5625,-24.39,2.077952,35.37,1925570.0
1638177648.578125,-27.55,2.104847,35.37,1927348.0
1638177648.59375,-30.54,2.129181,35.37,1929708.0
1638177648.609375,-33.93,2.148392,35.37,1931965.0
1638177648.625,-38.17,2.149673,35.37,1934411.0
1638177648.640625,-43.37,2.149673,35.37,1936532.0
1638177648.65625,-49.27,2.154795,35.37,1939394.0
1638177648.671875,-55.32,2.184252,35.37,1941991.0
1638177648.6875,-61.03,2.203462,35.37,1943314.0
1638177648.703125,-66.2,2.229077,35.34,1938077.0
1638177648.71875,-71.03,2.261095,35.34,1931715.0
1638177648.734375,-76.01,2.272621,35.34,1927528.0
1638177648.75,-81.76,2.284148,35.34,1925480.0
1638177648.765625,-88.84,2.282867,35.37,1924098.0
1638177648.78125,-97.58,2.27134,35.37,1923961.0
1638177648.796875,-107.84,2.257252,35.37,1924489.0
1638177648.8125,-118.86,2.239322,35.37,1924863.0
1638177648.828125,-129.13,2.223954,35.39,1924360.0
1638177648.84375,-136.53,2.209866,35.39,1924617.0
1638177648.859375,-138.78,2.197059,35.39,1925096.0
1638177648.875,-134.06,2.198339,35.39,1926114.0
1638177648.890625,-121.65,2.171445,35.37,1927909.0
1638177648.90625,-102.21,2.167602,35.37,1929736.0
1638177648.921875,-77.68,2.161199,35.37,1931518.0
1638177648.9375,-50.75,2.16248,35.37,1933552.0
1638177648.953125,-24.18,2.159918,35.37,1935816.0
1638177648.96875,-0.15,2.157357,35.37,1938013.0
1638177648.984375,20.05,2.159918,35.37,1940860.0
1638177649.0,35.99,2.157357,35.37,1943590.0
1638177649.015625,47.9,2.14583,35.39,1943370.0
1638177649.03125,56.32,2.143269,35.39,1938615.0
1638177649.046875,61.86,2.143269,35.39,1931992.0
1638177649.0625,65.05,2.14455,35.39,1929388.0
1638177649.078125,66.34,2.143269,35.37,1929321.0
1638177649.09375,66.18,2.14455,35.37,1929265.0
1638177649.109375,65.08,2.149673,35.37,1930405.0
1638177649.125,63.55,2.149673,35.37,1931186.0
1638177649.140625,62.1,2.154795,35.37,1931367.0
1638177649.15625,61.08,2.152234,35.37,1930899.0
1638177649.171875,60.65,2.149673,35.37,1931072.0
1638177649.1875,60.82,2.170164,35.37,1931358.0
1638177649.203125,61.54,2.207304,35.34,1933006.0
1638177649.21875,62.71,2.200901,35.34,1934679.0
1638177649.234375,64.2,2.232919,35.34,1936526.0
1638177649.25,65.74,2.249568,35.34,1938494.0
1638177649.265625,67.0,2.304639,35.37,1940104.0
1638177649.28125,67.57,2.34306,35.37,1942172.0
1638177649.296875,67.09,2.389166,35.37,1943449.0
1638177649.3125,65.41,2.41478,35.37,1945204.0
1638177649.328125,62.58,2.440395,35.37,1947872.0
1638177649.34375,58.83,2.476884,35.37,1950031.0
1638177649.359375,54.36,2.52299,35.37,1950883.0
1638177649.375,49.36,2.572937,35.37,1944259.0
1638177649.390625,43.91,2.61392,35.39,1936820.0
1638177649.40625,38.05,2.662588,35.39,1930742.0
1638177649.421875,31.86,2.665149,35.39,1926848.0
1638177649.4375,25.51,2.651061,35.39,1923634.0
1638177649.453125,19.26,2.63057,35.41,1921924.0
1638177649.46875,13.34,2.59599,35.41,1921248.0
1638177649.484375,7.89,2.551165,35.41,1920836.0
1638177649.5,2.86,2.520428,35.41,1919032.0
1638177649.515625,-1.97,2.48713,35.37,1919908.0
1638177649.53125,-6.9,2.446147,35.37,1918983.0
1638177649.546875,-12.13,2.430778,35.37,1919514.0
1638177649.5625,-17.67,2.423094,35.37,1920643.0
1638177649.578125,-23.33,2.410287,35.39,1922062.0
1638177649.59375,-28.84,2.398761,35.39,1923683.0
1638177649.609375,-33.94,2.393638,35.39,1925259.0
1638177649.625,-38.63,2.378269,35.39,1927035.0
1638177649.640625,-43.15,2.371866,35.37,1929086.0
1638177649.65625,-47.99,2.36162,35.37,1930823.0
1638177649.671875,-53.71,2.351374,35.37,1933188.0
1638177649.6875,-60.88,2.341128,35.37,1935281.0
1638177649.703125,-69.81,2.330883,35.39,1936645.0
1638177649.71875,-80.46,2.321918,35.39,1930078.0
1638177649.734375,-92.21,2.329602,35.39,1922478.0
1638177649.75,-103.73,2.30911,35.39,1916690.0
1638177649.765625,-113.05,2.310391,,1912858.0
1638177649.78125,-117.91,2.314233,,1909647.0
1638177649.796875,-116.34,,,1908247.0
1638177649.8125,-107.26,,,1907792.0
1638177649.828125,-90.9,,,1907098.0
1638177649.84375,-68.87,,,1906089.0
1638177649.859375,-43.71,,,1905527.0
1638177649.875,-18.2,,,1905373.0
1638177649.890625,5.23,,,1906248.0
1638177649.90625,25.06,,,1907516.0
1638177649.921875,40.68,,,1909087.0
1638177649.9375,52.23,,,1910545.0
1638177649.953125,60.27,,,1912287.0
1638177649.96875,65.42,,,1914273.0
1638177649.984375,68.2,,,1915997.0
1638177650.0,69.04,,,1918488.0
1638177650.015625,68.36,,,1920656.0
1638177650.03125,66.66,,,1922776.0
1638177650.046875,64.55,,,1923487.0
1638177650.0625,62.64,,,1917562.0
1638177650.078125,61.37,,,1910353.0
1638177650.09375,60.9,,,1905600.0
1638177650.109375,61.12,,,1902636.0
1638177650.125,61.81,,,1900675.0
1638177650.140625,62.74,,,1900132.0
1638177650.15625,63.74,,,1899999.0
1638177650.171875,64.71,,,1899671.0
1638177650.1875,65.48,,,1898767.0
1638177650.203125,65.76,,,1898295.0
1638177650.21875,65.16,,,1899119.0
1638177650.234375,63.37,,,1900267.0
1638177650.25,60.28,,,1901518.0
1638177650.265625,56.02,,,1903003.0
1638177650.28125,50.93,,,1904770.0
1638177650.296875,45.35,,,1906762.0
1638177650.3125,39.57,,,1908431.0
1638177650.328125,33.69,,,1910533.0
1638177650.34375,27.68,,,1912812.0
1638177650.359375,21.49,,,1915325.0
1638177650.375,15.14,,,1914949.0
1638177650.390625,8.76,,,1907952.0
1638177650.40625,2.54,,,1901095.0
1638177650.421875,-3.38,,,1896038.0
1638177650.4375,-9.01,,,1892939.0
1638177650.453125,-14.49,,,1890285.0
1638177650.46875,-20.07,,,1889808.0
1638177650.484375,-25.94,,,1889714.0
1638177650.5,-32.11,,,1888987.0
1638177650.515625,-38.39,,,1889719.0
1638177650.53125,-44.49,,,1888987.0
1638177650.546875,-50.17,,,1888915.0
1638177650.5625,-55.44,,,1889478.0
1638177650.578125,-60.55,,,1890751.0
1638177650.59375,-65.99,,,1892535.0
1638177650.609375,-72.32,,,1894217.0
1638177650.625,-80.08,,,1896301.0
1638177650.640625,-89.57,,,1897970.0
1638177650.65625,-100.61,,,1900257.0
1638177650.671875,-112.28,,,1902236.0
1638177650.6875,-122.85,,,1904673.0
1638177650.703125,-129.92,,,1907137.0
1638177650.71875,-130.98,,,1909938.0
1638177650.734375,-124.22,,,1909994.0
1638177650.75,-109.21,,,1903341.0
1638177650.765625,-87.22,,,1895387.0
1638177650.78125,-60.84,,,1889930.0
1638177650.796875,-33.29,,,1885807.0
1638177650.8125,-7.4,,,1882428.0
1638177650.828125,14.9,,,1880628.0
1638177650.84375,32.88,,,1880410.0
1638177650.859375,46.7,,,1879775.0
1638177650.875,57.0,,,1879182.0
1638177650.890625,64.44,,,1878700.0
1638177650.90625,69.58,,,1879006.0
1638177650.921875,72.85,,,1880181.0
1638177650.9375,74.57,,,1882323.0
1638177650.953125,75.09,,,1883982.0
1638177650.96875,74.78,,,1886125.0
1638177650.984375,73.98,,,1888380.0
1638177651.0,72.94,,,1891083.0
1638177651.015625,71.82,,,1893548.0
1638177651.03125,70.69,,,1896200.0
1638177651.046875,69.67,,,1899089.0
1638177651.0625,68.92,,,1901875.0
1638177651.078125,68.67,,,1901279.0
1638177651.09375,69.11,,,1894258.0
1638177651.109375,70.17,,,1887335.0
1638177651.125,71.43,,,1882515.0
1638177651.140625,72.22,,,1879522.0
1638177651.15625,71.76,,,1877077.0
1638177651.171875,69.51,,,1876699.0
1638177651.1875,65.33,,,1877080.0
1638177651.203125,59.57,,,1876740.0
1638177651.21875,52.86,,,1876670.0
1638177651.234375,45.8,,,1877344.0
1638177651.25,38.76,,,1878325.0
1638177651.265625,31.85,,,1879913.0
1638177651.28125,24.98,,,1882785.0
1638177651.296875,18.11,,,1886814.0
1638177651.3125,11.36,,,1889506.0
1638177651.328125,4.96,,,1892250.0
1638177651.34375,-0.85,,,1895224.0
1638177651.359375,-6.01,,,1898355.0
1638177651.375,-10.76,,,1901140.0
1638177651.390625,-15.52,,,1904567.0
1638177651.40625,-20.73,,,1905641.0
1638177651.421875,-26.66,,,1899908.0
1638177651.4375,-33.19,,,1893557.0
1638177651.453125,-39.96,,,1889426.0
1638177651.46875,-46.47,,,1887511.0
1638177651.484375,-52.37,,,1885979.0
1638177651.5,-57.64,,,1886078.0
1638177651.515625,-62.64,,,1886677.0
1638177651.53125,-67.99,,,1886757.0
1638177651.546875,-74.39,,,1886756.0
1638177651.5625,-82.45,,,1886852.0
1638177651.578125,-92.39,,,1888288.0
1638177651.59375,-103.92,,,1890095.0
1638177651.609375,-116.12,,,1892006.0
1638177651.625,-127.35,,,1894419.0
1638177651.640625,-135.51,,,1897190.0
1638177651.65625,-138.38,,,1899431.0
1638177651.671875,-134.25,,,1902467.0
1638177651.6875,-122.45,,,1904972.0
1638177651.703125,-103.71,,,1907560.0
1638177651.71875,-80.05,,,1910728.0
1638177651.734375,-54.29,,,1913310.0
1638177651.75,-29.24,,,1911508.0
1638177651.765625,-7.07,,,1904796.0
1638177651.78125,11.09,,,1898309.0
1638177651.796875,25.13,,,1894354.0
1638177651.8125,35.61,,,1890977.0
1638177651.828125,43.35,,,1889253.0
1638177651.84375,49.01,,,1889124.0
1638177651.859375,52.98,,,1889546.0
1638177651.875,55.41,,,1889445.0
1638177651.890625,56.35,,,1889452.0
1638177651.90625,55.93,,,1890365.0
1638177651.921875,54.46,,,1891584.0
1638177651.9375,52.42,,,1893479.0
1638177651.953125,50.28,,,1895854.0
1638177651.96875,48.47,,,1899279.0
1638177651.984375,47.2,,,1903571.0
1638177652.0,46.5,,,1906149.0
1638177652.015625,46.29,,,1909675.0
1638177652.03125,46.43,,,1913077.0
1638177652.046875,46.77,,,1916845.0
1638177652.0625,47.1,,,1920883.0
1638177652.078125,47.18,,,1924008.0
1638177652.09375,46.66,,,1920242.0
1638177652.109375,45.26,,,1913415.0
1638177652.125,42.78,,,1908765.0
1638177652.140625,39.18,,,1905753.0
1638177652.15625,34.57,,,1903774.0
1638177652.171875,29.11,,,1903326.0
1638177652.1875,23.0,,,1904141.0
1638177652.203125,16.49,,,1904809.0
1638177652.21875,9.84,,,1905204.0
1638177652.234375,3.36,,,1904982.0
1638177652.25,-2.75,,,1905877.0
1638177652.265625,-8.45,,,1907163.0
1638177652.28125,-13.97,,,1908961.0
1638177652.296875,-19.75,,,1911161.0
1638177652.3125,-26.2,,,1913692.0
1638177652.328125,-33.51,,,1916302.0
1638177652.34375,-41.43,,,1919078.0
1638177652.359375,-49.3,,,1921824.0
1638177652.375,-56.25,,,1924987.0
1638177652.390625,-61.55,,,1927755.0
1638177652.40625,-64.81,,,1931179.0
1638177652.421875,-66.21,,,1929474.0
1638177652.4375,-66.33,,,1923975.0
1638177652.453125,-66.11,,,1918662.0
1638177652.46875,-66.57,,,1916066.0
1638177652.484375,-68.74,,,1914258.0
1638177652.5,-73.45,,,1913583.0
1638177652.515625,-81.11,,,1914388.0
1638177652.53125,-91.41,,,1914805.0
1638177652.546875,-102.93,,,1914186.0
1638177652.5625,-113.32,,,1914115.0
1638177652.578125,-119.65,,,1914289.0
1638177652.59375,-119.34,,,1915520.0
1638177652.609375,-111.06,,,1916771.0
1638177652.625,-95.18,,,1919022.0
1638177652.640625,-73.66,,,1922048.0
1638177652.65625,-49.18,,,1925430.0
1638177652.671875,-24.26,,,1927571.0
1638177652.6875,-0.51,,,1930174.0
1638177652.703125,21.33,,,1932708.0
1638177652.71875,41.0,,,1935235.0
1638177652.734375,58.11,,,1938145.0
1638177652.75,71.95,,,1938145.0
1638177652.765625,81.78,,,1939106.0
1638177652.78125,87.34,,,1932830.0
1638177652.796875,89.32,,,1926806.0
1638177652.8125,89.25,,,1922191.0
1638177652.828125,89.0,,,1919329.0
1638177652.84375,89.97,,,1917589.0
1638177652.859375,92.64,,,1917031.0
1638177652.875,96.56,,,1917204.0
1638177652.890625,100.76,,,1917251.0
1638177652.90625,104.37,,,1916174.0
1638177652.921875,107.04,,,1915426.0
1638177652.9375,108.93,,,1916079.0
1638177652.953125,110.47,,,1916589.0
1638177652.96875,111.98,,,1917892.0
1638177652.984375,113.33,,,1919700.0
1638177653.0,114.04,,,1921779.0
1638177653.015625,113.4,,,1923354.0
1638177653.03125,110.82,,,1925073.0
1638177653.046875,106.03,,,1927408.0
1638177653.0625,99.12,,,1929594.0
1638177653.078125,90.46,,,1931995.0
1638177653.09375,80.49,,,1934884.0
1638177653.109375,69.59,,,1935291.0
1638177653.125,58.1,,,1928744.0
1638177653.140625,46.29,,,1921715.0
1638177653.15625,34.58,,,1916594.0
1638177653.171875,23.55,,,1913348.0
1638177653.1875,13.89,,,1910950.0
1638177653.203125,6.25,,,1910159.0
1638177653.21875,1.02,,,1910089.0
1638177653.234375,-1.81,,,1910262.0
1638177653.25,-2.69,,,1910131.0
1638177653.265625,-2.37,,,1909744.0
1638177653.28125,-1.75,,,1910598.0
1638177653.296875,-1.65,,,1911782.0
1638177653.3125,-2.59,,,1913491.0
1638177653.328125,-4.73,,,1915270.0
1638177653.34375,-7.91,,,1917525.0
1638177653.359375,-11.79,,,1919349.0
1638177653.375,-16.13,,,1921927.0
1638177653.390625,-20.94,,,1924096.0
1638177653.40625,-26.47,,,1926216.0
1638177653.421875,-32.95,,,1928633.0
1638177653.4375,-40.29,,,1930467.0
1638177653.453125,-47.71,,,1925222.0
1638177653.46875,-53.78,,,1918417.0
1638177653.484375,-56.71,,,1913045.0
1638177653.5,-54.81,,,1909683.0
1638177653.515625,-47.07,,,1907828.0
1638177653.53125,-33.51,,,1907666.0
1638177653.546875,-15.21,,,1907903.0
1638177653.5625,5.95,,,1907579.0
1638177653.578125,27.74,,,1906560.0
1638177653.59375,48.09,,,1906372.0
1638177653.609375,65.49,,,1906660.0
1638177653.625,79.11,,,1908093.0
1638177653.640625,88.78,,,1909678.0
1638177653.65625,94.8,,,1911598.0
1638177653.671875,97.75,,,1913309.0
1638177653.6875,98.33,,,1915457.0
1638177653.703125,97.34,,,1917998.0
1638177653.71875,95.46,,,1920089.0
1638177653.734375,93.2,,,1922388.0
1638177653.75,90.72,,,1924801.0
1638177653.765625,87.71,,,1927328.0
1638177653.78125,83.58,,,1928506.0
1638177653.796875,77.7,,,1922029.0
1638177653.8125,69.85,,,1913827.0
1638177653.828125,60.44,,,1907883.0
1638177653.84375,50.46,,,1904034.0
1638177653.859375,41.24,,,1900967.0
1638177653.875,33.92,,,1900071.0
1638177653.890625,29.08,,,1899522.0
1638177653.90625,26.65,,,1899572.0
1638177653.921875,26.02,,,1898999.0
1638177653.9375,26.37,,,1898546.0
1638177653.953125,26.96,,,1898978.0
1638177653.96875,27.24,,,1899519.0
1638177653.984375,26.88,,,1900980.0
1638177654.0,25.59,,,1902871.0
1638177654.015625,23.11,,,1904888.0
1638177654.03125,19.18,,,1906854.0
1638177654.046875,13.74,,,1908730.0
1638177654.0625,7.08,,,1910964.0
1638177654.078125,-0.11,,,1913399.0
1638177654.09375,-6.93,,,1915581.0
1638177654.109375,-12.5,,,1918456.0
1638177654.125,-16.35,,,1921071.0
1638177654.140625,-18.54,,,1923760.0
1638177654.15625,-19.56,,,1919017.0
1638177654.171875,-20.17,,,1911173.0
1638177654.1875,-21.03,,,1904487.0
1638177654.203125,-22.54,,,1900358.0
1638177654.21875,-24.77,,,1898110.0
1638177654.234375,-27.59,,,1896353.0
1638177654.25,-30.77,,,1896027.0
1638177654.265625,-34.16,,,1895980.0
1638177654.28125,-37.75,,,1895610.0
1638177654.296875,-41.64,,,1895175.0
1638177654.3125,-45.99,,,1895266.0
1638177654.328125,-50.9,,,1896185.0
1638177654.34375,-56.3,,,1898052.0
1638177654.359375,-61.74,,,1899731.0
1638177654.375,-66.48,,,1901740.0
1638177654.390625,-69.51,,,1904338.0
1638177654.40625,-69.9,,,1906323.0
1638177654.421875,-67.1,,,1908746.0
1638177654.4375,-61.16,,,1913431.0
1638177654.453125,-52.75,,,1911192.0
1638177654.46875,-42.95,,,1916556.0
1638177654.484375,-32.92,,,1918996.0
1638177654.5,-23.69,,,1921823.0
1638177654.515625,-15.92,,,1919327.0
1638177654.53125,-9.91,,,1912662.0
1638177654.546875,-5.62,,,1906461.0
1638177654.5625,-2.74,,,1903140.0
1638177654.578125,-0.83,,,1901706.0
1638177654.59375,0.61,,,1901252.0
1638177654.609375,2.02,,,1902016.0
1638177654.625,3.68,,,1902024.0
1638177654.640625,5.67,,,1902341.0
1638177654.65625,7.89,,,1901842.0
1638177654.671875,10.13,,,1902282.0
1638177654.6875,12.11,,,1903690.0
1638177654.703125,13.56,,,1905106.0
1638177654.71875,14.28,,,1907170.0
1638177654.734375,14.18,,,1909246.0
1638177654.75,13.35,,,1911522.0
1638177654.765625,12.09,,,1913588.0
1638177654.78125,10.81,,,1915852.0
1638177654.796875,9.92,,,1918365.0
1638177654.8125,9.61,,,1920742.0
1638177654.828125,9.77,,,1923448.0
1638177654.84375,10.01,,,1925636.0
1638177654.859375,9.82,,,1920928.0
1638177654.875,8.76,,,1914243.0
1638177654.890625,6.68,,,1909129.0
1638177654.90625,3.72,,,1906225.0
1638177654.921875,0.26,,,1904931.0
1638177654.9375,-3.22,,,1904645.0
1638177654.953125,-6.36,,,1905331.0
1638177654.96875,-8.95,,,1905983.0
1638177654.984375,-10.94,,,1905953.0
1638177655.0,-12.43,,,1906103.0
1638177655.015625,-13.53,,,1906797.0
1638177655.03125,-14.38,,,1907939.0
1638177655.046875,-15.14,,,1910032.0
1638177655.0625,-15.97,,,1912192.0
1638177655.078125,-17.07,,,1914235.0
1638177655.09375,-18.6,,,1916448.0
1638177655.109375,-20.67,,,1918805.0
1638177655.125,-23.31,,,1921570.0
1638177655.140625,-26.52,,,1923883.0
1638177655.15625,-30.3,,,1926265.0
1638177655.171875,-34.64,,,1928894.0
1638177655.1875,-39.36,,,1931456.0
1638177655.203125,-44.06,,,1934341.0
1638177655.21875,-47.95,,,1930514.0
1638177655.234375,-50.03,,,1923045.0
1638177655.25,-49.33,,,1916384.0
1638177655.265625,-45.33,,,1912399.0
1638177655.28125,-38.15,,,1910139.0
1638177655.296875,-28.56,,,1908282.0
1638177655.3125,-17.78,,,1908254.0
1638177655.328125,-7.1,,,1908212.0
1638177655.34375,2.47,,,1907624.0
1638177655.359375,10.38,,,1907257.0
1638177655.375,16.51,,,1907669.0
1638177655.390625,21.06,,,1908246.0
1638177655.40625,24.26,,,1909529.0
1638177655.421875,26.25,,,1911581.0
1638177655.4375,27.0,,,1913613.0
1638177655.453125,26.45,,,1915330.0
1638177655.46875,24.68,,,1917730.0
1638177655.484375,22.03,,,1919876.0
1638177655.5,19.13,,,1922474.0
1638177655.515625,16.63,,,1924860.0
1638177655.53125,15.03,,,1927304.0
1638177655.546875,14.38,,,1930106.0
1638177655.5625,14.33,,,1932257.0
1638177655.578125,14.4,,,1927803.0
1638177655.59375,14.21,,,1921155.0
1638177655.609375,13.77,,,1915868.0
1638177655.625,13.37,,,1911953.0
1638177655.640625,13.35,,,1909905.0
1638177655.65625,13.83,,,1909086.0
1638177655.671875,14.56,,,1910209.0
1638177655.6875,15.03,,,1911132.0
1638177655.703125,14.73,,,1911324.0
1638177655.71875,13.38,,,1911288.0
1638177655.734375,11.11,,,1911184.0
1638177655.75,8.23,,,1912539.0
1638177655.765625,5.14,,,1913686.0
1638177655.78125,2.1,,,1915175.0
1638177655.796875,-0.82,,,1917277.0
1638177655.8125,-3.7,,,1919074.0
1638177655.828125,-6.6,,,1921240.0
1638177655.84375,-9.57,,,1923162.0
1638177655.859375,-12.56,,,1925188.0
1638177655.875,-15.56,,,1927613.0
1638177655.890625,-18.58,,,1930078.0
1638177655.90625,-21.73,,,1932837.0
1638177655.921875,-25.11,,,1930679.0
1638177655.9375,-28.75,,,1923458.0
1638177655.953125,-32.62,,,1916325.0
1638177655.96875,-36.61,,,1912218.0
1638177655.984375,-40.68,,,1910209.0
1638177656.0,-44.9,,,1909205.0
1638177656.015625,-49.43,,,1909263.0
1638177656.03125,-54.37,,,1909753.0
1638177656.046875,-59.57,,,1909332.0
1638177656.0625,-64.38,,,1908776.0
1638177656.078125,-67.79,,,1908309.0
1638177656.09375,-68.65,,,1909099.0
1638177656.109375,-66.11,,,1910511.0
1638177656.125,-59.9,,,1912572.0
1638177656.140625,-50.53,,,1914680.0
1638177656.15625,-39.07,,,1916480.0
1638177656.171875,-26.83,,,1918919.0
1638177656.1875,-14.97,,,1921064.0
1638177656.203125,-4.29,,,1922818.0
1638177656.21875,4.81,,,1925206.0
1638177656.234375,12.23,,,1927678.0
1638177656.25,17.96,,,1930079.0
1638177656.265625,22.01,,,1929252.0
1638177656.28125,24.44,,,1921343.0
1638177656.296875,25.41,,,1912912.0
1638177656.3125,25.28,,,1907607.0
1638177656.328125,24.6,,,1903268.0
1638177656.34375,23.92,,,1900544.0
1638177656.359375,23.61,,,1900912.0
1638177656.375,23.72,,,1901278.0
1638177656.390625,23.98,,,1901058.0
1638177656.40625,24.0,,,1900260.0
1638177656.421875,23.49,,,1900220.0
1638177656.4375,22.44,,,1901044.0
1638177656.453125,21.06,,,1902590.0
1638177656.46875,19.62,,,1904410.0
1638177656.484375,18.25,,,1906886.0
1638177656.5,16.87,,,1908938.0
1638177656.515625,15.23,,,1911225.0
1638177656.53125,13.1,,,1913748.0
1638177656.546875,10.45,,,1915705.0
1638177656.5625,7.42,,,1917902.0
1638177656.578125,4.29,,,1920092.0
1638177656.59375,1.27,,,1922236.0
1638177656.609375,-1.57,,,1924119.0
1638177656.625,-4.33,,,1918401.0
1638177656.640625,-7.11,,,1903073.0
1638177656.65625,-9.99,,,1898771.0
1638177656.671875,-12.89,,,1896202.0
1638177656.6875,-15.61,,,1894667.0
1638177656.703125,-17.91,,,1894440.0
1638177656.71875,-19.65,,,1894126.0
1638177656.734375,-20.85,,,1893477.0
1638177656.75,-21.64,,,1892271.0
1638177656.765625,-22.28,,,1910001.0
1638177656.78125,-23.08,,,1892334.0
1638177656.796875,-24.28,,,1893411.0
1638177656.8125,-26.09,,,1894491.0
1638177656.828125,-28.67,,,1896466.0
1638177656.84375,-32.13,,,1897999.0
1638177656.859375,-36.5,,,1900140.0
1638177656.875,-41.68,,,1901969.0
1638177656.890625,-47.45,,,1904128.0
1638177656.90625,-53.42,,,1908200.0
1638177656.921875,-59.08,,,1910716.0
1638177656.9375,-63.78,,,1908096.0
1638177656.953125,-66.75,,,1906105.0
1638177656.96875,-67.22,,,1899645.0
1638177656.984375,-64.58,,,1892544.0
1638177657.0,-58.61,,,1885591.0
1638177657.015625,-49.65,,,1884626.0
1638177657.03125,-38.61,,,1884718.0
1638177657.046875,-26.73,,,1887815.0
1638177657.0625,-15.28,,,1884792.0
1638177657.078125,-5.21,,,1884335.0
1638177657.09375,3.07,,,1883616.0
1638177657.109375,9.55,,,1883562.0
1638177657.125,14.49,,,1885967.0
1638177657.140625,18.16,,,1887548.0
1638177657.15625,20.72,,,1892146.0
1638177657.171875,22.19,,,1898649.0
1638177657.1875,22.57,,,1901091.0
1638177657.203125,21.93,,,1903257.0
1638177657.21875,20.49,,,1889519.0
1638177657.234375,18.6,,,1906259.0
1638177657.25,16.65,,,1907210.0
1638177657.265625,14.91,,,1900880.0
1638177657.28125,13.53,,,1893936.0
1638177657.296875,12.44,,,1893148.0
1638177657.3125,11.52,,,1887301.0
1638177657.328125,10.71,,,1879127.0
1638177657.34375,10.08,,,1877917.0
1638177657.359375,9.87,,,1878400.0
1638177657.375,10.33,,,1882479.0
1638177657.390625,11.56,,,1879005.0
1638177657.40625,13.31,,,1878431.0
1638177657.421875,15.01,,,1877451.0
1638177657.4375,15.96,,,1877247.0
1638177657.453125,15.58,,,1896246.0
1638177657.46875,13.72,,,1884391.0
1638177657.484375,10.68,,,1877165.0
1638177657.5,7.13,,,1878313.0
1638177657.515625,3.74,,,1879373.0
1638177657.53125,0.95,,,1880893.0
1638177657.546875,-1.25,,,1882987.0
1638177657.5625,-3.21,,,1884838.0
1638177657.578125,-5.41,,,1886992.0
1638177657.59375,-8.18,,,1889736.0
1638177657.609375,-11.5,,,1892091.0
1638177657.625,-15.12,,,1897947.0
1638177657.640625,-18.6,,,1901190.0
1638177657.65625,-21.61,,,1898229.0
1638177657.671875,-23.96,,,1881634.0
1638177657.6875,-25.74,,,1876504.0
1638177657.703125,-27.23,,,1889294.0
1638177657.71875,-28.78,,,1895388.0
1638177657.734375,-30.81,,,1872466.0
1638177657.75,-33.68,,,1869195.0
1638177657.765625,-37.61,,,1869989.0
1638177657.78125,-42.49,,,1869049.0
1638177657.796875,-47.77,,,1868584.0
1638177657.8125,-52.43,,,1867643.0
1638177657.828125,-55.2,,,1867231.0
1638177657.84375,-54.99,,,1868062.0
1638177657.859375,-51.28,,,1869368.0
1638177657.875,-44.39,,,1871008.0
1638177657.890625,-35.44,,,1872873.0
1638177657.90625,-25.87,,,1875078.0
1638177657.921875,-17.06,,,1877262.0
1638177657.9375,-9.78,,,1879659.0
1638177657.953125,-4.24,,,1882082.0
1638177657.96875,-0.16,,,1884197.0
1638177657.984375,2.83,,,1886875.0
1638177658.0,5.04,,,1889784.0
1638177658.015625,6.53,,,1892107.0
1638177658.03125,7.39,,,1887500.0
1638177658.046875,7.74,,,1887500.0
1638177658.0625,7.83,,,1880240.0
1638177658.078125,7.99,,,1874689.0
1638177658.09375,8.44,,,1871630.0
1638177658.109375,9.18,,,1869524.0
1638177658.125,10.03,,,1869046.0
1638177658.140625,10.75,,,1869376.0
1638177658.15625,11.17,,,1869190.0
1638177658.171875,11.35,,,1868672.0
1638177658.1875,11.5,,,1868368.0
1638177658.203125,11.92,,,1868493.0
1638177658.21875,12.76,,,1869736.0
1638177658.234375,13.92,,,1871552.0
1638177658.25,15.05,,,1873474.0
1638177658.265625,15.71,,,1875577.0
1638177658.28125,15.54,,,1877766.0
1638177658.296875,14.46,,,1880112.0
1638177658.3125,12.74,,,1882171.0
1638177658.328125,10.83,,,1884397.0
1638177658.34375,9.25,,,1887196.0
1638177658.359375,8.31,,,1889778.0
1638177658.375,7.97,,,1892971.0
1638177658.390625,7.84,,,1893957.0
1638177658.40625,7.37,,,1887550.0
1638177658.421875,6.07,,,1880146.0
1638177658.4375,3.67,,,1874141.0
1638177658.453125,0.28,,,1870945.0
1638177658.46875,-3.71,,,1868151.0
1638177658.484375,-7.82,,,1866768.0
1638177658.5,-11.65,,,1867231.0
1638177658.515625,-15.03,,,1867136.0
1638177658.53125,-18.07,,,1866459.0
1638177658.546875,-21.03,,,1866041.0
1638177658.5625,-24.3,,,1866943.0
1638177658.578125,-28.21,,,1868117.0
1638177658.59375,-32.95,,,1870246.0
1638177658.609375,-38.45,,,1872349.0
1638177658.625,-44.23,,,1874525.0
1638177658.640625,-49.38,,,1876682.0
1638177658.65625,-52.65,,,1878918.0
1638177658.671875,-52.8,,,1881519.0
1638177658.6875,-48.96,,,1883350.0
1638177658.703125,-40.97,,,1886162.0
1638177658.71875,-29.5,,,1889030.0
1638177658.734375,-15.86,,,1891747.0
1638177658.75,-1.65,,,1889722.0
1638177658.765625,11.76,,,1882007.0
1638177658.78125,23.39,,,1875636.0
1638177658.796875,32.85,,,1870906.0
1638177658.8125,40.05,,,1867847.0
1638177658.828125,45.09,,,1866219.0
1638177658.84375,48.07,,,1865916.0
1638177658.859375,49.1,,,1867185.0
1638177658.875,48.37,,,1867727.0
1638177658.890625,46.16,,,1868208.0
1638177658.90625,42.94,,,1868313.0
1638177658.921875,39.19,,,1869128.0
1638177658.9375,35.41,,,1870765.0
1638177658.953125,31.92,,,1873124.0
1638177658.96875,28.99,,,1875166.0
1638177658.984375,26.66,,,1877178.0
1638177659.0,24.9,,,1878937.0
1638177659.015625,23.57,,,1880984.0
1638177659.03125,22.48,,,1883316.0
1638177659.046875,21.48,,,1885599.0
1638177659.0625,20.45,,,1888064.0
1638177659.078125,19.37,,,1886351.0
1638177659.09375,18.23,,,1878983.0
1638177659.109375,16.99,,,1871844.0
1638177659.125,15.52,,,1867179.0
1638177659.140625,13.57,,,1863867.0
1638177659.15625,10.9,,,1861573.0
1638177659.171875,7.38,,,1861279.0
1638177659.1875,3.06,,,1861484.0
1638177659.203125,-1.76,,,1861081.0
1638177659.21875,-6.64,,,1860899.0
1638177659.234375,-11.2,,,1861390.0
1638177659.25,-15.19,,,1862150.0
1638177659.265625,-18.65,,,1863628.0
1638177659.28125,-21.86,,,1865530.0
1638177659.296875,-25.17,,,1867989.0
1638177659.3125,-28.87,,,1870285.0
1638177659.328125,-33.0,,,1872576.0
1638177659.34375,-37.27,,,1875127.0
1638177659.359375,-41.26,,,1877706.0
1638177659.375,-44.6,,,1880316.0
1638177659.390625,-47.15,,,1878085.0
1638177659.40625,-49.14,,,1870958.0
1638177659.421875,-51.08,,,1864673.0
1638177659.4375,-53.51,,,1860942.0
1638177659.453125,-56.88,,,1858041.0
1638177659.46875,-61.24,,,1856798.0
1638177659.484375,-66.22,,,1856794.0
1638177659.5,-70.99,,,1857260.0
1638177659.515625,-74.39,,,1856697.0
1638177659.53125,-75.16,,,1856402.0
1638177659.546875,-72.26,,,1856689.0
1638177659.5625,-65.21,,,1857366.0
1638177659.578125,-54.3,,,1858395.0
1638177659.59375,-40.53,,,1859768.0
1638177659.609375,-25.39,,,1860893.0
1638177659.625,-10.45,,,1863548.0
1638177659.640625,3.0,,,1866586.0
1638177659.65625,14.11,,,1869389.0
1638177659.671875,22.52,,,1872253.0
1638177659.6875,28.25,,,1874941.0
1638177659.703125,31.66,,,1872502.0
1638177659.71875,33.31,,,1865109.0
1638177659.734375,33.85,,,1858372.0
1638177659.75,33.8,,,1854741.0
1638177659.765625,33.43,,,1852581.0
1638177659.78125,32.73,,,1852202.0
1638177659.796875,31.58,,,1852233.0
1638177659.8125,29.84,,,1852204.0
1638177659.828125,27.61,,,1851635.0
1638177659.84375,25.16,,,1851473.0
1638177659.859375,22.83,,,1851850.0
1638177659.875,20.89,,,1853572.0
1638177659.890625,19.51,,,1855568.0
1638177659.90625,18.73,,,1857921.0
1638177659.921875,18.57,,,1860015.0
1638177659.9375,19.03,,,1862675.0
1638177659.953125,19.93,,,1865300.0
1638177659.96875,20.93,,,1867958.0
1638177659.984375,21.53,,,1867958.0
1638177660.0,21.23,,,1870406.0
1638177660.015625,19.7,,,1873032.0
1638177660.03125,16.93,,,1876202.0
1638177660.046875,13.19,,,1877706.0
1638177660.0625,8.93,,,1871732.0
1638177660.078125,4.64,,,1863861.0
1638177660.09375,0.71,,,1857868.0
1638177660.109375,-2.62,,,1853523.0
1638177660.125,-5.35,,,1850909.0
1638177660.140625,-7.62,,,1848901.0
1638177660.15625,-9.69,,,1848836.0
1638177660.171875,-11.76,,,1848886.0
1638177660.1875,-13.83,,,1848033.0
1638177660.203125,-15.67,,,1847792.0
1638177660.21875,-16.92,,,1848997.0
1638177660.234375,-17.36,,,1850337.0
1638177660.25,-17.08,,,1852175.0
1638177660.265625,-16.58,,,1854081.0
1638177660.28125,-16.54,,,1856716.0
1638177660.296875,-17.61,,,1859325.0
1638177660.3125,-20.01,,,1861939.0
1638177660.328125,-23.52,,,1864917.0
1638177660.34375,-27.49,,,1868018.0
1638177660.359375,-31.07,,,1872146.0
1638177660.375,-33.36,,,1875916.0
1638177660.390625,-33.55,,,1877681.0
1638177660.40625,-31.03,,,1873378.0
1638177660.421875,-25.45,,,1867037.0
1638177660.4375,-16.82,,,1863114.0
1638177660.453125,-5.66,,,1861176.0
1638177660.46875,7.0,,,1859676.0
1638177660.484375,19.79,,,1859322.0
1638177660.5,31.28,,,1859322.0
1638177660.515625,40.34,,,1859090.0
1638177660.53125,46.38,,,1858711.0
1638177660.546875,49.35,,,1858343.0
1638177660.5625,49.67,,,1859128.0
1638177660.578125,47.92,,,1860365.0
1638177660.59375,44.73,,,1862537.0
1638177660.609375,40.61,,,1864463.0
1638177660.625,36.04,,,1867050.0
1638177660.640625,31.42,,,1869430.0
1638177660.65625,27.05,,,1871961.0
1638177660.671875,23.16,,,1874378.0
1638177660.6875,19.8,,,1876743.0
1638177660.703125,16.9,,,1879994.0
1638177660.71875,14.32,,,1882623.0
1638177660.734375,12.0,,,1884524.0
1638177660.75,9.98,,,1879470.0
1638177660.765625,8.4,,,1872821.0
1638177660.78125,7.48,,,1867986.0
1638177660.796875,7.31,,,1865459.0
1638177660.8125,7.81,,,1864045.0
1638177660.828125,8.75,,,1863925.0
1638177660.84375,9.75,,,1864833.0
1638177660.859375,10.43,,,1864608.0
1638177660.875,10.43,,,1864144.0
1638177660.890625,9.54,,,1864435.0
1638177660.90625,7.73,,,1865441.0
1638177660.921875,5.14,,,1867151.0
1638177660.9375,2.08,,,1868943.0
1638177660.953125,-1.1,,,1870963.0
1638177660.96875,-4.13,,,1873620.0
1638177660.984375,-6.87,,,1875877.0
1638177661.0,-9.37,,,1877270.0
1638177661.015625,-11.79,,,1880036.0
1638177661.03125,-14.29,,,1882230.0
1638177661.046875,-16.94,,,1885100.0
1638177661.0625,-19.68,,,1887710.0
1638177661.078125,-22.35,,,1890080.0
1638177661.09375,-24.78,,,1885821.0
1638177661.109375,-26.87,,,1877662.0
1638177661.125,-28.68,,,1871327.0
1638177661.140625,-30.44,,,1866989.0
1638177661.15625,-32.53,,,1863876.0
1638177661.171875,-35.34,,,1861868.0
1638177661.1875,-39.13,,,1861235.0
1638177661.203125,-43.77,,,1860996.0
1638177661.21875,-48.67,,,1859892.0
1638177661.234375,-52.77,,,1859445.0
1638177661.25,-54.79,,,1859611.0
1638177661.265625,-53.61,,,1860538.0
1638177661.28125,-48.62,,,1861884.0
1638177661.296875,-39.95,,,1863489.0
1638177661.3125,-28.37,,,1865641.0
1638177661.328125,-15.12,,,1868027.0
1638177661.34375,-1.54,,,1870246.0
1638177661.359375,11.22,,,1872252.0
1638177661.375,22.29,,,1874632.0
1638177661.390625,31.17,,,1877430.0
1638177661.40625,37.61,,,1880092.0
1638177661.421875,41.57,,,1882544.0
1638177661.4375,43.14,,,1885391.0
1638177661.453125,42.59,,,1887966.0
1638177661.46875,40.34,,,1882557.0
1638177661.484375,36.95,,,1874191.0
1638177661.5,33.09,,,1867120.0
1638177661.515625,29.39,,,1862709.0
1638177661.53125,26.29,,,1859228.0
1638177661.546875,23.99,,,1857075.0
1638177661.5625,22.42,,,1856234.0
1638177661.578125,21.36,,,1855853.0
1638177661.59375,20.64,,,1855263.0
1638177661.609375,20.2,,,1854583.0
1638177661.625,20.12,,,1854625.0
1638177661.640625,20.44,,,1855542.0
1638177661.65625,21.06,,,1857365.0
1638177661.671875,21.64,,,1859234.0
1638177661.6875,21.71,,,1861456.0
1638177661.703125,20.9,,,1863663.0
1638177661.71875,19.1,,,1865912.0
1638177661.734375,16.52,,,1868566.0
1638177661.75,13.57,,,1870879.0
1638177661.765625,10.62,,,1873589.0
1638177661.78125,7.84,,,1876091.0
1638177661.796875,5.16,,,1879095.0
1638177661.8125,2.34,,,1882331.0
1638177661.828125,-0.84,,,1881903.0
1638177661.84375,-4.45,,,1874433.0
1638177661.859375,-8.39,,,1867015.0
1638177661.875,-12.47,,,1861716.0
1638177661.890625,-16.4,,,1858757.0
1638177661.90625,-20.01,,,1857091.0
1638177661.921875,-23.19,,,1856666.0
1638177661.9375,-25.99,,,1856629.0
1638177661.953125,-28.59,,,1856816.0
1638177661.96875,-31.33,,,1856125.0
1638177661.984375,-34.61,,,1857136.0
1638177662.0,-38.79,,,1858706.0
1638177662.015625,-43.84,,,1860161.0
1638177662.03125,-49.15,,,1860772.0
1638177662.046875,-53.5,,,1862135.0
1638177662.0625,-55.27,,,1865156.0
1638177662.078125,-52.89,,,1868567.0
1638177662.09375,-45.5,,,1872600.0
1638177662.109375,-33.28,,,1875489.0
1638177662.125,-17.52,,,1878304.0
1638177662.140625,-0.36,,,1880635.0
1638177662.15625,15.85,,,1883275.0
1638177662.171875,29.14,,,1885754.0
1638177662.1875,38.41,,,1884340.0
1638177662.203125,43.56,,,1876541.0
1638177662.21875,45.29,,,1868133.0
1638177662.234375,44.65,,,1862999.0
1638177662.25,42.7,,,1859403.0
1638177662.265625,40.11,,,1856820.0
1638177662.28125,37.22,,,1856169.0
1638177662.296875,34.15,,,1855773.0
1638177662.3125,31.02,,,1855010.0
1638177662.328125,28.07,,,1854004.0
1638177662.34375,25.61,,,1853904.0
1638177662.359375,23.81,,,1854161.0
1638177662.375,22.58,,,1855458.0
1638177662.390625,21.56,,,1857051.0
1638177662.40625,20.33,,,1859150.0
1638177662.421875,18.64,,,1861267.0
1638177662.4375,16.66,,,1863531.0
1638177662.453125,14.76,,,1865617.0
1638177662.46875,13.36,,,1867669.0
1638177662.484375,12.6,,,1870092.0
1638177662.5,12.23,,,1872610.0
1638177662.515625,11.68,,,1875219.0
1638177662.53125,10.34,,,1878576.0
1638177662.546875,7.84,,,1880935.0
1638177662.5625,4.26,,,1878847.0
1638177662.578125,0.08,,,1870052.0
1638177662.59375,-4.03,,,1862730.0
1638177662.609375,-7.49,,,1857241.0
1638177662.625,-10.03,,,1853446.0
1638177662.640625,-11.85,,,1850641.0
1638177662.65625,-13.49,,,1849608.0
1638177662.671875,-15.59,,,1848983.0
1638177662.6875,-18.61,,,1847909.0
1638177662.703125,-22.53,,,1847276.0
1638177662.71875,-26.87,,,1846601.0
1638177662.734375,-30.85,,,1847416.0
1638177662.75,-33.79,,,1849026.0
1638177662.765625,-35.48,,,1850891.0
1638177662.78125,-36.32,,,1852910.0
1638177662.796875,-37.25,,,1852910.0
1638177662.8125,-39.3,,,1854887.0
1638177662.828125,-43.21,,,1857072.0
1638177662.84375,-49.11,,,1859404.0
1638177662.859375,-56.35,,,1861462.0
1638177662.875,-63.69,,,1864168.0
1638177662.890625,-69.5,,,1866551.0
1638177662.90625,-72.14,,,1869691.0
1638177662.921875,-70.37,,,1872271.0
1638177662.9375,-63.57,,,1875319.0
1638177662.953125,-52.02,,,1874332.0
1638177662.96875,-36.78,,,1866618.0
1638177662.984375,-19.56,,,1859401.0
1638177663.0,-2.26,,,1854147.0
1638177663.015625,13.42,,,1850886.0
1638177663.03125,26.33,,,1849061.0
1638177663.046875,35.97,,,1847915.0
1638177663.0625,42.42,,,1848002.0
1638177663.078125,46.17,,,1847015.0
1638177663.09375,47.85,,,1846412.0
1638177663.109375,48.03,,,1846175.0
1638177663.125,47.19,,,1846595.0
1638177663.140625,45.62,,,1848246.0
1638177663.15625,43.49,,,1849629.0
1638177663.171875,40.91,,,1851581.0
1638177663.1875,37.99,,,1853871.0
1638177663.203125,34.95,,,1855720.0
1638177663.21875,32.06,,,1858225.0
1638177663.234375,29.67,,,1860541.0
1638177663.25,28.04,,,1862731.0
1638177663.265625,27.29,,,1865549.0
1638177663.28125,27.35,,,1868123.0
1638177663.296875,27.98,,,1871189.0
1638177663.3125,28.83,,,1868735.0
1638177663.328125,29.51,,,1861355.0
1638177663.34375,29.7,,,1854018.0
1638177663.359375,29.13,,,1849939.0
1638177663.375,27.67,,,1846825.0
1638177663.390625,25.3,,,1845173.0
1638177663.40625,22.19,,,1844997.0
1638177663.421875,18.64,,,1845067.0
1638177663.4375,15.01,,,1844766.0
1638177663.453125,11.58,,,1844227.0
1638177663.46875,8.41,,,1844568.0
1638177663.484375,5.34,,,1845903.0
1638177663.5,1.99,,,1847383.0
1638177663.515625,-2.0,,,1849680.0
1638177663.53125,-6.8,,,1851787.0
1638177663.546875,-12.23,,,1854453.0
1638177663.5625,-17.82,,,1857057.0
1638177663.578125,-23.03,,,1859540.0
1638177663.59375,-27.43,,,1862099.0
1638177663.609375,-30.97,,,1864989.0
1638177663.625,-33.98,,,1868124.0
1638177663.640625,-37.09,,,1871053.0
1638177663.65625,-40.97,,,1874295.0
1638177663.671875,-46.12,,,1877179.0
1638177663.6875,-52.59,,,1876083.0
1638177663.703125,-59.88,,,1868507.0
1638177663.71875,-66.86,,,1861141.0
1638177663.734375,-71.98,,,1855875.0
1638177663.75,-73.59,,,1851934.0
1638177663.765625,-70.47,,,1849436.0
1638177663.78125,-62.26,,,1848000.0
1638177663.796875,-49.58,,,1847575.0
1638177663.8125,-33.95,,,1847433.0
1638177663.828125,-17.3,,,1846380.0
1638177663.84375,-1.38,,,1846586.0
1638177663.859375,12.56,,,1847102.0
1638177663.875,23.95,,,1848590.0
1638177663.890625,32.7,,,1850510.0
1638177663.90625,38.99,,,1852620.0
1638177663.921875,42.99,,,1854978.0
1638177663.9375,44.88,,,1856990.0
1638177663.953125,44.86,,,1859538.0
1638177663.96875,43.29,,,1862184.0
1638177663.984375,40.73,,,1864915.0
1638177664.0,37.81,,,1867490.0
1638177664.015625,35.15,,,1870536.0
1638177664.03125,33.21,,,1873210.0
1638177664.046875,32.22,,,1876810.0
1638177664.0625,32.11,,,1879283.0
1638177664.078125,32.61,,,1874915.0
1638177664.09375,33.29,,,1867141.0
1638177664.109375,33.77,,,1861344.0
1638177664.125,33.84,,,1857722.0
1638177664.140625,33.54,,,1855373.0
1638177664.15625,33.06,,,1853576.0
1638177664.171875,32.69,,,1853572.0
1638177664.1875,32.59,,,1853462.0
1638177664.203125,32.7,,,1853156.0
1638177664.21875,32.79,,,1852833.0
1638177664.234375,32.59,,,1853209.0
1638177664.25,31.94,,,1854461.0
1638177664.265625,30.82,,,1856235.0
1638177664.28125,29.32,,,1858353.0
1638177664.296875,27.52,,,1860212.0
1638177664.3125,25.33,,,1862658.0
1638177664.328125,22.45,,,1865629.0
1638177664.34375,18.57,,,1868893.0
1638177664.359375,13.51,,,1870058.0
1638177664.375,7.34,,,1871126.0
1638177664.390625,0.5,,,1873411.0
1638177664.40625,-6.43,,,1877805.0
1638177664.421875,-12.81,,,1882923.0
1638177664.4375,-18.27,,,1883532.0
1638177664.453125,-22.79,,,1877993.0
1638177664.46875,-26.65,,,1871775.0
1638177664.484375,-30.4,,,1868005.0
1638177664.5,-34.61,,,1866191.0
1638177664.515625,-39.79,,,1864866.0
1638177664.53125,-46.08,,,1865341.0
1638177664.546875,-53.26,,,1865528.0
1638177664.5625,-60.64,,,1865079.0
1638177664.578125,-67.01,,,1864699.0
1638177664.59375,-70.84,,,1864616.0
1638177664.609375,-70.65,,,1866000.0
1638177664.625,-65.42,,,1867417.0
1638177664.640625,-55.08,,,1869644.0
1638177664.65625,-40.68,,,1871594.0
1638177664.671875,-24.09,,,1873959.0
1638177664.6875,-7.51,,,1876049.0
1638177664.703125,7.19,,,1878387.0
1638177664.71875,18.92,,,1881079.0
1638177664.734375,27.4,,,1883700.0
1638177664.75,32.9,,,1886084.0
1638177664.765625,35.92,,,1889218.0
1638177664.78125,36.91,,,1891898.0
1638177664.796875,36.16,,,1894729.0
1638177664.8125,34.04,,,1895606.0
1638177664.828125,30.98,,,1888613.0
1638177664.84375,27.55,,,1881224.0
1638177664.859375,24.28,,,1875972.0
1638177664.875,21.56,,,1872622.0
1638177664.890625,19.51,,,1869802.0
1638177664.90625,18.05,,,1868189.0
1638177664.921875,17.08,,,1867514.0
1638177664.9375,16.5,,,1866872.0
1638177664.953125,16.38,,,1865939.0
1638177664.96875,16.84,,,1865282.0
1638177664.984375,17.91,,,1865785.0
1638177665.0,19.42,,,1866767.0
1638177665.015625,20.98,,,1867993.0
1638177665.03125,22.01,,,1869939.0
1638177665.046875,22.02,,,1872067.0
1638177665.0625,20.73,,,1875603.0
1638177665.078125,18.23,,,1878037.0
1638177665.09375,14.91,,,1873628.0
1638177665.109375,11.25,,,1882958.0
1638177665.125,7.56,,,1880613.0
1638177665.140625,3.86,,,1888234.0
1638177665.15625,-0.06,,,1885146.0
1638177665.171875,-4.44,,,1890658.0
1638177665.1875,-9.36,,,1890494.0
1638177665.203125,-14.55,,,1893391.0
1638177665.21875,-19.55,,,1882368.0
1638177665.234375,-23.9,,,1875759.0
1638177665.25,-27.34,,,1871247.0
1638177665.265625,-29.96,,,1865098.0
1638177665.28125,-32.14,,,1867907.0
1638177665.296875,-34.42,,,1864535.0
1638177665.3125,-37.42,,,1863526.0
1638177665.328125,-41.65,,,1862343.0
1638177665.34375,-47.38,,,1861041.0
1638177665.359375,-54.52,,,1860395.0
1638177665.375,-62.32,,,1860964.0
1638177665.390625,-69.39,,,1861898.0
1638177665.40625,-73.91,,,1863306.0
1638177665.421875,-74.06,,,1864887.0
1638177665.4375,-68.69,,,1866618.0
1638177665.453125,-57.78,,,1868590.0
1638177665.46875,-42.51,,,1870637.0
1638177665.484375,-24.99,,,1872185.0
1638177665.5,-7.5,,,1874585.0
1638177665.515625,8.08,,,1876768.0
1638177665.53125,20.66,,,1879328.0
1638177665.546875,29.97,,,1881868.0
1638177665.5625,36.24,,,1884569.0
1638177665.578125,39.93,,,1884569.0
1638177665.59375,41.48,,,1886055.0
1638177665.609375,41.27,,,1880403.0
1638177665.625,39.66,,,1872117.0
1638177665.640625,37.09,,,1865481.0
1638177665.65625,33.95,,,1858020.0
1638177665.671875,30.64,,,1861314.0
1638177665.6875,27.45,,,1855424.0
1638177665.703125,24.62,,,1854622.0
1638177665.71875,22.32,,,1853779.0
1638177665.734375,20.71,,,1852259.0
1638177665.75,19.9,,,1851600.0
1638177665.765625,19.86,,,1851227.0
1638177665.78125,20.42,,,1851783.0
1638177665.796875,21.24,,,1853136.0
1638177665.8125,21.9,,,1856590.0
1638177665.828125,22.03,,,1854787.0
1638177665.84375,21.36,,,1858283.0
1638177665.859375,19.82,,,1860672.0
1638177665.875,17.56,,,1862549.0
1638177665.890625,14.88,,,1864871.0
1638177665.90625,12.22,,,1866714.0
1638177665.921875,9.98,,,1868687.0
1638177665.9375,8.36,,,1871231.0
1638177665.953125,7.18,,,1873130.0
1638177665.96875,5.91,,,1875375.0
1638177665.984375,3.84,,,1877516.0
1638177666.0,0.46,,,1874797.0
1638177666.015625,-4.15,,,1866685.0
1638177666.03125,-9.27,,,1860644.0
1638177666.046875,-13.76,,,1856657.0
1638177666.0625,-16.54,,,1853820.0
1638177666.078125,-17.13,,,1851574.0
1638177666.09375,-15.84,,,1849941.0
1638177666.109375,-13.6,,,1848688.0
1638177666.125,-11.68,,,1846491.0
1638177666.140625,-11.2,,,1845272.0
1638177666.15625,-12.99,,,1846146.0
1638177666.171875,-17.51,,,1847262.0
1638177666.1875,-24.89,,,1848838.0
1638177666.203125,-34.85,,,1850469.0
1638177666.21875,-46.52,,,1852353.0
1638177666.234375,-58.27,,,1854530.0
1638177666.25,-67.87,,,1856531.0
1638177666.265625,-72.95,,,1857968.0
1638177666.28125,-71.78,,,1859779.0
1638177666.296875,-63.9,,,1862406.0
1638177666.3125,-50.35,,,1864691.0
1638177666.328125,-33.29,,,1867539.0
1638177666.34375,-15.33,,,1869849.0
1638177666.359375,1.33,,,1872218.0
1638177666.375,15.33,,,1868746.0
1638177666.390625,26.28,,,1860409.0
1638177666.40625,34.39,,,1847630.0
1638177666.421875,40.08,,,1843962.0
1638177666.4375,43.71,,,1841374.0
1638177666.453125,45.51,,,1840571.0
1638177666.46875,45.77,,,1852661.0
1638177666.484375,44.91,,,1839726.0
1638177666.5,43.42,,,1838225.0
1638177666.515625,41.82,,,1837190.0
1638177666.53125,40.4,,,1837218.0
1638177666.546875,39.22,,,1837799.0
1638177666.5625,38.14,,,1838842.0
1638177666.578125,36.98,,,1842004.0
1638177666.59375,35.63,,,1847925.0
1638177666.609375,34.14,,,1846131.0
1638177666.625,32.68,,,1844093.0
1638177666.640625,31.46,,,1850196.0
1638177666.65625,30.6,,,1853235.0
1638177666.671875,30.09,,,1855976.0
1638177666.6875,29.74,,,1858392.0
1638177666.703125,29.22,,,1861543.0
1638177666.71875,28.2,,,1864265.0
1638177666.734375,26.39,,,1867208.0
1638177666.75,23.63,,,1840225.0
1638177666.765625,19.95,,,1868515.0
1638177666.78125,15.52,,,1861882.0
1638177666.796875,10.64,,,1854245.0
1638177666.8125,5.65,,,1848546.0
1638177666.828125,0.85,,,1839706.0
1638177666.84375,-3.57,,,1845026.0
1638177666.859375,-7.6,,,1839178.0
1638177666.875,-11.4,,,1837926.0
1638177666.890625,-15.23,,,1838013.0
1638177666.90625,-19.38,,,1839261.0
1638177666.921875,-23.9,,,1837676.0
1638177666.9375,-28.61,,,1838918.0
1638177666.953125,-33.13,,,1841899.0
1638177666.96875,-37.06,,,1841025.0
1638177666.984375,-40.27,,,1842773.0
1638177667.0,-43.03,,,1845276.0
1638177667.015625,-46.0,,,1847209.0
1638177667.03125,-50.07,,,1849604.0
1638177667.046875,-55.95,,,1852009.0
1638177667.0625,-63.82,,,1854489.0
1638177667.078125,-73.02,,,1857190.0
1638177667.09375,-82.07,,,1859812.0
1638177667.109375,-88.89,,,1862582.0
1638177667.125,-91.41,,,1865386.0
1638177667.140625,-88.17,,,1868652.0
1638177667.15625,-78.74,,,1870648.0
1638177667.171875,-63.89,,,1866898.0
1638177667.1875,-45.32,,,1859167.0
1638177667.203125,-25.22,,,1852687.0
1638177667.21875,-5.64,,,1848565.0
1638177667.234375,11.91,,,1845790.0
1638177667.25,26.63,,,1843824.0
1638177667.265625,38.35,,,1843173.0
1638177667.28125,47.29,,,1842601.0
1638177667.296875,53.76,,,1841284.0
1638177667.3125,58.05,,,1839839.0
1638177667.328125,60.36,,,1840113.0
1638177667.34375,60.91,,,1840682.0
1638177667.359375,60.04,,,1841662.0
1638177667.375,58.21,,,1843046.0
1638177667.390625,55.96,,,1844485.0
1638177667.40625,53.77,,,1846539.0
1638177667.421875,51.98,,,1848051.0
1638177667.4375,50.67,,,1849944.0
1638177667.453125,49.79,,,1851833.0
1638177667.46875,49.22,,,1853550.0
1638177667.484375,48.88,,,1855985.0
1638177667.5,48.71,,,1858053.0
1638177667.515625,48.68,,,1860447.0
1638177667.53125,48.67,,,1862823.0
1638177667.546875,48.43,,,1865042.0
1638177667.5625,47.67,,,1861220.0
1638177667.578125,46.1,,,1853007.0
1638177667.59375,43.55,,,1845970.0
1638177667.609375,40.0,,,1841073.0
1638177667.625,35.64,,,1837455.0
1638177667.640625,30.83,,,1834602.0
1638177667.65625,25.93,,,1833280.0
1638177667.671875,21.27,,,1832856.0
1638177667.6875,16.96,,,1831751.0
1638177667.703125,12.88,,,1831068.0
1638177667.71875,8.74,,,1830896.0
1638177667.734375,4.22,,,1832271.0
1638177667.75,-0.77,,,1833609.0
1638177667.765625,-6.09,,,1835586.0
1638177667.78125,-11.28,,,1837904.0
1638177667.796875,-15.84,,,1840101.0
1638177667.8125,-19.48,,,1842704.0
1638177667.828125,-22.32,,,1844916.0
1638177667.84375,-24.98,,,1847481.0
1638177667.859375,-28.38,,,1850381.0
1638177667.875,-33.39,,,1853361.0
1638177667.890625,-40.53,,,1855945.0
1638177667.90625,-49.76,,,1859528.0
1638177667.921875,-60.39,,,1862502.0
1638177667.9375,-71.19,,,1865786.0
1638177667.953125,-80.56,,,1866757.0
1638177667.96875,-86.76,,,1860060.0
1638177667.984375,-88.24,,,1852915.0
1638177668.0,-84.03,,,1848636.0
1638177668.015625,-73.99,,,1845464.0
1638177668.03125,-59.06,,,1843161.0
1638177668.046875,-41.02,,,1842015.0
1638177668.0625,-22.13,,,1841483.0
1638177668.078125,-4.49,,,1840723.0
1638177668.09375,10.41,,,1839836.0
1638177668.109375,22.0,,,1839351.0
1638177668.125,30.46,,,1839524.0
1638177668.140625,36.36,,,1840720.0
1638177668.15625,40.28,,,1842201.0
1638177668.171875,42.56,,,1843832.0
1638177668.1875,43.28,,,1845783.0
1638177668.203125,42.52,,,1847650.0
1638177668.21875,40.48,,,1849404.0
1638177668.234375,37.64,,,1851597.0
1638177668.25,34.71,,,1853784.0
1638177668.265625,32.4,,,1856116.0
1638177668.28125,31.16,,,1858614.0
1638177668.296875,31.09,,,1861503.0
1638177668.3125,31.86,,,1864295.0
1638177668.328125,32.94,,,1864203.0
1638177668.34375,33.88,,,1857601.0
1638177668.359375,34.46,,,1850302.0
1638177668.375,34.71,,,1845699.0
1638177668.390625,34.76,,,1842161.0
1638177668.40625,34.67,,,1839535.0
1638177668.421875,34.23,,,1838546.0
1638177668.4375,33.12,,,1838368.0
1638177668.453125,31.03,,,1837362.0
1638177668.46875,27.84,,,1836675.0
1638177668.484375,23.71,,,1836403.0
1638177668.5,19.04,,,1837126.0
1638177668.515625,14.29,,,1838090.0
1638177668.53125,9.8,,,1840034.0
1638177668.546875,5.68,,,1841904.0
1638177668.5625,1.81,,,1844026.0
1638177668.578125,-2.0,,,1846030.0
1638177668.59375,-6.02,,,1848344.0
1638177668.609375,-10.39,,,1850705.0
1638177668.625,-15.13,,,1853537.0
1638177668.640625,-20.11,,,1856163.0
1638177668.65625,-25.11,,,1859399.0
1638177668.671875,-29.84,,,1862316.0
1638177668.6875,-34.15,,,1865952.0
1638177668.703125,-38.0,,,1870926.0
1638177668.71875,-41.54,,,1870360.0
1638177668.734375,-45.09,,,1860895.0
1638177668.75,-49.09,,,1852705.0
1638177668.765625,-54.08,,,1847371.0
1638177668.78125,-60.48,,,1844567.0
1638177668.796875,-68.4,,,1844252.0
1638177668.8125,-77.3,,,1844748.0
1638177668.828125,-85.93,,,1845623.0
1638177668.84375,-92.39,,,1845690.0
1638177668.859375,-94.69,,,1845080.0
1638177668.875,-91.34,,,1845871.0
1638177668.890625,-81.95,,,1846948.0
1638177668.90625,-67.34,,,1848249.0
1638177668.921875,-49.34,,,1850410.0
1638177668.9375,-30.12,,,1852118.0
1638177668.953125,-11.63,,,1854094.0
1638177668.96875,4.89,,,1856673.0
1638177668.984375,18.9,,,1858496.0
1638177669.0,30.36,,,1861272.0
1638177669.015625,39.46,,,1863546.0
1638177669.03125,46.4,,,1866145.0
1638177669.046875,51.35,,,1868631.0
1638177669.0625,54.48,,,1871541.0
1638177669.078125,56.03,,,1874390.0
1638177669.09375,56.27,,,1877202.0
1638177669.109375,55.6,,,1876272.0
1638177669.125,54.43,,,1868622.0
1638177669.140625,53.16,,,1861645.0
1638177669.15625,52.08,,,1856655.0
1638177669.171875,51.34,,,1852943.0
1638177669.1875,50.92,,,1850439.0
1638177669.203125,50.67,,,1849040.0
1638177669.21875,50.42,,,1848262.0
1638177669.234375,50.06,,,1846839.0
1638177669.25,49.58,,,1845073.0
1638177669.265625,49.04,,,1844459.0
1638177669.28125,48.47,,,1844931.0
1638177669.296875,47.76,,,1845543.0
1638177669.3125,46.63,,,1846763.0
1638177669.328125,44.75,,,1848052.0
1638177669.34375,41.87,,,1849706.0
1638177669.359375,37.94,,,1851345.0
1638177669.375,33.16,,,1853192.0
1638177669.390625,27.89,,,1855267.0
1638177669.40625,22.57,,,1857026.0
1638177669.421875,17.5,,,1859471.0
1638177669.4375,12.82,,,1861688.0
1638177669.453125,8.46,,,1864594.0
1638177669.46875,4.25,,,1864594.0
1638177669.484375,-0.03,,,1866746.0
1638177669.5,-4.53,,,1863410.0
1638177669.515625,-9.3,,,1855405.0
1638177669.53125,-14.29,,,1848912.0
1638177669.546875,-19.38,,,1844556.0
1638177669.5625,-24.45,,,1841055.0
1638177669.578125,-29.39,,,1838877.0
1638177669.59375,-34.09,,,1838304.0
1638177669.609375,-38.54,,,1837516.0
1638177669.625,-42.81,,,1836628.0
1638177669.640625,-47.16,,,1835965.0
1638177669.65625,-52.0,,,1835898.0
1638177669.671875,-57.86,,,1836942.0
1638177669.6875,-65.12,,,1838042.0
1638177669.703125,-73.67,,,1839931.0
1638177669.71875,-82.64,,,1841393.0
1638177669.734375,-90.35,,,1843960.0
1638177669.75,-94.62,,,1845872.0
1638177669.765625,-93.45,,,1847918.0
1638177669.78125,-85.77,,,1850515.0
1638177669.796875,-71.89,,,1852850.0
1638177669.8125,-53.54,,,1855387.0
1638177669.828125,-33.26,,,1858117.0
1638177669.84375,-13.57,,,1861237.0
1638177669.859375,3.77,,,1863908.0
1638177669.875,18.09,,,1866877.0
1638177669.890625,29.6,,,1864347.0
1638177669.90625,38.86,,,1857001.0
1638177669.921875,46.31,,,1850203.0
1638177669.9375,52.02,,,1845214.0
1638177669.953125,55.87,,,1841097.0
1638177669.96875,57.78,,,1837869.0
1638177669.984375,57.99,,,1836111.0
1638177670.0,57.0,,,1835289.0
1638177670.015625,55.44,,,1834428.0
1638177670.03125,53.84,,,1833409.0
1638177670.046875,52.45,,,1833487.0
1638177670.0625,51.32,,,1834031.0
1638177670.078125,50.38,,,1835450.0
1638177670.09375,49.59,,,1837335.0
1638177670.109375,48.93,,,1839258.0
1638177670.125,48.43,,,1841262.0
1638177670.140625,48.02,,,1843378.0
1638177670.15625,47.54,,,1846084.0
1638177670.171875,46.78,,,1848624.0
1638177670.1875,45.52,,,1851257.0
1638177670.203125,43.68,,,1854135.0
1638177670.21875,41.26,,,1856797.0
1638177670.234375,38.36,,,1859761.0
1638177670.25,35.05,,,1863121.0
1638177670.265625,31.41,,,1866178.0
1638177670.28125,27.42,,,1868361.0
1638177670.296875,23.1,,,1863598.0
1638177670.3125,18.56,,,1856300.0
1638177670.328125,13.98,,,1850783.0
1638177670.34375,9.56,,,1847541.0
1638177670.359375,5.42,,,1844662.0
1638177670.375,1.5,,,1842557.0
1638177670.390625,-2.44,,,1842198.0
1638177670.40625,-6.71,,,1841569.0
1638177670.421875,-11.49,,,1840417.0
1638177670.4375,-16.74,,,1840144.0
1638177670.453125,-22.19,,,1840965.0
1638177670.46875,-27.45,,,1843111.0
1638177670.484375,-32.19,,,1844888.0
1638177670.5,-36.29,,,1846363.0
1638177670.515625,-39.9,,,1848277.0
1638177670.53125,-43.39,,,1850995.0
1638177670.546875,-47.29,,,1854066.0
1638177670.5625,-52.18,,,1856903.0
1638177670.578125,-58.57,,,1859616.0
1638177670.59375,-66.6,,,1862119.0
1638177670.609375,-75.78,,,1864521.0
1638177670.625,-84.75,,,1866747.0
1638177670.640625,-91.47,,,1869345.0
1638177670.65625,-93.68,,,1871868.0
1638177670.671875,-89.68,,,1871212.0
1638177670.6875,-79.02,,,1864339.0
1638177670.703125,-62.74,,,1856947.0
1638177670.71875,-43.06,,,1851484.0
1638177670.734375,-22.6,,,1847745.0
1638177670.75,-3.61,,,1844354.0
1638177670.765625,12.64,,,1842791.0
1638177670.78125,25.81,,,1841967.0
1638177670.796875,36.13,,,1840766.0
1638177670.8125,43.98,,,1839680.0
1638177670.828125,49.57,,,1838655.0
1638177670.84375,52.97,,,1838967.0
1638177670.859375,54.27,,,1839413.0
1638177670.875,53.77,,,1840788.0
1638177670.890625,52.01,,,1842216.0
1638177670.90625,49.61,,,1843885.0
1638177670.921875,47.13,,,1845767.0
1638177670.9375,44.89,,,1847451.0
1638177670.953125,43.0,,,1849310.0
1638177670.96875,41.45,,,1851269.0
1638177670.984375,40.24,,,1853836.0
1638177671.0,39.46,,,1856209.0
1638177671.015625,39.22,,,1858873.0
1638177671.03125,39.56,,,1861245.0
1638177671.046875,40.31,,,1864271.0
1638177671.0625,41.12,,,1866939.0
1638177671.078125,41.46,,,1865036.0
1638177671.09375,40.89,,,1857781.0
1638177671.109375,39.12,,,1850588.0
1638177671.125,36.15,,,1845523.0
1638177671.140625,32.16,,,1841935.0
1638177671.15625,27.47,,,1838248.0
1638177671.171875,22.36,,,1835944.0
1638177671.1875,17.05,,,1834891.0
1638177671.203125,11.76,,,1833806.0
1638177671.21875,6.68,,,1834136.0
1638177671.234375,2.05,,,1834793.0
1638177671.25,-1.99,,,1835992.0
1638177671.265625,-5.52,,,1837459.0
1638177671.28125,-8.86,,,1839804.0
1638177671.296875,-12.54,,,1842100.0
1638177671.3125,-17.0,,,1844966.0
1638177671.328125,-22.4,,,1847042.0
1638177671.34375,-28.46,,,1849511.0
1638177671.359375,-34.53,,,1851858.0
1638177671.375,-39.9,,,1854609.0
1638177671.390625,-44.15,,,1856689.0
1638177671.40625,-47.34,,,1859110.0
1638177671.421875,-50.11,,,1861965.0
1638177671.4375,-53.47,,,1864516.0
1638177671.453125,-58.37,,,1867541.0
1638177671.46875,-65.38,,,1870003.0
1638177671.484375,-74.22,,,1866701.0
1638177671.5,-83.7,,,1859594.0
1638177671.515625,-91.88,,,1853286.0
1638177671.53125,-96.46,,,1849136.0
1638177671.546875,-95.48,,,1846263.0
1638177671.5625,-87.82,,,1844177.0
1638177671.578125,-73.67,,,1843386.0
1638177671.59375,-54.48,,,1842837.0
1638177671.609375,-32.68,,,1841377.0
1638177671.625,-11.03,,,1840534.0
1638177671.640625,8.01,,,1840235.0
1638177671.65625,22.81,,,1841014.0
1638177671.671875,32.82,,,1842221.0
1638177671.6875,38.51,,,1843893.0
1638177671.703125,41.21,,,1845385.0
1638177671.71875,42.61,,,1847287.0
1638177671.734375,44.26,,,1848967.0
1638177671.75,47.18,,,1851250.0
1638177671.765625,51.53,,,1853155.0
1638177671.78125,56.72,,,1855503.0
1638177671.796875,61.71,,,1857452.0
1638177671.8125,65.51,,,1860192.0
1638177671.828125,67.53,,,1862180.0
1638177671.84375,67.73,,,1864906.0
1638177671.859375,66.48,,,1863702.0
1638177671.875,64.3,,,1856412.0
1638177671.890625,61.57,,,1849162.0
1638177671.90625,58.52,,,1843917.0
1638177671.921875,55.23,,,1843917.0
1638177671.9375,51.82,,,1840617.0
1638177671.953125,48.45,,,1837790.0
1638177671.96875,45.3,,,1836486.0
1638177671.984375,42.4,,,1836448.0
1638177672.0,39.56,,,1835722.0
1638177672.015625,36.44,,,1835228.0
1638177672.03125,32.67,,,1834657.0
1638177672.046875,28.04,,,1835702.0
1638177672.0625,22.64,,,1838042.0
1638177672.078125,16.84,,,1841341.0
1638177672.09375,11.15,,,1843803.0
1638177672.109375,6.0,,,1846779.0
1638177672.125,1.6,,,1849633.0
1638177672.140625,-2.23,,,1852448.0
1638177672.15625,-5.91,,,1855322.0
1638177672.171875,-9.89,,,1858206.0
1638177672.1875,-14.45,,,1861062.0
1638177672.203125,-19.55,,,1863642.0
1638177672.21875,-24.83,,,1866761.0
1638177672.234375,-29.81,,,1869363.0
1638177672.25,-34.13,,,1872775.0
1638177672.265625,-37.7,,,1874978.0
1638177672.28125,-40.76,,,1869326.0
1638177672.296875,-43.76,,,1860860.0
1638177672.3125,-47.23,,,1853611.0
1638177672.328125,-51.66,,,1848124.0
1638177672.34375,-57.43,,,1843328.0
1638177672.359375,-64.68,,,1839275.0
1638177672.375,-73.24,,,1837086.0
1638177672.390625,-82.39,,,1834994.0
1638177672.40625,-90.82,,,1832842.0
1638177672.421875,-96.68,,,1830831.0
1638177672.4375,-98.1,,,1829874.0
1638177672.453125,-93.71,,,1829935.0
1638177672.46875,-83.2,,,1830320.0
1638177672.484375,-67.5,,,1831061.0
1638177672.5,-48.56,,,1832325.0
1638177672.515625,-28.69,,,1833823.0
1638177672.53125,-9.99,,,1834967.0
1638177672.546875,6.16,,,1836736.0
1638177672.5625,19.23,,,1838271.0
1638177672.578125,29.29,,,1839908.0
1638177672.59375,36.69,,,1841660.0
1638177672.609375,41.76,,,1843869.0
1638177672.625,44.79,,,1846362.0
1638177672.640625,46.0,,,1848748.0
1638177672.65625,45.76,,,1850461.0
1638177672.671875,44.52,,,1845303.0
1638177672.6875,42.83,,,1836401.0
1638177672.703125,41.15,,,1829252.0
1638177672.71875,39.8,,,1823741.0
1638177672.734375,38.9,,,1818971.0
1638177672.75,38.43,,,1817087.0
1638177672.765625,38.27,,,1818211.0
1638177672.78125,38.35,,,1819914.0
1638177672.796875,38.58,,,1820046.0
1638177672.8125,38.91,,,1820156.0
1638177672.828125,39.28,,,1821567.0
1638177672.84375,39.58,,,1823218.0
1638177672.859375,39.69,,,1824767.0
1638177672.875,39.43,,,1826586.0
1638177672.890625,38.57,,,1829044.0
1638177672.90625,36.87,,,1831211.0
1638177672.921875,34.05,,,1833692.0
1638177672.9375,30.0,,,1836637.0
1638177672.953125,24.86,,,1839523.0
1638177672.96875,19.09,,,1842297.0
1638177672.984375,13.35,,,1845263.0
1638177673.0,8.25,,,1848116.0
1638177673.015625,4.06,,,1850688.0
1638177673.03125,0.58,,,1853185.0
1638177673.046875,-2.75,,,1849817.0
1638177673.0625,-6.55,,,1842140.0
1638177673.078125,-11.16,,,1835424.0
1638177673.09375,-16.49,,,1830444.0
1638177673.109375,-22.1,,,1826901.0
1638177673.125,-27.43,,,1824172.0
1638177673.140625,-32.12,,,1823463.0
1638177673.15625,-36.12,,,1822439.0
1638177673.171875,-39.74,,,1820635.0
1638177673.1875,-43.44,,,1819399.0
1638177673.203125,-47.74,,,1818965.0
1638177673.21875,-53.01,,,1819188.0
1638177673.234375,-59.48,,,1819971.0
1638177673.25,-67.12,,,1821435.0
1638177673.265625,-75.53,,,1822763.0
1638177673.28125,-83.85,,,1824309.0
1638177673.296875,-90.68,,,1825708.0
1638177673.3125,-94.28,,,1827337.0
1638177673.328125,-93.01,,,1829339.0
1638177673.34375,-85.82,,,1831087.0
1638177673.359375,-72.74,,,1833249.0
1638177673.375,-54.99,,,1835550.0
1638177673.390625,-34.66,,,1840236.0
1638177673.40625,-14.16,,,1837977.0
1638177673.421875,4.45,,,1830525.0
1638177673.4375,19.94,,,1838272.0
1638177673.453125,31.96,,,1822605.0
1638177673.46875,40.86,,,1817217.0
1638177673.484375,47.22,,,1811989.0
1638177673.5,51.57,,,1807988.0
1638177673.515625,54.18,,,1805328.0
1638177673.53125,55.19,,,1804383.0
1638177673.546875,54.79,,,1803070.0
1638177673.5625,53.35,,,1802047.0
1638177673.578125,51.4,,,1802228.0
1638177673.59375,49.5,,,1803432.0
1638177673.609375,48.07,,,1805185.0
1638177673.625,47.21,,,1807308.0
1638177673.640625,46.74,,,1808757.0
1638177673.65625,46.34,,,1810766.0
1638177673.671875,45.79,,,1813010.0
1638177673.6875,45.06,,,1815996.0
1638177673.703125,44.3,,,1818793.0
1638177673.71875,43.7,,,1821780.0
1638177673.734375,43.28,,,1825191.0
1638177673.75,42.81,,,1828338.0
1638177673.765625,41.89,,,1831477.0
1638177673.78125,40.11,,,1834708.0
1638177673.796875,37.26,,,1838030.0
1638177673.8125,33.42,,,1839714.0
1638177673.828125,28.89,,,1833914.0
1638177673.84375,24.09,,,1826875.0
1638177673.859375,19.37,,,1820832.0
1638177673.875,14.94,,,1816859.0
1638177673.890625,10.75,,,1812236.0
1638177673.90625,6.61,,,1809063.0
1638177673.921875,2.25,,,1807911.0
1638177673.9375,-2.56,,,1807911.0
1638177673.953125,-7.95,,,1806825.0
1638177673.96875,-13.8,,,1806000.0
1638177673.984375,-19.75,,,1804970.0
1638177674.0,-25.32,,,1805247.0
1638177674.015625,-30.03,,,1806236.0
1638177674.03125,-33.63,,,1807746.0
1638177674.046875,-36.33,,,1809542.0
1638177674.0625,-38.69,,,1811113.0
1638177674.078125,-41.57,,,1813239.0
1638177674.09375,-45.83,,,1815393.0
1638177674.109375,-51.99,,,1817217.0
1638177674.125,-60.01,,,1819621.0
1638177674.140625,-69.17,,,1822136.0
1638177674.15625,-78.11,,,1824620.0
1638177674.171875,-84.99,,,1827562.0
1638177674.1875,-87.96,,,1830485.0
1638177674.203125,-85.56,,,1833277.0
1638177674.21875,-77.18,,,1835169.0
1638177674.234375,-63.28,,,1831371.0
1638177674.25,-45.38,,,1824815.0
1638177674.265625,-25.64,,,1819521.0
1638177674.28125,-6.37,,,1815564.0
1638177674.296875,10.54,,,1812786.0
1638177674.3125,23.93,,,1810566.0
1638177674.328125,33.47,,,1809991.0
1638177674.34375,39.53,,,1809042.0
1638177674.359375,42.86,,,1808108.0
1638177674.375,44.28,,,1807679.0
1638177674.390625,44.48,,,1808282.0
1638177674.40625,43.89,,,1809933.0
1638177674.421875,42.78,,,1811369.0
1638177674.4375,41.29,,,1812793.0
1638177674.453125,39.6,,,1814439.0
1638177674.46875,37.92,,,1816307.0
1638177674.484375,36.45,,,1818565.0
1638177674.5,35.36,,,1821015.0
1638177674.515625,34.65,,,1823475.0
1638177674.53125,34.26,,,1826164.0
1638177674.546875,34.05,,,1828804.0
1638177674.5625,34.01,,,1831687.0
1638177674.578125,34.11,,,1834664.0
1638177674.59375,34.42,,,1837842.0
1638177674.609375,34.84,,,1839930.0
1638177674.625,35.08,,,1835827.0
1638177674.640625,34.65,,,1829629.0
1638177674.65625,32.99,,,1824564.0
1638177674.671875,29.74,,,1821136.0
1638177674.6875,24.89,,,1818028.0
1638177674.703125,18.91,,,1816063.0
1638177674.71875,12.58,,,1816043.0
1638177674.734375,6.71,,,1815986.0
1638177674.75,1.77,,,1815484.0
1638177674.765625,-2.29,,,1815432.0
1638177674.78125,-6.04,,,1816184.0
1638177674.796875,-10.25,,,1818173.0
1638177674.8125,-15.46,,,1819702.0
1638177674.828125,-21.72,,,1821827.0
1638177674.84375,-28.49,,,1823827.0
1638177674.859375,-34.9,,,1826263.0
1638177674.875,-40.2,,,1828832.0
1638177674.890625,-44.08,,,1831258.0
1638177674.90625,-46.88,,,1833990.0
1638177674.921875,-49.46,,,1836507.0
1638177674.9375,-52.96,,,1839805.0
1638177674.953125,-58.31,,,1842545.0
1638177674.96875,-65.95,,,1845450.0
1638177674.984375,-75.52,,,1848519.0
1638177675.0,-85.69,,,1851589.0
1638177675.015625,-94.5,,,1853579.0
1638177675.03125,-99.63,,,1849694.0
1638177675.046875,-99.13,,,1842865.0
1638177675.0625,-92.0,,,1838517.0
1638177675.078125,-78.57,,,1835233.0
1638177675.09375,-60.45,,,1832024.0
1638177675.109375,-40.05,,,1830023.0
1638177675.125,-19.85,,,1829689.0
1638177675.140625,-1.76,,,1829497.0
1638177675.15625,13.29,,,1828737.0
1638177675.171875,25.21,,,1828755.0
1638177675.1875,34.51,,,1829468.0
1638177675.203125,41.81,,,1830757.0
1638177675.21875,47.59,,,1832318.0
1638177675.234375,52.07,,,1834208.0
1638177675.25,55.19,,,1836354.0
1638177675.265625,56.72,,,1838196.0
1638177675.28125,56.47,,,1840465.0
1638177675.296875,54.38,,,1842554.0
1638177675.3125,50.75,,,1844997.0
1638177675.328125,46.36,,,1847773.0
1638177675.34375,42.38,,,1850635.0
1638177675.359375,40.1,,,1853376.0
1638177675.375,40.48,,,1856016.0
1638177675.390625,43.78,,,1858789.0
1638177675.40625,49.39,,,1861917.0
1638177675.421875,56.11,,,1864670.0
1638177675.4375,62.46,,,1862311.0
1638177675.453125,67.17,,,1855990.0
1638177675.46875,69.41,,,1850654.0
1638177675.484375,68.8,,,1847599.0
1638177675.5,65.38,,,1844918.0
1638177675.515625,59.44,,,1842869.0
1638177675.53125,51.45,,,1842346.0
1638177675.546875,42.16,,,1841734.0
1638177675.5625,32.42,,,1841366.0
1638177675.578125,23.16,,,1840513.0
1638177675.59375,15.06,,,1840631.0
1638177675.609375,8.36,,,1841302.0
1638177675.625,2.82,,,1842518.0
1638177675.640625,-2.17,,,1843978.0
1638177675.65625,-7.24,,,1845807.0
1638177675.671875,-12.87,,,1847338.0
1638177675.6875,-19.15,,,1849278.0
1638177675.703125,-25.84,,,1851051.0
1638177675.71875,-32.44,,,1853306.0
1638177675.734375,-38.48,,,1855681.0
1638177675.75,-43.64,,,1857696.0
1638177675.765625,-47.96,,,1860233.0
1638177675.78125,-51.83,,,1863031.0
1638177675.796875,-55.92,,,1865533.0
1638177675.8125,-61.04,,,1864898.0
1638177675.828125,-67.79,,,1858527.0
1638177675.84375,-76.21,,,1851737.0
1638177675.859375,-85.43,,,1847458.0
1638177675.875,-93.7,,,1844104.0
1638177675.890625,-98.68,,,1841311.0
1638177675.90625,-98.22,,,1840124.0
1638177675.921875,-91.11,,,1839678.0
1638177675.9375,-77.64,,,1838838.0
1638177675.953125,-59.52,,,1837447.0
1638177675.96875,-39.29,,,1837227.0
1638177675.984375,-19.53,,,1837373.0
1638177676.0,-2.08,,,1838580.0
1638177676.015625,12.22,,,1839368.0
1638177676.03125,23.37,,,1841370.0
1638177676.046875,31.76,,,1842946.0
1638177676.0625,37.79,,,1844916.0
1638177676.078125,41.67,,,1846753.0
1638177676.09375,43.56,,,1848630.0
1638177676.109375,43.65,,,1850484.0
1638177676.125,42.39,,,1853119.0
1638177676.140625,40.34,,,1855342.0
1638177676.15625,38.15,,,1857622.0
1638177676.171875,36.27,,,1860599.0
1638177676.1875,34.86,,,1863065.0
1638177676.203125,33.88,,,1862503.0
1638177676.21875,33.16,,,1854799.0
1638177676.234375,32.57,,,1847177.0
1638177676.25,32.18,,,1841684.0
1638177676.265625,32.19,,,1836964.0
1638177676.28125,32.78,,,1832881.0
1638177676.296875,33.91,,,1830170.0
1638177676.3125,35.22,,,1829078.0
1638177676.328125,36.08,,,1827429.0
1638177676.34375,35.8,,,1825713.0
1638177676.359375,33.92,,,1824946.0
1638177676.375,30.39,,,1824561.0
1638177676.390625,25.59,,,1824969.0
1638177676.40625,20.16,,,1826126.0
1638177676.421875,14.68,,,1827187.0
1638177676.4375,9.51,,,1828778.0
1638177676.453125,4.68,,,1830410.0
1638177676.46875,0.01,,,1832234.0
1638177676.484375,-4.75,,,1834300.0
1638177676.5,-9.71,,,1836553.0
1638177676.515625,-14.74,,,1838511.0
1638177676.53125,-19.58,,,1840664.0
1638177676.546875,-23.98,,,1843409.0
1638177676.5625,-27.85,,,1846834.0
1638177676.578125,-31.39,,,1851745.0
1638177676.59375,-35.0,,,1855625.0
1638177676.609375,-39.18,,,1851220.0
1638177676.625,-44.37,,,1844038.0
1638177676.640625,-50.87,,,1838900.0
1638177676.65625,-58.65,,,1835566.0
1638177676.671875,-67.3,,,1832257.0
1638177676.6875,-75.88,,,1830127.0
1638177676.703125,-82.91,,,1830056.0
1638177676.71875,-86.58,,,1829013.0
1638177676.734375,-85.24,,,1827797.0
1638177676.75,-77.95,,,1826045.0
1638177676.765625,-64.88,,,1826025.0
1638177676.78125,-47.45,,,1826087.0
1638177676.796875,-27.88,,,1826898.0
1638177676.8125,-8.48,,,1828353.0
1638177676.828125,8.89,,,1829916.0
1638177676.84375,23.27,,,1831133.0
1638177676.859375,34.48,,,1832143.0
1638177676.875,42.8,,,1834171.0
1638177676.890625,48.59,,,1835796.0
1638177676.90625,52.15,,,1837361.0
1638177676.921875,53.68,,,1839872.0
1638177676.9375,53.38,,,1842112.0
1638177676.953125,51.59,,,1844732.0
1638177676.96875,48.74,,,1846009.0
1638177676.984375,45.47,,,1840320.0
1638177677.0,42.35,,,1832221.0
1638177677.015625,39.93,,,1825962.0
1638177677.03125,38.54,,,1821808.0
1638177677.046875,38.26,,,1818334.0
1638177677.0625,38.88,,,1816221.0
1638177677.078125,40.01,,,1815322.0
1638177677.09375,41.2,,,1813873.0
1638177677.109375,42.02,,,1812357.0
1638177677.125,42.22,,,1811270.0
1638177677.140625,41.66,,,1811304.0
1638177677.15625,40.26,,,1811705.0
1638177677.171875,38.06,,,1812724.0
1638177677.1875,35.14,,,1814452.0
1638177677.203125,31.64,,,1815786.0
1638177677.21875,27.76,,,1817493.0
1638177677.234375,23.63,,,1819461.0
1638177677.25,19.26,,,1821702.0
1638177677.265625,14.43,,,1823506.0
1638177677.28125,8.79,,,1825997.0
1638177677.296875,2.0,,,1828949.0
1638177677.3125,-5.99,,,1833059.0
1638177677.328125,-14.86,,,1837911.0
1638177677.34375,-23.83,,,1842177.0
1638177677.359375,-31.9,,,1841221.0
1638177677.375,-38.1,,,1833457.0
1638177677.390625,-41.88,,,1826643.0
1638177677.40625,-43.35,,,1821881.0
1638177677.421875,-43.34,,,1817837.0
1638177677.4375,-43.23,,,1814931.0
1638177677.453125,-44.54,,,1813090.0
1638177677.46875,-48.53,,,1812421.0
1638177677.484375,-55.75,,,1812143.0
1638177677.5,-65.87,,,1811184.0
1638177677.515625,-77.55,,,1810998.0
1638177677.53125,-88.73,,,1811494.0
1638177677.546875,-96.96,,,1812457.0
1638177677.5625,-99.97,,,1813761.0
1638177677.578125,-96.29,,,1815326.0
1638177677.59375,-85.65,,,1816887.0
1638177677.609375,-69.17,,,1818863.0
1638177677.625,-49.05,,,1820915.0
1638177677.640625,-27.9,,,1823328.0
1638177677.65625,-8.06,,,1825311.0
1638177677.671875,9.01,,,1827896.0
1638177677.6875,22.78,,,1830294.0
1638177677.703125,33.46,,,1833332.0
1638177677.71875,41.53,,,1836328.0
1638177677.734375,47.4,,,1839058.0
1638177677.75,51.28,,,1839058.0
1638177677.765625,53.34,,,1837107.0
1638177677.78125,53.89,,,1829568.0
1638177677.796875,53.37,,,1822153.0
1638177677.8125,52.35,,,1817237.0
1638177677.828125,51.25,,,1812941.0
1638177677.84375,50.27,,,1809320.0
1638177677.859375,49.34,,,1807558.0
1638177677.875,48.29,,,1806571.0
1638177677.890625,47.09,,,1805688.0
1638177677.90625,45.83,,,1804575.0
1638177677.921875,44.77,,,1803982.0
1638177677.9375,44.13,,,1804238.0
1638177677.953125,43.91,,,1804863.0
1638177677.96875,43.84,,,1806763.0
1638177677.984375,43.48,,,1810097.0
1638177678.0,42.38,,,1813598.0
1638177678.015625,40.27,,,1817127.0
1638177678.03125,37.12,,,1820733.0
1638177678.046875,33.13,,,1824029.0
1638177678.0625,28.56,,,1827368.0
1638177678.078125,23.66,,,1830377.0
1638177678.09375,18.68,,,1833987.0
1638177678.109375,13.8,,,1837185.0
1638177678.125,9.22,,,1839963.0
1638177678.140625,4.99,,,1837544.0
1638177678.15625,0.99,,,1830444.0
1638177678.171875,-3.09,,,1825149.0
1638177678.1875,-7.62,,,1821586.0
1638177678.203125,-12.84,,,1818686.0
1638177678.21875,-18.66,,,1816757.0
1638177678.234375,-24.68,,,1816516.0
1638177678.25,-30.32,,,1816061.0
1638177678.265625,-35.16,,,1814781.0
1638177678.28125,-39.15,,,1814068.0
1638177678.296875,-42.76,,,1814039.0
1638177678.3125,-46.75,,,1814925.0
1638177678.328125,-51.99,,,1816431.0
1638177678.34375,-59.06,,,1817770.0
1638177678.359375,-68.02,,,1819680.0
1638177678.375,-78.27,,,1821198.0
1638177678.390625,-88.49,,,1822950.0
1638177678.40625,-96.87,,,1824822.0
1638177678.421875,-101.41,,,1826615.0
1638177678.4375,-100.47,,,1828986.0
1638177678.453125,-93.23,,,1831269.0
1638177678.46875,-80.01,,,1833578.0
1638177678.484375,-62.22,,,1836154.0
1638177678.5,-41.98,,,1838706.0
1638177678.515625,-21.52,,,1835647.0
1638177678.53125,-2.63,,,1827949.0
1638177678.546875,13.61,,,1821064.0
1638177678.5625,26.95,,,1815996.0
1638177678.578125,37.6,,,1811732.0
1638177678.59375,45.98,,,1808207.0
1638177678.609375,52.41,,,1806352.0
1638177678.625,57.04,,,1805163.0
1638177678.640625,59.93,,,1803988.0
1638177678.65625,61.12,,,1802667.0
1638177678.671875,60.83,,,1802720.0
1638177678.6875,59.45,,,1803161.0
1638177678.703125,57.52,,,1804006.0
1638177678.71875,55.56,,,1805947.0
1638177678.734375,53.9,,,1807443.0
1638177678.75,52.61,,,1809215.0
1638177678.765625,51.56,,,1810716.0
1638177678.78125,50.51,,,1812813.0
1638177678.796875,49.34,,,1815051.0
1638177678.8125,48.14,,,1817800.0
1638177678.828125,47.06,,,1820427.0
1638177678.84375,46.22,,,1823492.0
1638177678.859375,45.47,,,1826304.0
1638177678.875,44.39,,,1829558.0
1638177678.890625,42.42,,,1832058.0
1638177678.90625,39.16,,,1828355.0
1638177678.921875,34.54,,,1821545.0
1638177678.9375,28.93,,,1815012.0
1638177678.953125,22.97,,,1810696.0
1638177678.96875,17.29,,,1807073.0
1638177678.984375,12.31,,,1803838.0
1638177679.0,8.0,,,1803036.0
1638177679.015625,4.01,,,1802295.0
1638177679.03125,-0.21,,,1801585.0
1638177679.046875,-5.11,,,1800768.0
1638177679.0625,-10.85,,,1801383.0
1638177679.078125,-17.24,,,1802005.0
1638177679.09375,-23.75,,,1803556.0
1638177679.109375,-29.74,,,1805616.0
1638177679.125,-34.73,,,1807626.0
1638177679.140625,-38.51,,,1809735.0
1638177679.15625,-41.29,,,1809735.0
1638177679.171875,-43.7,,,1811854.0
1638177679.1875,-46.58,,,1814031.0
1638177679.203125,-50.88,,,1816809.0
1638177679.21875,-57.35,,,1819449.0
1638177679.234375,-66.25,,,1822033.0
1638177679.25,-76.96,,,1825175.0
1638177679.265625,-87.77,,,1828278.0
1638177679.28125,-96.01,,,1831410.0
1638177679.296875,-98.63,,,1834289.0
1638177679.3125,-93.14,,,1831922.0
1638177679.328125,-78.64,,,1825688.0
1638177679.34375,-56.33,,,1819876.0
1638177679.359375,-29.22,,,1816569.0
1638177679.375,-1.26,,,1813833.0
1638177679.390625,23.95,,,1811380.0
1638177679.40625,44.17,,,1811341.0
1638177679.421875,58.77,,,1811220.0
1638177679.4375,68.43,,,1810413.0
1638177679.453125,74.28,,,1810472.0
1638177679.46875,77.31,,,1810756.0
1638177679.484375,78.03,,,1811657.0
1638177679.5,76.7,,,1813471.0
1638177679.515625,73.56,,,1814936.0
1638177679.53125,69.11,,,1817663.0
1638177679.546875,64.08,,,1820920.0
1638177679.5625,59.25,,,1824638.0
1638177679.578125,55.17,,,1828545.0
1638177679.59375,52.04,,,1831787.0
1638177679.609375,49.72,,,1834794.0
1638177679.625,47.93,,,1837804.0
1638177679.640625,46.46,,,1840723.0
1638177679.65625,45.25,,,1844158.0
1638177679.671875,44.35,,,1846996.0
1638177679.6875,43.76,,,1844749.0
1638177679.703125,43.3,,,1839148.0
1638177679.71875,42.63,,,1834776.0
1638177679.734375,41.29,,,1832157.0
1638177679.75,38.94,,,1830489.0
1638177679.765625,35.49,,,1829518.0
1638177679.78125,31.02,,,1829635.0
1638177679.796875,25.82,,,1829636.0
1638177679.8125,20.17,,,1829597.0
1638177679.828125,14.32,,,1829559.0
1638177679.84375,8.48,,,1830155.0
1638177679.859375,2.89,,,1831178.0
1638177679.875,-2.23,,,1833134.0
1638177679.890625,-6.84,,,1834912.0
1638177679.90625,-11.15,,,1837318.0
1638177679.921875,-15.6,,,1839354.0
1638177679.9375,-20.69,,,1841629.0
1638177679.953125,-26.62,,,1843787.0
1638177679.96875,-33.18,,,1846087.0
1638177679.984375,-39.75,,,1848588.0
1638177680.0,-45.55,,,1851447.0
1638177680.015625,-50.03,,,1853824.0
1638177680.03125,-53.12,,,1856721.0
