timestamp,bvp,eda,temp,PPG GREEN
1625051401.453125,-410.56,0.464927,35.43,1791359.0
1625051401.46875,-368.43,0.523844,35.43,1795461.0
1625051401.484375,-314.45,0.503351,35.43,1797658.0
1625051401.5,-257.09,0.466208,35.39,1799707.0
1625051401.515625,-205.58,0.461085,35.39,1801428.0
1625051401.53125,-167.26,0.457242,35.39,1803344.0
1625051401.546875,-145.15,0.455962,35.39,1802581.0
1625051401.5625,-136.63,0.450838,35.83,1793000.0
1625051401.578125,-134.31,0.452119,35.83,1801316.0
1625051401.59375,-128.67,0.452119,35.83,1799378.0
1625051401.609375,-111.79,0.452119,35.83,1797596.0
1625051401.625,-80.26,0.448277,35.77,1796457.0
1625051401.640625,-36.03,0.446996,35.77,1796428.0
1625051401.65625,14.76,0.445715,35.77,1796100.0
1625051401.671875,64.18,0.448277,35.77,1795709.0
1625051401.6875,104.7,0.446996,35.61,1795681.0
1625051401.703125,130.36,0.444435,35.61,1795674.0
1625051401.71875,137.22,0.441873,35.61,1795094.0
1625051401.734375,123.68,0.443154,35.61,1795804.0
1625051401.75,91.19,0.439311,35.47,1796280.0
1625051401.765625,44.78,0.443154,35.47,1797058.0
1625051401.78125,-7.53,0.441873,35.47,1798133.0
1625051401.796875,-56.91,0.440592,35.47,1799478.0
1625051401.8125,-96.86,0.438031,35.37,1800199.0
1625051401.828125,-125.55,0.43675,35.37,1799293.0
1625051401.84375,-145.92,0.438031,35.37,1794118.0
1625051401.859375,-163.6,0.439311,35.37,1790771.0
1625051401.875,-183.73,0.438031,35.29,1786692.0
1625051401.890625,-208.56,0.434188,35.29,1785033.0
1625051401.90625,-236.57,0.435469,35.29,1782049.0
1625051401.921875,-264.27,0.432907,35.29,1781961.0
1625051401.9375,-288.17,0.435469,35.23,1784789.0
1625051401.953125,-306.0,0.435469,35.23,1788845.0
1625051401.96875,-316.76,0.432907,35.23,1792836.0
1625051401.984375,-320.01,0.429065,35.23,1797041.0
1625051402.0,-315.46,0.427784,35.16,1799534.0
1625051402.015625,-303.25,0.429065,35.16,1799629.0
1625051402.03125,-284.42,0.430346,35.16,1800463.0
1625051402.046875,-260.85,0.430346,35.16,1801852.0
1625051402.0625,-235.3,0.426503,35.15,1805961.0
1625051402.078125,-210.76,0.425223,35.15,1808579.0
1625051402.09375,-189.44,0.430346,35.15,1807907.0
1625051402.109375,-172.16,0.427784,35.15,1810069.0
1625051402.125,-158.39,0.427784,35.09,1811634.0
1625051402.140625,-146.72,0.422661,35.09,1812211.0
1625051402.15625,-135.54,0.422661,35.09,1820088.0
1625051402.171875,-123.71,0.425223,35.09,1828948.0
1625051402.1875,-110.05,0.425223,35.09,1837097.0
1625051402.203125,-94.37,0.422661,35.09,1842565.0
1625051402.21875,-77.46,0.418819,35.09,1843183.0
1625051402.234375,-60.67,0.420099,35.09,1845251.0
1625051402.25,-45.09,0.417538,35.07,1849241.0
1625051402.265625,-31.01,0.418819,35.07,1852053.0
1625051402.28125,-17.76,0.418819,35.07,1854885.0
1625051402.296875,-4.12,0.418819,35.07,1855478.0
1625051402.3125,11.28,0.414976,35.03,1852225.0
1625051402.328125,31.57,0.413696,35.03,1847946.0
1625051402.34375,58.77,0.417538,35.03,1845843.0
1625051402.359375,92.84,0.416257,35.03,1842229.0
1625051402.375,131.95,0.416257,35.03,1846985.0
1625051402.390625,173.72,0.411134,35.03,1852413.0
1625051402.40625,216.46,0.411134,35.03,1854095.0
1625051402.421875,259.37,0.408572,35.03,1859402.0
1625051402.4375,302.31,0.412415,35.0,1864321.0
1625051402.453125,345.29,0.412415,35.0,1867541.0
1625051402.46875,392.44,0.411134,35.0,1871507.0
1625051402.484375,446.45,0.407292,35.0,1875938.0
1625051402.5,506.88,0.407292,34.99,1878536.0
1625051402.515625,570.42,0.408572,34.99,1882447.0
1625051402.53125,633.14,0.408572,34.99,1883800.0
1625051402.546875,692.19,0.408572,34.99,1881732.0
1625051402.5625,745.79,0.407292,34.95,1879243.0
1625051402.578125,792.38,0.40473,34.95,1876613.0
1625051402.59375,829.88,0.403449,34.95,1874928.0
1625051402.609375,862.72,0.407292,34.95,1874419.0
1625051402.625,893.75,0.406011,34.93,1874021.0
1625051402.640625,921.84,0.406011,34.93,1873106.0
1625051402.65625,942.36,0.402168,34.93,1871937.0
1625051402.671875,950.74,0.402168,34.93,1871251.0
1625051402.6875,945.22,0.400888,34.91,1871701.0
1625051402.703125,926.73,0.403449,34.91,1872017.0
1625051402.71875,897.41,0.403449,34.91,1871640.0
1625051402.734375,858.67,0.402168,34.91,1872703.0
1625051402.75,819.9,0.399607,34.89,1873324.0
1625051402.765625,787.61,0.398326,34.89,1874748.0
1625051402.78125,762.17,0.402168,34.89,1876209.0
1625051402.796875,738.8,0.400888,34.89,1877287.0
1625051402.8125,712.66,0.400888,34.89,1876342.0
1625051402.828125,682.42,0.397045,34.89,1877326.0
1625051402.84375,650.26,0.395764,34.89,1878582.0
1625051402.859375,619.62,0.397045,34.89,1879997.0
1625051402.875,539.48,0.398326,34.87,1879577.0
1625051402.890625,387.17,0.397045,34.87,1877701.0
1625051402.90625,176.59,0.393203,34.87,1875592.0
1625051402.921875,-48.62,0.391922,34.87,1873248.0
1625051402.9375,-245.75,0.391922,34.83,1872083.0
1625051402.953125,-394.22,0.393203,34.83,1871990.0
1625051402.96875,-494.41,0.393203,34.83,1872096.0
1625051402.984375,-556.52,0.393203,34.83,1872523.0
1625051403.0,-592.25,0.390641,34.83,1870321.0
1625051403.015625,-612.05,0.38936,34.83,1866003.0
1625051403.03125,-617.62,0.38936,34.83,1862648.0
1625051403.046875,-608.77,0.391922,34.83,1861213.0
1625051403.0625,-588.64,0.391922,34.81,1861907.0
1625051403.078125,-564.99,0.390641,34.81,1862752.0
1625051403.09375,-545.77,0.38808,34.81,1864977.0
1625051403.109375,-536.62,0.386799,34.81,1865861.0
1625051403.125,-540.11,0.38808,34.79,1866848.0
1625051403.140625,-547.26,0.38936,34.79,1870416.0
1625051403.15625,-552.01,0.38936,34.79,1870067.0
1625051403.171875,-544.37,0.38808,34.79,1867743.0
1625051403.1875,-519.64,0.386799,34.79,1861067.0
1625051403.203125,-479.91,0.384237,34.79,1865155.0
1625051403.21875,-432.35,0.385518,34.79,1868934.0
1625051403.234375,-383.96,0.385518,34.79,1865964.0
1625051403.25,-339.49,0.385518,34.77,1861139.0
1625051403.265625,-300.36,0.381676,34.77,1861142.0
1625051403.28125,-265.79,0.381676,34.77,1866371.0
1625051403.296875,-235.63,0.380395,34.77,1879632.0
1625051403.3125,-205.14,0.381676,34.75,1884082.0
1625051403.328125,-170.99,0.384237,34.75,1892349.0
1625051403.34375,-132.64,0.382957,34.75,1885308.0
1625051403.359375,-96.21,0.381676,34.75,1876780.0
1625051403.375,-62.71,0.380395,34.75,1875625.0
1625051403.390625,-32.8,0.377833,34.75,1880249.0
1625051403.40625,-6.08,0.381676,34.75,1889707.0
1625051403.421875,18.51,0.381676,34.75,1900854.0
1625051403.4375,41.02,0.380395,34.75,1902777.0
1625051403.453125,63.57,0.376553,34.75,1901933.0
1625051403.46875,87.16,0.376553,34.75,1901987.0
1625051403.484375,111.55,0.379114,34.75,1900512.0
1625051403.5,135.15,0.379114,34.71,1901469.0
1625051403.515625,156.67,0.377833,34.71,1902464.0
1625051403.53125,174.57,0.377833,34.71,1902800.0
1625051403.546875,187.97,0.373991,34.71,1903663.0
1625051403.5625,196.23,0.375272,34.71,1904182.0
1625051403.578125,197.56,0.375272,34.71,1902441.0
1625051403.59375,195.58,0.375272,34.71,1902832.0
1625051403.609375,191.57,0.375272,34.71,1900986.0
1625051403.625,186.1,0.371429,34.68,1899834.0
1625051403.640625,179.17,0.370149,34.68,1900227.0
1625051403.65625,171.09,0.370149,34.68,1899749.0
1625051403.671875,161.76,0.370149,34.68,1899504.0
1625051403.6875,151.37,0.37271,34.66,1898835.0
1625051403.703125,140.37,0.371429,34.66,1898757.0
1625051403.71875,128.98,0.368868,34.66,1899297.0
1625051403.734375,117.59,0.370149,34.66,1899908.0
1625051403.75,106.03,0.371429,34.66,1899955.0
1625051403.765625,94.42,0.368868,34.66,1900809.0
1625051403.78125,83.0,0.368868,34.66,1900848.0
1625051403.796875,72.33,0.368868,34.66,1900827.0
1625051403.8125,62.56,0.365025,34.65,1900461.0
1625051403.828125,53.76,0.365025,34.65,1901134.0
1625051403.84375,46.05,0.368868,34.65,1900872.0
1625051403.859375,39.39,0.366306,34.65,1899175.0
1625051403.875,33.89,0.363745,34.65,1895949.0
1625051403.890625,29.1,0.363745,34.65,1892516.0
1625051403.90625,24.82,0.361183,34.65,1890479.0
1625051403.921875,20.97,0.361183,34.65,1889161.0
1625051403.9375,17.65,0.361183,34.63,1888798.0
1625051403.953125,14.78,0.365025,34.63,1888543.0
1625051403.96875,12.33,0.363745,34.63,1887895.0
1625051403.984375,10.29,0.361183,34.63,1886704.0
1625051404.0,8.68,0.359902,34.61,1885828.0
1625051404.015625,7.54,0.359902,34.61,1884699.0
1625051404.03125,6.57,0.359902,34.61,1877930.0
1625051404.046875,5.58,0.359902,34.61,1870135.0
1625051404.0625,4.49,0.361183,34.61,1859743.0
1625051404.078125,3.34,0.358622,34.61,1849036.0
1625051404.09375,2.13,0.359902,34.61,1840084.0
1625051404.109375,0.92,0.358622,34.61,1834979.0
1625051404.125,-0.23,0.359902,34.61,1834230.0
1625051404.140625,-1.28,0.359902,34.61,1835533.0
1625051404.15625,-2.19,0.35606,34.61,1836986.0
1625051404.171875,-3.07,0.35606,34.61,1834367.0
1625051404.1875,-3.92,0.354779,34.57,1832992.0
1625051404.203125,-4.68,0.35606,34.57,1831590.0
1625051404.21875,-5.22,0.357341,34.57,1831632.0
1625051404.234375,-5.38,0.35606,34.57,1839031.0
1625051404.25,-5.03,0.352218,34.57,1849259.0
1625051404.265625,-4.14,0.353498,34.57,1852876.0
1625051404.28125,-2.75,0.35606,34.57,1849211.0
1625051404.296875,-1.05,0.353498,34.57,1843471.0
1625051404.3125,0.7,0.354779,34.57,1840173.0
1625051404.328125,2.24,0.353498,34.57,1842018.0
1625051404.34375,3.47,0.350937,34.57,1847587.0
1625051404.359375,4.37,0.350937,34.57,1852448.0
1625051404.375,5.03,0.354779,34.55,1856385.0
1625051404.390625,5.54,0.353498,34.55,1860290.0
1625051404.40625,5.81,0.350937,34.55,1860101.0
1625051404.421875,5.57,0.350937,34.55,1857600.0
1625051404.4375,4.34,0.350937,34.53,1855580.0
1625051404.453125,1.57,0.349656,34.53,1852256.0
1625051404.46875,-3.12,0.352218,34.53,1849868.0
1625051404.484375,-9.76,0.350937,34.53,1849076.0
1625051404.5,-17.92,0.352218,34.53,1848802.0
1625051404.515625,-26.89,0.348375,34.53,1848416.0
1625051404.53125,-35.9,0.347094,34.53,1847824.0
1625051404.546875,-44.5,0.347094,34.53,1847259.0
1625051404.5625,-52.78,0.349656,34.53,1848550.0
1625051404.578125,-61.38,0.352218,34.53,1849269.0
1625051404.59375,-71.17,0.349656,34.53,1849904.0
1625051404.609375,-82.77,0.348375,34.53,1851066.0
1625051404.625,-96.12,0.347094,34.5,1852180.0
1625051404.640625,-110.42,0.345814,34.5,1853067.0
1625051404.65625,-124.37,0.347094,34.5,1853568.0
1625051404.671875,-136.82,0.348375,34.5,1853978.0
1625051404.6875,-147.38,0.348375,34.53,1851974.0
1625051404.703125,-156.78,0.344533,34.53,1848646.0
1625051404.71875,-166.74,0.344533,34.53,1845235.0
1625051404.734375,-179.28,0.345814,34.53,1842379.0
1625051404.75,-195.81,0.345814,34.5,1840727.0
1625051404.765625,-216.47,0.345814,34.5,1839144.0
1625051404.78125,-240.02,0.345814,34.5,1838900.0
1625051404.796875,-264.38,0.344533,34.5,1838122.0
1625051404.8125,-287.74,0.341971,34.49,1836804.0
1625051404.828125,-309.42,0.341971,34.49,1836008.0
1625051404.84375,-330.29,0.344533,34.49,1836350.0
1625051404.859375,-352.28,0.343252,34.49,1836592.0
1625051404.875,-377.4,0.344533,34.5,1836819.0
1625051404.890625,-406.99,0.343252,34.5,1837166.0
1625051404.90625,-441.27,0.34069,34.5,1837483.0
1625051404.921875,-479.76,0.34069,34.5,1837992.0
1625051404.9375,-521.49,0.341971,34.49,1839075.0
1625051404.953125,-564.67,0.343252,34.49,1839569.0
1625051404.96875,-605.93,0.343252,34.49,1838491.0
1625051404.984375,-640.26,0.343252,34.49,1835022.0
1625051405.0,-662.4,0.33941,34.47,1830642.0
1625051405.015625,-669.33,0.33941,34.47,1825329.0
1625051405.03125,-662.4,0.338129,34.47,1818912.0
1625051405.046875,-647.16,0.34069,34.47,1813247.0
1625051405.0625,-630.52,0.341971,34.47,1812563.0
1625051405.078125,-616.7,0.34069,34.47,1812835.0
1625051405.09375,-604.51,0.336848,34.47,1811390.0
1625051405.109375,-587.85,0.33941,34.47,1810702.0
1625051405.125,-559.58,0.33941,34.49,1810663.0
1625051405.140625,-516.15,0.34069,34.49,1812505.0
1625051405.15625,-460.15,0.33941,34.49,1813556.0
1625051405.171875,-398.98,0.338129,34.49,1813963.0
1625051405.1875,-340.6,0.334286,34.47,1814099.0
1625051405.203125,-289.15,0.334286,34.47,1814679.0
1625051405.21875,-243.22,0.336848,34.47,1815607.0
1625051405.234375,-197.69,0.336848,34.47,1815944.0
1625051405.25,-147.72,0.338129,34.45,1816002.0
1625051405.265625,-92.19,0.336848,34.45,1815998.0
1625051405.28125,-34.54,0.334286,34.45,1812565.0
1625051405.296875,19.32,0.334286,34.45,1807612.0
1625051405.3125,64.38,0.335567,34.45,1804085.0
1625051405.328125,99.35,0.338129,34.45,1800062.0
1625051405.34375,127.39,0.335567,34.45,1798234.0
1625051405.359375,154.58,0.335567,34.45,1797719.0
1625051405.375,187.06,0.333006,34.45,1796563.0
1625051405.390625,228.21,0.333006,34.45,1795997.0
1625051405.40625,277.68,0.335567,34.45,1795074.0
1625051405.421875,332.09,0.336848,34.45,1794686.0
1625051405.4375,386.76,0.336848,34.43,1794396.0
1625051405.453125,437.3,0.334286,34.43,1794824.0
1625051405.46875,480.03,0.334286,34.43,1794947.0
1625051405.484375,511.58,0.334286,34.43,1795821.0
1625051405.5,528.48,0.335567,34.43,1796104.0
1625051405.515625,527.82,0.338129,34.43,1796145.0
1625051405.53125,508.79,0.338129,34.43,1796381.0
1625051405.546875,473.87,0.334286,34.43,1795816.0
1625051405.5625,428.4,0.334286,34.43,1793235.0
1625051405.578125,378.02,0.336848,34.43,1790802.0
1625051405.59375,326.12,0.336848,34.43,1787996.0
1625051405.609375,273.02,0.338129,34.43,1786497.0
1625051405.625,217.88,0.336848,34.41,1785558.0
1625051405.640625,162.21,0.334286,34.41,1785431.0
1625051405.65625,112.76,0.334286,34.41,1784568.0
1625051405.671875,80.75,0.335567,34.41,1784182.0
1625051405.6875,77.34,0.336848,34.43,1783484.0
1625051405.703125,107.42,0.336848,34.43,1783472.0
1625051405.71875,165.04,0.335567,34.43,1783552.0
1625051405.734375,233.7,0.333006,34.43,1784202.0
1625051405.75,291.72,0.331725,34.41,1784734.0
1625051405.765625,320.3,0.336848,34.41,1786316.0
1625051405.78125,310.77,0.336848,34.41,1787272.0
1625051405.796875,267.76,0.335567,34.41,1788025.0
1625051405.8125,207.01,0.331725,34.39,1789004.0
1625051405.828125,148.97,0.331725,34.39,1790484.0
1625051405.84375,111.81,0.333006,34.39,1791784.0
1625051405.859375,105.57,0.335567,34.39,1791509.0
1625051405.875,130.32,0.335567,34.39,1789290.0
1625051405.890625,177.65,0.334286,34.39,1786623.0
1625051405.90625,234.32,0.333006,34.39,1784321.0
1625051405.921875,286.62,0.333006,34.39,1781327.0
1625051405.9375,323.67,0.330444,34.41,1779984.0
1625051405.953125,339.61,0.333006,34.41,1780407.0
1625051405.96875,334.16,0.333006,34.41,1780487.0
1625051405.984375,311.92,0.333006,34.41,1776873.0
1625051406.0,280.51,0.330444,34.39,1774720.0
1625051406.015625,247.95,0.329163,34.39,1769350.0
1625051406.03125,219.82,0.327882,34.39,1762380.0
1625051406.046875,197.84,0.330444,34.39,1754847.0
1625051406.0625,180.39,0.331725,34.37,1747350.0
1625051406.078125,164.06,0.331725,34.37,1741785.0
1625051406.09375,145.98,0.329163,34.37,1739196.0
1625051406.109375,124.87,0.327882,34.37,1740278.0
1625051406.125,100.38,0.329163,34.37,1745410.0
1625051406.140625,71.6,0.329163,34.37,1751885.0
1625051406.15625,37.04,0.330444,34.37,1757312.0
1625051406.171875,-3.5,0.329163,34.37,1762340.0
1625051406.1875,-46.39,0.326602,34.39,1765379.0
1625051406.203125,-83.05,0.325321,34.39,1767284.0
1625051406.21875,-102.55,0.325321,34.39,1766262.0
1625051406.234375,-96.78,0.326602,34.39,1766296.0
1625051406.25,-65.61,0.327882,34.37,1765658.0
1625051406.265625,-18.37,0.327882,34.37,1765089.0
1625051406.28125,29.49,0.334286,34.37,1764896.0
1625051406.296875,63.46,0.325321,34.37,1766765.0
1625051406.3125,76.16,0.325321,34.34,1767398.0
1625051406.328125,69.65,0.326602,34.34,1765710.0
1625051406.34375,53.01,0.325321,34.34,1766574.0
1625051406.359375,36.4,0.325321,34.34,1766939.0
1625051406.375,25.83,0.322759,34.34,1767922.0
1625051406.390625,21.13,0.321479,34.34,1769722.0
1625051406.40625,17.58,0.321479,34.34,1770869.0
1625051406.421875,9.66,0.32404,34.34,1775121.0
1625051406.4375,-5.75,0.325321,34.33,1773402.0
1625051406.453125,-28.21,0.325321,34.33,1776954.0
1625051406.46875,-55.02,0.321479,34.33,1778240.0
1625051406.484375,-83.14,0.320198,34.33,1779587.0
1625051406.5,-111.02,0.320198,34.33,1780268.0
1625051406.515625,-139.0,0.322759,34.33,1778913.0
1625051406.53125,-168.91,0.322759,34.33,1777017.0
1625051406.546875,-203.0,0.32404,34.33,1775311.0
1625051406.5625,-243.14,0.320198,34.33,1773488.0
1625051406.578125,-290.7,0.320198,34.33,1772890.0
1625051406.59375,-346.47,0.321479,34.33,1772662.0
1625051406.609375,-410.07,0.321479,34.33,1767660.0
1625051406.625,-479.08,0.322759,34.33,1760650.0
1625051406.640625,-548.26,0.322759,34.33,1759516.0
1625051406.65625,-609.94,0.320198,34.33,1760268.0
1625051406.671875,-655.72,0.320198,34.33,1762201.0
1625051406.6875,-679.23,0.322759,34.31,1764351.0
1625051406.703125,-678.55,0.322759,34.31,1767707.0
1625051406.71875,-656.91,0.321479,34.31,1771369.0
1625051406.734375,-621.3,0.321479,34.31,1775127.0
1625051406.75,-579.59,0.318917,34.31,1778440.0
1625051406.765625,-537.93,0.317636,34.31,1781638.0
1625051406.78125,-499.41,0.321479,34.31,1784827.0
1625051406.796875,-464.64,0.321479,34.31,1788435.0
1625051406.8125,-433.17,0.321479,34.31,1790983.0
1625051406.828125,-404.73,0.320198,34.31,1793420.0
1625051406.84375,-379.52,0.317636,34.31,1793672.0
1625051406.859375,-357.62,0.316355,34.31,1794106.0
1625051406.875,-338.32,0.317636,34.31,1796015.0
1625051406.890625,-320.04,0.318917,34.31,1797420.0
1625051406.90625,-300.99,0.320198,34.31,1798043.0
1625051406.921875,-280.03,0.318917,34.31,1798570.0
1625051406.9375,-257.3,0.316355,34.29,1800260.0
1625051406.953125,-234.0,0.316355,34.29,1801615.0
1625051406.96875,-211.87,0.327882,34.29,1801938.0
1625051406.984375,-192.24,0.317636,34.29,1804208.0
1625051407.0,-175.41,0.317636,34.29,1805916.0
1625051407.015625,-160.61,0.316355,34.29,1805985.0
1625051407.03125,-146.33,0.315075,34.29,1806362.0
1625051407.046875,-131.07,0.316355,34.29,1807837.0
1625051407.0625,-113.95,0.318917,34.29,1806858.0
1625051407.078125,-95.04,0.317636,34.29,1805206.0
1625051407.09375,-75.3,0.317636,34.29,1803564.0
1625051407.109375,-56.06,0.316355,34.29,1799979.0
1625051407.125,-38.51,0.316355,34.31,1797251.0
1625051407.140625,-23.18,0.313794,34.31,1795232.0
1625051407.15625,-9.9,0.317636,34.31,1788958.0
1625051407.171875,2.06,0.317636,34.31,1788173.0
1625051407.1875,13.5,0.317636,34.29,1787980.0
1625051407.203125,24.99,0.313794,34.29,1784633.0
1625051407.21875,36.56,0.316355,34.29,1783223.0
1625051407.234375,47.73,0.316355,34.29,1783389.0
1625051407.25,57.81,0.317636,34.27,1795539.0
1625051407.265625,66.17,0.317636,34.27,1818395.0
1625051407.28125,72.46,0.316355,34.27,1823072.0
1625051407.296875,76.75,0.312513,34.27,1807906.0
1625051407.3125,79.38,0.322759,34.29,1798006.0
1625051407.328125,80.75,0.315075,34.29,1794958.0
1625051407.34375,81.13,0.316355,34.29,1798752.0
1625051407.359375,80.55,0.315075,34.29,1807798.0
1625051407.375,78.84,0.313794,34.27,1815090.0
1625051407.390625,75.73,0.311232,34.27,1819719.0
1625051407.40625,71.01,0.313794,34.27,1820485.0
1625051407.421875,64.67,0.313794,34.27,1821419.0
1625051407.4375,56.89,0.315075,34.29,1820326.0
1625051407.453125,48.05,0.315075,34.29,1817586.0
1625051407.46875,38.6,0.312513,34.29,1814511.0
1625051407.484375,28.99,0.311232,34.29,1811011.0
1625051407.5,19.6,0.311232,34.27,1809189.0
1625051407.515625,10.69,0.312513,34.27,1806932.0
1625051407.53125,2.42,0.313794,34.27,1805837.0
1625051407.546875,-5.08,0.312513,34.27,1804232.0
1625051407.5625,-11.69,0.309951,34.27,1802613.0
1625051407.578125,-17.28,0.309951,34.27,1802133.0
1625051407.59375,-21.73,0.311232,34.27,1802098.0
1625051407.609375,-24.92,0.309951,34.27,1801796.0
1625051407.625,-26.78,0.313794,34.27,1802421.0
1625051407.640625,-27.34,0.313794,34.27,1803456.0
1625051407.65625,-26.7,0.312513,34.27,1804610.0
1625051407.671875,-25.01,0.309951,34.27,1805897.0
1625051407.6875,-22.47,0.309951,34.25,1807620.0
1625051407.703125,-19.22,0.312513,34.25,1809023.0
1625051407.71875,-15.3,0.313794,34.25,1808326.0
1625051407.734375,-10.7,0.312513,34.25,1807070.0
1625051407.75,-5.4,0.312513,34.25,1805111.0
1625051407.765625,0.58,0.308671,34.25,1803535.0
1625051407.78125,7.07,0.309951,34.25,1801218.0
1625051407.796875,13.78,0.312513,34.25,1800500.0
1625051407.8125,20.35,0.311232,34.25,1799924.0
1625051407.828125,26.5,0.311232,34.25,1799557.0
1625051407.84375,32.13,0.309951,34.25,1798700.0
1625051407.859375,37.46,0.306109,34.25,1798598.0
1625051407.875,42.9,0.309951,34.25,1798698.0
1625051407.890625,48.96,0.308671,34.25,1798960.0
1625051407.90625,55.96,0.309951,34.25,1799211.0
1625051407.921875,63.92,0.309951,34.25,1800155.0
1625051407.9375,72.44,0.306109,34.27,1800806.0
1625051407.953125,80.85,0.306109,34.27,1801982.0
1625051407.96875,88.53,0.306109,34.27,1803168.0
1625051407.984375,95.16,0.309951,34.27,1804177.0
1625051408.0,100.98,0.308671,34.25,1804147.0
1625051408.015625,106.73,0.308671,34.25,1803209.0
1625051408.03125,113.34,0.308671,34.25,1801967.0
1625051408.046875,121.55,0.306109,34.25,1799150.0
1625051408.0625,131.47,0.304828,34.25,1796656.0
1625051408.078125,142.52,0.30739,34.25,1795139.0
1625051408.09375,153.58,0.308671,34.25,1794964.0
1625051408.109375,163.58,0.30739,34.25,1794185.0
1625051408.125,172.1,0.306109,34.25,1795316.0
1625051408.140625,179.69,0.304828,34.25,1797178.0
1625051408.15625,187.78,0.304828,34.25,1797944.0
1625051408.171875,198.1,0.317636,34.25,1798908.0
1625051408.1875,211.84,0.308671,34.27,1799564.0
1625051408.203125,229.05,0.308671,34.27,1799804.0
1625051408.21875,248.55,0.304828,34.27,1801234.0
1625051408.234375,268.36,0.303547,34.27,1800611.0
1625051408.25,286.72,0.304828,34.25,1801906.0
1625051408.265625,302.82,0.306109,34.25,1802671.0
1625051408.28125,317.23,0.306109,34.25,1802801.0
1625051408.296875,331.59,0.30739,34.25,1801429.0
1625051408.3125,347.96,0.303547,34.23,1798426.0
1625051408.328125,368.22,0.303547,34.23,1794836.0
1625051408.34375,393.61,0.303547,34.23,1791027.0
1625051408.359375,424.46,0.306109,34.23,1788096.0
1625051408.375,459.75,0.304828,34.23,1786214.0
1625051408.390625,496.64,0.303547,34.23,1784655.0
1625051408.40625,530.22,0.303547,34.23,1783310.0
1625051408.421875,553.95,0.302267,34.23,1781498.0
1625051408.4375,561.18,0.304828,34.25,1779499.0
1625051408.453125,547.28,0.30739,34.25,1778144.0
1625051408.46875,511.72,0.306109,34.25,1777390.0
1625051408.484375,458.69,0.303547,34.25,1776531.0
1625051408.5,396.01,0.302267,34.23,1776538.0
1625051408.515625,332.77,0.302267,34.23,1776875.0
1625051408.53125,276.5,0.304828,34.23,1776450.0
1625051408.546875,231.6,0.306109,34.23,1776375.0
1625051408.5625,199.12,0.306109,34.23,1775646.0
1625051408.578125,177.72,0.303547,34.23,1773097.0
1625051408.59375,165.01,0.304828,34.23,1769754.0
1625051408.609375,158.44,0.302267,34.23,1766812.0
1625051408.625,155.39,0.306109,34.23,1764745.0
1625051408.640625,152.75,0.303547,34.23,1762067.0
1625051408.65625,146.62,0.300986,34.23,1761243.0
1625051408.671875,132.78,0.300986,34.23,1760450.0
1625051408.6875,108.07,0.300986,34.25,1759435.0
1625051408.703125,72.08,0.303547,34.25,1758735.0
1625051408.71875,28.87,0.304828,34.25,1758011.0
1625051408.734375,-13.11,0.304828,34.25,1757700.0
1625051408.75,-43.38,0.300986,34.23,1758162.0
1625051408.765625,-53.79,0.300986,34.23,1758783.0
1625051408.78125,-42.87,0.302267,34.23,1759600.0
1625051408.796875,-17.79,0.304828,34.23,1760484.0
1625051408.8125,7.83,0.304828,34.23,1761323.0
1625051408.828125,19.82,0.302267,34.23,1762315.0
1625051408.84375,10.43,0.300986,34.23,1763754.0
1625051408.859375,-17.81,0.300986,34.23,1763547.0
1625051408.875,-53.36,0.302267,34.23,1761502.0
1625051408.890625,-81.77,0.304828,34.23,1758648.0
1625051408.90625,-92.5,0.303547,34.23,1756430.0
1625051408.921875,-83.5,0.299705,34.23,1755053.0
1625051408.9375,-60.7,0.299705,34.23,1753665.0
1625051408.953125,-33.84,0.299705,34.23,1752789.0
1625051408.96875,-11.62,0.300986,34.23,1752984.0
1625051408.984375,0.85,0.303547,34.23,1752548.0
1625051409.0,1.44,0.303547,34.21,1751991.0
1625051409.015625,-10.89,0.299705,34.21,1744568.0
1625051409.03125,-37.03,0.299705,34.21,1741326.0
1625051409.046875,-76.04,0.300986,34.21,1734731.0
1625051409.0625,-122.76,0.302267,34.21,1726617.0
1625051409.078125,-167.36,0.300986,34.21,1717255.0
1625051409.09375,-198.43,0.302267,34.21,1710019.0
1625051409.109375,-208.25,0.300986,34.21,1703201.0
1625051409.125,-197.52,0.299705,34.21,1697378.0
1625051409.140625,-175.87,0.300986,34.21,1695843.0
1625051409.15625,-157.61,0.302267,34.21,1695960.0
1625051409.171875,-154.7,0.304828,34.21,1694516.0
1625051409.1875,-171.31,0.302267,34.16,1695743.0
1625051409.203125,-203.04,0.298424,34.16,1698940.0
1625051409.21875,-240.36,0.300986,34.16,1703092.0
1625051409.234375,-274.14,0.303547,34.16,1708403.0
1625051409.25,-299.26,0.300986,34.18,1710703.0
1625051409.265625,-314.78,0.303547,34.18,1709057.0
1625051409.28125,-321.13,0.300986,34.18,1708333.0
1625051409.296875,-317.62,0.298424,34.18,1705450.0
1625051409.3125,-302.18,0.298424,34.21,1703398.0
1625051409.328125,-273.82,0.299705,34.21,1702720.0
1625051409.34375,-235.16,0.300986,34.21,1701924.0
1625051409.359375,-193.0,0.299705,34.21,1704447.0
1625051409.375,-155.85,0.300986,34.18,1706660.0
1625051409.390625,-129.93,0.298424,34.18,1711354.0
1625051409.40625,-116.15,0.299705,34.18,1714706.0
1625051409.421875,-109.9,0.300986,34.18,1718718.0
1625051409.4375,-103.57,0.299705,34.18,1719214.0
1625051409.453125,-90.17,0.300986,34.18,1719675.0
1625051409.46875,-65.98,0.298424,34.18,1719790.0
1625051409.484375,-30.85,0.297144,34.18,1719779.0
1625051409.5,13.25,0.297144,34.16,1726726.0
1625051409.515625,63.35,0.299705,34.16,1736645.0
1625051409.53125,115.45,0.300986,34.16,1746311.0
1625051409.546875,163.92,0.299705,34.16,1747190.0
1625051409.5625,201.54,0.298424,34.18,1744113.0
1625051409.578125,221.64,0.295863,34.18,1744708.0
1625051409.59375,221.54,0.295863,34.18,1746560.0
1625051409.609375,205.09,0.299705,34.18,1750627.0
1625051409.625,182.16,0.299705,34.18,1755588.0
1625051409.640625,164.66,0.299705,34.18,1760118.0
1625051409.65625,161.11,0.298424,34.18,1763558.0
1625051409.671875,173.06,0.297144,34.18,1765861.0
1625051409.6875,194.96,0.300986,34.18,1767857.0
1625051409.703125,217.52,0.300986,34.18,1768980.0
1625051409.71875,232.41,0.299705,34.18,1769925.0
1625051409.734375,235.72,0.299705,34.18,1771663.0
1625051409.75,228.68,0.297144,34.18,1773956.0
1625051409.765625,216.28,0.295863,34.18,1774467.0
1625051409.78125,205.09,0.298424,34.18,1772374.0
1625051409.796875,201.38,0.300986,34.18,1771240.0
1625051409.8125,209.88,0.299705,34.18,1769519.0
1625051409.828125,232.53,0.295863,34.18,1768074.0
1625051409.84375,267.4,0.295863,34.18,1765654.0
1625051409.859375,308.44,0.294582,34.18,1765872.0
1625051409.875,346.6,0.297144,34.21,1765551.0
1625051409.890625,372.75,0.299705,34.21,1764684.0
1625051409.90625,380.56,0.299705,34.21,1763885.0
1625051409.921875,368.27,0.295863,34.21,1763499.0
1625051409.9375,338.43,0.297144,34.18,1763884.0
1625051409.953125,296.13,0.294582,34.18,1764352.0
1625051409.96875,246.72,0.297144,34.18,1765755.0
1625051409.984375,194.41,0.297144,34.18,1766709.0
1625051410.0,142.0,0.297144,34.18,1767992.0
1625051410.015625,91.14,0.294582,34.18,1769744.0
1625051410.03125,42.91,0.294582,34.18,1771802.0
1625051410.046875,-1.58,0.294582,34.18,1773647.0
1625051410.0625,-40.45,0.297144,34.16,1775481.0
1625051410.078125,-70.69,0.297144,34.16,1776784.0
1625051410.09375,-88.23,0.297144,34.16,1775831.0
1625051410.109375,-89.59,0.294582,34.16,1774562.0
1625051410.125,-74.12,0.294582,34.18,1773530.0
1625051410.140625,-46.14,0.294582,34.18,1772961.0
1625051410.15625,-14.89,0.297144,34.18,1773236.0
1625051410.171875,8.38,0.297144,34.18,1773810.0
1625051410.1875,15.22,0.297144,34.18,1774235.0
1625051410.203125,3.93,0.294582,34.18,1774763.0
1625051410.21875,-19.66,0.294582,34.18,1774953.0
1625051410.234375,-45.3,0.304828,34.18,1775435.0
1625051410.25,-63.76,0.295863,34.16,1777488.0
1625051410.265625,-71.21,0.297144,34.16,1784719.0
1625051410.28125,-70.28,0.297144,34.16,1798128.0
1625051410.296875,-67.4,0.293301,34.16,1804056.0
1625051410.3125,-68.31,0.294582,34.18,1803648.0
1625051410.328125,-74.83,0.293301,34.18,1802785.0
1625051410.34375,-84.77,0.295863,34.18,1807414.0
1625051410.359375,-94.32,0.295863,34.18,1811972.0
1625051410.375,-101.11,0.295863,34.16,1814993.0
1625051410.390625,-105.45,0.294582,34.16,1816075.0
1625051410.40625,-109.34,0.293301,34.16,1815225.0
1625051410.421875,-114.19,0.293301,34.16,1812599.0
1625051410.4375,-119.13,0.293301,34.18,1810028.0
1625051410.453125,-121.0,0.297144,34.18,1808140.0
1625051410.46875,-115.99,0.297144,34.18,1807338.0
1625051410.484375,-102.17,0.293301,34.18,1807102.0
1625051410.5,-81.06,0.293301,34.16,1807535.0
1625051410.515625,-57.63,0.293301,34.16,1807856.0
1625051410.53125,-38.52,0.294582,34.16,1807905.0
1625051410.546875,-29.33,0.295863,34.16,1807544.0
1625051410.5625,-32.21,0.295863,34.15,1808123.0
1625051410.578125,-45.36,0.293301,34.15,1808727.0
1625051410.59375,-64.21,0.29202,34.15,1808850.0
1625051410.609375,-84.03,0.294582,34.15,1809009.0
1625051410.625,-102.33,0.294582,34.15,1808813.0
1625051410.640625,-119.48,0.297144,34.15,1809866.0
1625051410.65625,-137.2,0.295863,34.15,1810345.0
1625051410.671875,-155.88,0.29202,34.15,1811093.0
1625051410.6875,-172.64,0.29202,34.15,1811943.0
1625051410.703125,-181.98,0.29202,34.15,1812836.0
1625051410.71875,-178.69,0.293301,34.15,1813835.0
1625051410.734375,-161.4,0.294582,34.15,1811878.0
1625051410.75,-134.2,0.293301,34.15,1810238.0
1625051410.765625,-104.99,0.29202,34.15,1807583.0
1625051410.78125,-81.39,0.29074,34.15,1805441.0
1625051410.796875,-66.72,0.29202,34.15,1803973.0
1625051410.8125,-58.48,0.294582,34.13,1802855.0
1625051410.828125,-50.12,0.295863,34.13,1802088.0
1625051410.84375,-34.82,0.294582,34.13,1801373.0
1625051410.859375,-9.39,0.294582,34.13,1800678.0
1625051410.875,24.05,0.29202,34.16,1800207.0
1625051410.890625,59.04,0.29202,34.16,1799887.0
1625051410.90625,87.77,0.294582,34.16,1800316.0
1625051410.921875,104.26,0.293301,34.16,1801098.0
1625051410.9375,106.36,0.293301,34.15,1802365.0
1625051410.953125,95.85,0.289459,34.15,1802885.0
1625051410.96875,77.16,0.29202,34.15,1803797.0
1625051410.984375,55.72,0.293301,34.15,1804841.0
1625051411.0,36.92,0.29074,34.15,1805294.0
1625051411.015625,25.07,0.29202,34.15,1806613.0
1625051411.03125,22.63,0.29202,34.15,1807246.0
1625051411.046875,29.34,0.289459,34.15,1807203.0
1625051411.0625,42.25,0.29202,34.15,1805269.0
1625051411.078125,56.33,0.29074,34.15,1802498.0
1625051411.09375,66.39,0.29202,34.15,1799603.0
1625051411.109375,69.54,0.293301,34.15,1797067.0
1625051411.125,66.47,0.293301,34.15,1796430.0
1625051411.140625,60.78,0.29074,34.15,1795320.0
1625051411.15625,56.64,0.29202,34.15,1794850.0
1625051411.171875,56.07,0.29074,34.15,1794024.0
1625051411.1875,57.5,0.29202,34.15,1793425.0
1625051411.203125,56.67,0.293301,34.15,1792799.0
1625051411.21875,49.01,0.29202,34.15,1792600.0
1625051411.234375,32.12,0.288178,34.15,1792941.0
1625051411.25,7.04,0.288178,34.15,1793265.0
1625051411.265625,-22.49,0.29074,34.15,1793990.0
1625051411.28125,-51.46,0.29202,34.15,1794734.0
1625051411.296875,-74.89,0.29202,34.15,1795455.0
1625051411.3125,-88.46,0.295863,34.15,1795418.0
1625051411.328125,-88.65,0.288178,34.15,1796131.0
1625051411.34375,-73.39,0.29074,34.15,1797201.0
1625051411.359375,-43.48,0.29202,34.15,1796878.0
1625051411.375,-4.11,0.29202,34.15,1795267.0
1625051411.390625,35.26,0.293301,34.15,1793068.0
1625051411.40625,63.05,0.29202,34.15,1790257.0
1625051411.421875,69.96,0.288178,34.15,1788592.0
1625051411.4375,53.48,0.29074,34.15,1787313.0
1625051411.453125,20.09,0.289459,34.15,1786707.0
1625051411.46875,-16.52,0.289459,34.15,1785886.0
1625051411.484375,-40.9,0.293301,34.15,1784979.0
1625051411.5,-42.71,0.29074,34.13,1784091.0
1625051411.515625,-20.97,0.288178,34.13,1783491.0
1625051411.53125,16.36,0.288178,34.13,1783170.0
1625051411.546875,57.18,0.289459,34.13,1783271.0
1625051411.5625,91.8,0.289459,34.13,1783771.0
1625051411.578125,116.76,0.293301,34.13,1784201.0
1625051411.59375,134.13,0.289459,34.13,1785161.0
1625051411.609375,147.9,0.288178,34.13,1785891.0
1625051411.625,160.13,0.289459,34.13,1786253.0
1625051411.640625,169.82,0.29074,34.13,1786137.0
1625051411.65625,175.29,0.29202,34.13,1784551.0
1625051411.671875,177.37,0.293301,34.13,1781915.0
1625051411.6875,180.75,0.293301,34.13,1779295.0
1625051411.703125,192.01,0.289459,34.13,1777346.0
1625051411.71875,215.34,0.289459,34.13,1774849.0
1625051411.734375,248.83,0.289459,34.13,1774008.0
1625051411.75,284.37,0.293301,34.13,1773026.0
1625051411.765625,310.82,0.29202,34.13,1771777.0
1625051411.78125,319.01,0.29202,34.13,1770145.0
1625051411.796875,305.66,0.289459,34.13,1769629.0
1625051411.8125,274.01,0.29074,34.13,1769003.0
1625051411.828125,231.57,0.29074,34.13,1768921.0
1625051411.84375,186.59,0.293301,34.13,1769203.0
1625051411.859375,145.0,0.293301,34.13,1769749.0
1625051411.875,109.03,0.29202,34.11,1770297.0
1625051411.890625,77.66,0.288178,34.11,1771245.0
1625051411.90625,48.15,0.288178,34.11,1772337.0
1625051411.921875,17.69,0.29074,34.11,1772602.0
1625051411.9375,-15.15,0.29202,34.11,1771663.0
1625051411.953125,-50.34,0.29202,34.11,1769231.0
1625051411.96875,-87.03,0.29202,34.11,1766197.0
1625051411.984375,-124.52,0.288178,34.11,1763034.0
1625051412.0,-163.2,0.288178,34.11,1760937.0
1625051412.015625,-204.99,0.29074,34.11,1759223.0
1625051412.03125,-252.92,0.29202,34.11,1757480.0
1625051412.046875,-310.02,0.29202,34.11,1755929.0
1625051412.0625,-377.53,0.29074,34.11,1754767.0
1625051412.078125,-453.11,0.288178,34.11,1754246.0
1625051412.09375,-530.41,0.288178,34.11,1755337.0
1625051412.109375,-600.13,0.289459,34.11,1756263.0
1625051412.125,-652.67,0.29202,34.13,1756214.0
1625051412.140625,-681.46,0.29074,34.13,1756660.0
1625051412.15625,-685.19,0.289459,34.13,1757330.0
1625051412.171875,-667.98,0.286897,34.13,1757679.0
1625051412.1875,-637.42,0.286897,34.11,1758392.0
1625051412.203125,-601.34,0.289459,34.11,1759457.0
1625051412.21875,-565.22,0.29074,34.11,1759936.0
1625051412.234375,-531.33,0.289459,34.11,1758871.0
1625051412.25,-499.63,0.288178,34.11,1756632.0
1625051412.265625,-469.33,0.285616,34.11,1754842.0
1625051412.28125,-440.12,0.288178,34.11,1752636.0
1625051412.296875,-412.18,0.288178,34.11,1751226.0
1625051412.3125,-385.56,0.289459,34.09,1750624.0
1625051412.328125,-359.52,0.289459,34.09,1750259.0
1625051412.34375,-332.65,0.286897,34.09,1749734.0
1625051412.359375,-303.73,0.289459,34.09,1749510.0
1625051412.375,-272.65,0.286897,34.09,1749432.0
1625051412.390625,-240.56,0.288178,34.09,1749891.0
1625051412.40625,-209.18,0.29074,34.09,1750210.0
1625051412.421875,-179.82,0.29074,34.09,1751154.0
1625051412.4375,-152.39,0.288178,34.09,1752922.0
1625051412.453125,-125.31,0.288178,34.09,1754539.0
1625051412.46875,-96.3,0.288178,34.09,1755775.0
1625051412.484375,-63.65,0.289459,34.09,1757008.0
1625051412.5,-27.18,0.289459,34.11,1758355.0
1625051412.515625,11.56,0.29074,34.11,1759462.0
1625051412.53125,49.89,0.29074,34.11,1759289.0
1625051412.546875,85.36,0.288178,34.11,1756725.0
1625051412.5625,116.75,0.286897,34.09,1754903.0
1625051412.578125,144.85,0.288178,34.09,1753061.0
1625051412.59375,172.19,0.289459,34.09,1751767.0
1625051412.609375,202.28,0.289459,34.09,1751610.0
1625051412.625,238.46,0.289459,34.11,1751591.0
1625051412.640625,282.29,0.285616,34.11,1751042.0
1625051412.65625,332.1,0.286897,34.11,1750698.0
1625051412.671875,382.2,0.285616,34.11,1750869.0
1625051412.6875,423.67,0.288178,34.09,1751020.0
1625051412.703125,447.16,0.289459,34.09,1751701.0
1625051412.71875,446.78,0.288178,34.09,1752178.0
1625051412.734375,423.37,0.285616,34.09,1753330.0
1625051412.75,385.47,0.288178,34.07,1754323.0
1625051412.765625,346.89,0.285616,34.07,1755284.0
1625051412.78125,321.78,0.288178,34.07,1756197.0
1625051412.796875,319.38,0.289459,34.07,1756353.0
1625051412.8125,340.91,0.288178,34.09,1756661.0
1625051412.828125,379.69,0.289459,34.09,1756809.0
1625051412.84375,424.1,0.285616,34.09,1756043.0
1625051412.859375,461.98,0.288178,34.09,1754063.0
1625051412.875,484.65,0.284336,34.09,1752188.0
1625051412.890625,488.97,0.288178,34.09,1750627.0
1625051412.90625,477.07,0.289459,34.09,1748369.0
1625051412.921875,454.43,0.288178,34.09,1747882.0
1625051412.9375,427.04,0.288178,34.07,1747990.0
1625051412.953125,399.12,0.285616,34.07,1747777.0
1625051412.96875,372.06,0.285616,34.07,1747742.0
1625051412.984375,344.62,0.29074,34.07,1747508.0
1625051413.0,314.35,0.29074,34.09,1747740.0
1625051413.015625,279.08,0.29074,34.09,1749446.0
1625051413.03125,237.82,0.289459,34.09,1750854.0
1625051413.046875,190.97,0.289459,34.09,1750854.0
1625051413.0625,140.14,0.29074,34.07,1752429.0
1625051413.078125,88.17,0.29202,34.07,1753693.0
1625051413.09375,39.0,0.29074,34.07,1755663.0
1625051413.109375,-2.8,0.293301,34.07,1757194.0
1625051413.125,-33.51,0.29202,34.09,1758815.0
1625051413.140625,-52.03,0.288178,34.09,1759981.0
1625051413.15625,-60.77,0.288178,34.09,1760900.0
1625051413.171875,-65.06,0.289459,34.09,1760668.0
1625051413.1875,-70.8,0.289459,34.09,1759403.0
1625051413.203125,-81.93,0.29074,34.09,1757199.0
1625051413.21875,-99.44,0.29074,34.09,1755083.0
1625051413.234375,-121.94,0.286897,34.09,1753851.0
1625051413.25,-147.08,0.286897,34.09,1752824.0
1625051413.265625,-172.37,0.285616,34.09,1753183.0
1625051413.28125,-195.13,0.288178,34.09,1752703.0
1625051413.296875,-212.35,0.288178,34.09,1752659.0
1625051413.3125,-221.06,0.289459,34.11,1752205.0
1625051413.328125,-219.76,0.289459,34.11,1752503.0
1625051413.34375,-209.73,0.288178,34.11,1754376.0
1625051413.359375,-195.35,0.285616,34.11,1755690.0
1625051413.375,-182.64,0.285616,34.09,1757288.0
1625051413.390625,-176.6,0.285616,34.09,1759337.0
1625051413.40625,-179.25,0.288178,34.09,1759969.0
1625051413.421875,-189.01,0.286897,34.09,1762504.0
1625051413.4375,-201.8,0.288178,34.07,1767379.0
1625051413.453125,-212.64,0.286897,34.07,1770303.0
1625051413.46875,-217.14,0.284336,34.07,1771510.0
1625051413.484375,-212.46,0.284336,34.07,1774055.0
1625051413.5,-197.81,0.285616,34.07,1775436.0
1625051413.515625,-174.96,0.288178,34.07,1776556.0
1625051413.53125,-148.11,0.288178,34.07,1777455.0
1625051413.546875,-122.57,0.286897,34.07,1779267.0
1625051413.5625,-102.28,0.285616,34.05,1781068.0
1625051413.578125,-87.72,0.284336,34.05,1786074.0
1625051413.59375,-75.75,0.284336,34.05,1791545.0
1625051413.609375,-61.66,0.285616,34.05,1799066.0
1625051413.625,-42.6,0.286897,34.05,1802535.0
1625051413.640625,-19.39,0.288178,34.05,1803950.0
1625051413.65625,4.03,0.286897,34.05,1805924.0
1625051413.671875,23.12,0.285616,34.05,1808294.0
1625051413.6875,35.57,0.283055,34.05,1805301.0
1625051413.703125,42.26,0.283055,34.05,1808623.0
1625051413.71875,45.9,0.283055,34.05,1813234.0
1625051413.734375,48.79,0.285616,34.05,1815677.0
1625051413.75,51.04,0.286897,34.07,1820018.0
1625051413.765625,50.68,0.286897,34.07,1832219.0
1625051413.78125,45.18,0.285616,34.07,1838858.0
1625051413.796875,33.08,0.283055,34.07,1845360.0
1625051413.8125,14.62,0.285616,34.05,1847686.0
1625051413.828125,-9.1,0.283055,34.05,1846258.0
1625051413.84375,-36.98,0.285616,34.05,1846534.0
1625051413.859375,-68.41,0.286897,34.05,1844227.0
1625051413.875,-102.61,0.286897,34.05,1844924.0
1625051413.890625,-137.4,0.284336,34.05,1851393.0
1625051413.90625,-168.55,0.283055,34.05,1854345.0
1625051413.921875,-190.44,0.284336,34.05,1857704.0
1625051413.9375,-197.81,0.286897,34.05,1858011.0
1625051413.953125,-187.58,0.29074,34.05,1857790.0
1625051413.96875,-160.29,0.289459,34.05,1855151.0
1625051413.984375,-120.48,0.289459,34.05,1855582.0
1625051414.0,-75.83,0.285616,34.05,1856097.0
1625051414.015625,-35.27,0.284336,34.05,1856675.0
1625051414.03125,-6.45,0.286897,34.05,1857719.0
1625051414.046875,6.62,0.288178,34.05,1857512.0
1625051414.0625,4.68,0.288178,34.05,1857274.0
1625051414.078125,-7.36,0.286897,34.05,1856995.0
1625051414.09375,-22.46,0.284336,34.05,1856548.0
1625051414.109375,-34.1,0.284336,34.05,1854399.0
1625051414.125,-38.23,0.283055,34.03,1851899.0
1625051414.140625,-33.95,0.285616,34.03,1850140.0
1625051414.15625,-22.69,0.285616,34.03,1843467.0
1625051414.171875,-7.7,0.286897,34.03,1829859.0
1625051414.1875,8.17,0.285616,34.05,1823020.0
1625051414.203125,23.0,0.283055,34.05,1818826.0
1625051414.21875,36.13,0.284336,34.05,1815584.0
1625051414.234375,48.02,0.285616,34.05,1814570.0
1625051414.25,59.6,0.286897,34.05,1813076.0
1625051414.265625,71.35,0.286897,34.05,1812342.0
1625051414.28125,82.66,0.285616,34.05,1813014.0
1625051414.296875,91.94,0.283055,34.05,1813966.0
1625051414.3125,96.45,0.283055,34.07,1815758.0
1625051414.328125,94.65,0.281774,34.07,1818310.0
1625051414.34375,87.35,0.281774,34.07,1821824.0
1625051414.359375,78.1,0.284336,34.07,1826094.0
1625051414.375,71.78,0.283055,34.07,1829423.0
1625051414.390625,71.88,0.283055,34.07,1832690.0
1625051414.40625,78.13,0.281774,34.07,1835848.0
1625051414.421875,86.2,0.281774,34.07,1836338.0
1625051414.4375,90.32,0.285616,34.05,1834564.0
1625051414.453125,85.02,0.285616,34.05,1832956.0
1625051414.46875,70.04,0.286897,34.05,1830492.0
1625051414.484375,50.46,0.286897,34.05,1828890.0
1625051414.5,34.8,0.285616,34.05,1828028.0
1625051414.515625,31.56,0.283055,34.05,1827103.0
1625051414.53125,45.94,0.284336,34.05,1826827.0
1625051414.546875,77.86,0.284336,34.05,1826417.0
1625051414.5625,122.15,0.283055,34.05,1826864.0
1625051414.578125,171.99,0.284336,34.05,1827194.0
1625051414.59375,215.84,0.284336,34.05,1829235.0
1625051414.609375,245.67,0.280493,34.05,1830509.0
1625051414.625,257.43,0.280493,34.07,1831611.0
1625051414.640625,252.47,0.280493,34.07,1831774.0
1625051414.65625,237.04,0.283055,34.07,1831386.0
1625051414.671875,219.78,0.283055,34.07,1828155.0
1625051414.6875,207.92,0.284336,34.05,1823067.0
1625051414.703125,203.66,0.281774,34.05,1818201.0
1625051414.71875,206.6,0.281774,34.05,1806991.0
1625051414.734375,204.47,0.280493,34.05,1794946.0
1625051414.75,189.34,0.283055,34.03,1785676.0
1625051414.765625,158.43,0.284336,34.03,1781379.0
1625051414.78125,116.25,0.284336,34.03,1783760.0
1625051414.796875,73.1,0.281774,34.03,1789087.0
1625051414.8125,40.36,0.281774,34.03,1797147.0
1625051414.828125,25.2,0.280493,34.03,1804176.0
1625051414.84375,27.37,0.283055,34.03,1809080.0
1625051414.859375,45.59,0.284336,34.03,1813100.0
1625051414.875,62.68,0.295863,34.03,1813733.0
1625051414.890625,68.34,0.284336,34.03,1815806.0
1625051414.90625,56.39,0.280493,34.03,1816761.0
1625051414.921875,26.28,0.280493,34.03,1831077.0
1625051414.9375,-17.54,0.280493,34.03,1846893.0
1625051414.953125,-67.52,0.284336,34.03,1851657.0
1625051414.96875,-115.32,0.284336,34.03,1849574.0
1625051414.984375,-153.9,0.285616,34.03,1849181.0
1625051415.0,-170.94,0.285616,34.03,1848276.0
1625051415.015625,-172.46,0.283055,34.03,1852474.0
1625051415.03125,-158.24,0.283055,34.03,1852618.0
1625051415.046875,-128.79,0.286897,34.03,1850350.0
1625051415.0625,-84.6,0.285616,34.0,1849281.0
1625051415.078125,-26.0,0.285616,34.0,1846237.0
1625051415.09375,45.93,0.285616,34.0,1841976.0
1625051415.109375,127.71,0.283055,34.0,1838004.0
1625051415.125,163.2,0.281774,34.05,1834730.0
1625051415.140625,200.5,0.284336,34.05,1831807.0
1625051415.15625,218.18,0.285616,34.05,1829765.0
1625051415.171875,207.14,0.285616,34.05,1827110.0
1625051415.1875,166.22,0.285616,34.0,1825315.0
1625051415.203125,103.85,0.281774,34.0,1823113.0
1625051415.21875,35.76,0.283055,34.0,1820667.0
1625051415.234375,-20.62,0.280493,34.0,1819144.0
1625051415.25,-52.38,0.284336,34.03,1818081.0
1625051415.265625,-54.83,0.285616,34.03,1817431.0
1625051415.28125,-23.92,0.284336,34.03,1816342.0
1625051415.296875,23.17,0.283055,34.03,1814919.0
1625051415.3125,75.85,0.280493,34.0,1812531.0
1625051415.328125,124.89,0.280493,34.0,1809658.0
1625051415.34375,163.66,0.283055,34.0,1806922.0
1625051415.359375,188.14,0.284336,34.0,1806032.0
1625051415.375,196.58,0.283055,34.0,1805303.0
1625051415.390625,188.87,0.284336,34.0,1803360.0
1625051415.40625,166.13,0.281774,34.0,1800757.0
1625051415.421875,135.87,0.280493,34.0,1797321.0
1625051415.4375,93.64,0.280493,34.03,1793165.0
1625051415.453125,41.96,0.283055,34.03,1789448.0
1625051415.46875,-14.37,0.284336,34.03,1787655.0
1625051415.484375,-67.72,0.284336,34.03,1786624.0
1625051415.5,-108.67,0.281774,34.03,1786395.0
1625051415.515625,-129.38,0.281774,34.03,1786087.0
1625051415.53125,-127.88,0.280493,34.03,1787163.0
1625051415.546875,-109.84,0.283055,34.03,1787374.0
1625051415.5625,-82.41,0.285616,34.0,1787726.0
1625051415.578125,-59.9,0.284336,34.0,1788144.0
1625051415.59375,-46.51,0.284336,34.0,1789211.0
1625051415.609375,-38.55,0.283055,34.0,1789634.0
1625051415.625,-27.97,0.284336,34.0,1790531.0
1625051415.640625,-8.93,0.285616,34.0,1791160.0
1625051415.65625,17.33,0.285616,34.0,1786402.0
1625051415.671875,42.57,0.285616,34.0,1781270.0
1625051415.6875,56.9,0.284336,34.0,1779441.0
1625051415.703125,57.36,0.283055,34.0,1772504.0
1625051415.71875,46.06,0.283055,34.0,1762471.0
1625051415.734375,33.68,0.281774,34.0,1753565.0
1625051415.75,30.91,0.285616,33.99,1750356.0
1625051415.765625,41.67,0.286897,33.99,1752263.0
1625051415.78125,60.49,0.286897,33.99,1758722.0
1625051415.796875,75.36,0.283055,33.99,1762480.0
1625051415.8125,74.41,0.285616,33.99,1767162.0
1625051415.828125,51.96,0.281774,33.99,1771188.0
1625051415.84375,11.27,0.284336,33.99,1775022.0
1625051415.859375,-39.88,0.285616,33.99,1776950.0
1625051415.875,-92.47,0.284336,34.0,1779964.0
1625051415.890625,-141.53,0.286897,34.0,1780793.0
1625051415.90625,-187.56,0.283055,34.0,1785288.0
1625051415.921875,-234.26,0.284336,34.0,1791365.0
1625051415.9375,-284.6,0.281774,34.0,1794580.0
1625051415.953125,-337.76,0.284336,34.0,1797256.0
1625051415.96875,-388.69,0.284336,34.0,1794430.0
1625051415.984375,-430.53,0.283055,34.0,1793550.0
1625051416.0,-457.78,0.283055,33.99,1791670.0
1625051416.015625,-468.53,0.280493,33.99,1791663.0
1625051416.03125,-464.25,0.280493,33.99,1795124.0
1625051416.046875,-448.04,0.283055,33.99,1807700.0
1625051416.0625,-422.19,0.284336,33.99,1813609.0
1625051416.078125,-387.12,0.285616,33.99,1821437.0
1625051416.09375,-342.44,0.284336,33.99,1817866.0
1625051416.109375,-289.05,0.283055,33.99,1818643.0
1625051416.125,-230.68,0.281774,34.0,1819545.0
1625051416.140625,-173.47,0.280493,34.0,1822295.0
1625051416.15625,-123.45,0.284336,34.0,1826048.0
1625051416.171875,-83.45,0.284336,34.0,1824954.0
1625051416.1875,-51.59,0.284336,33.97,1822182.0
1625051416.203125,-22.67,0.284336,33.97,1819807.0
1625051416.21875,8.19,0.281774,33.97,1818235.0
1625051416.234375,41.92,0.283055,33.97,1815631.0
1625051416.25,74.14,0.280493,33.97,1811346.0
1625051416.265625,97.14,0.283055,33.97,1806373.0
1625051416.28125,103.93,0.283055,33.97,1801990.0
1625051416.296875,92.07,0.283055,33.97,1797348.0
1625051416.3125,65.4,0.284336,33.97,1793782.0
1625051416.328125,32.81,0.280493,33.97,1791517.0
1625051416.34375,4.72,0.280493,33.97,1789409.0
1625051416.359375,-10.27,0.280493,33.97,1786551.0
1625051416.375,-7.4,0.281774,33.97,1783922.0
1625051416.390625,14.06,0.284336,33.97,1782327.0
1625051416.40625,51.52,0.283055,33.97,1781562.0
1625051416.421875,99.7,0.283055,33.97,1779617.0
1625051416.4375,151.13,0.280493,33.97,1779186.0
1625051416.453125,197.06,0.280493,33.97,1778895.0
1625051416.46875,229.3,0.283055,33.97,1778163.0
1625051416.484375,242.91,0.283055,33.97,1777086.0
1625051416.5,238.26,0.284336,33.97,1775297.0
1625051416.515625,220.89,0.283055,33.97,1772921.0
1625051416.53125,199.12,0.280493,33.97,1769416.0
1625051416.546875,180.16,0.280493,33.97,1766185.0
1625051416.5625,166.92,0.280493,33.95,1763621.0
1625051416.578125,157.51,0.283055,33.95,1761287.0
1625051416.59375,147.29,0.284336,33.95,1758451.0
1625051416.609375,132.39,0.284336,33.95,1755936.0
1625051416.625,112.44,0.281774,33.99,1754535.0
1625051416.640625,90.75,0.281774,33.99,1752777.0
1625051416.65625,72.26,0.280493,33.99,1750581.0
1625051416.671875,60.51,0.283055,33.99,1749778.0
1625051416.6875,55.69,0.283055,33.97,1748611.0
1625051416.703125,54.75,0.284336,33.97,1748001.0
1625051416.71875,53.5,0.279212,33.97,1747528.0
1625051416.734375,48.96,0.276651,33.97,1746914.0
1625051416.75,40.89,0.276651,33.97,1746506.0
1625051416.765625,31.56,0.280493,33.97,1745973.0
1625051416.78125,24.15,0.284336,33.97,1745564.0
1625051416.796875,20.75,0.284336,33.97,1743373.0
1625051416.8125,21.45,0.286897,33.95,1742588.0
1625051416.828125,24.9,0.284336,33.95,1739768.0
1625051416.84375,29.83,0.281774,33.95,1738879.0
1625051416.859375,36.38,0.280493,33.95,1737749.0
1625051416.875,45.79,0.283055,33.97,1737701.0
1625051416.890625,59.12,0.284336,33.97,1737768.0
1625051416.90625,75.52,0.283055,33.97,1739756.0
1625051416.921875,91.49,0.284336,33.97,1740646.0
1625051416.9375,101.83,0.283055,33.95,1741347.0
1625051416.953125,101.71,0.280493,33.95,1739855.0
1625051416.96875,88.71,0.280493,33.95,1739247.0
1625051416.984375,63.46,0.283055,33.95,1751411.0
1625051417.0,29.27,0.284336,33.95,1760661.0
1625051417.015625,-9.67,0.284336,33.95,1764343.0
1625051417.03125,-49.9,0.281774,33.95,1759442.0
1625051417.046875,-89.55,0.279212,33.95,1757597.0
1625051417.0625,-128.55,0.281774,33.95,1757644.0
1625051417.078125,-168.52,0.280493,33.95,1757687.0
1625051417.09375,-212.33,0.280493,33.95,1760630.0
1625051417.109375,-263.22,0.284336,33.95,1761230.0
1625051417.125,-323.13,0.283055,33.95,1761261.0
1625051417.140625,-390.55,0.280493,33.95,1762524.0
1625051417.15625,-459.15,0.281774,33.95,1760537.0
1625051417.171875,-518.51,0.279212,33.95,1756623.0
1625051417.1875,-557.14,0.281774,33.95,1752348.0
1625051417.203125,-566.81,0.284336,33.95,1747904.0
1625051417.21875,-545.96,0.283055,33.95,1745034.0
1625051417.234375,-500.35,0.280493,33.95,1742651.0
1625051417.25,-440.81,0.280493,33.95,1739982.0
1625051417.265625,-378.99,0.279212,33.95,1738393.0
1625051417.28125,-323.39,0.281774,33.95,1736848.0
1625051417.296875,-277.31,0.283055,33.95,1735535.0
1625051417.3125,-239.29,0.283055,33.95,1734249.0
1625051417.328125,-205.27,0.283055,33.95,1734173.0
1625051417.34375,-170.92,0.279212,33.95,1733924.0
1625051417.359375,-133.1,0.279212,33.95,1733981.0
1625051417.375,-90.41,0.281774,33.95,1733820.0
1625051417.390625,-43.19,0.283055,33.95,1734101.0
1625051417.40625,6.45,0.277932,33.95,1735027.0
1625051417.421875,54.67,0.281774,33.95,1735850.0
1625051417.4375,96.66,0.280493,33.95,1737516.0
1625051417.453125,128.32,0.277932,33.95,1738890.0
1625051417.46875,148.26,0.277932,33.95,1739234.0
1625051417.484375,159.25,0.280493,33.95,1738842.0
1625051417.5,168.14,0.280493,33.95,1737170.0
1625051417.515625,183.68,0.281774,33.95,1735355.0
1625051417.53125,212.86,0.281774,33.95,1733038.0
1625051417.546875,257.3,0.280493,33.95,1731134.0
1625051417.5625,311.62,0.277932,33.93,1729911.0
1625051417.578125,364.74,0.277932,33.93,1729914.0
1625051417.59375,403.8,0.280493,33.93,1729964.0
1625051417.609375,418.86,0.281774,33.93,1729886.0
1625051417.625,406.25,0.280493,33.93,1729466.0
1625051417.640625,369.23,0.281774,33.93,1729391.0
1625051417.65625,316.02,0.277932,33.93,1729353.0
1625051417.671875,256.62,0.279212,33.93,1730052.0
1625051417.6875,200.06,0.280493,33.95,1730945.0
1625051417.703125,152.82,0.281774,33.95,1731222.0
1625051417.71875,118.75,0.281774,33.95,1731427.0
1625051417.734375,99.23,0.281774,33.95,1732388.0
1625051417.75,93.29,0.279212,33.93,1732307.0
1625051417.765625,97.41,0.277932,33.93,1733783.0
1625051417.78125,105.53,0.277932,33.93,1734814.0
1625051417.796875,110.19,0.277932,33.93,1735037.0
1625051417.8125,105.0,0.279212,33.93,1731536.0
1625051417.828125,87.02,0.281774,33.93,1730236.0
1625051417.84375,58.1,0.281774,33.93,1726340.0
1625051417.859375,24.08,0.279212,33.93,1723167.0
1625051417.875,-7.83,0.279212,33.95,1722780.0
1625051417.890625,-31.87,0.277932,33.95,1722467.0
1625051417.90625,-45.71,0.277932,33.95,1721678.0
1625051417.921875,-50.57,0.280493,33.95,1721419.0
1625051417.9375,-49.87,0.281774,33.91,1723176.0
1625051417.953125,-47.17,0.281774,33.91,1726715.0
1625051417.96875,-44.69,0.281774,33.91,1732724.0
1625051417.984375,-42.94,0.277932,33.91,1735748.0
1625051418.0,-41.41,0.277932,33.93,1734876.0
1625051418.015625,-39.84,0.277932,33.93,1734872.0
1625051418.03125,-38.88,0.277932,33.93,1735815.0
1625051418.046875,-40.0,0.281774,33.93,1737016.0
1625051418.0625,-44.51,0.279212,33.91,1739365.0
1625051418.078125,-52.45,0.279212,33.91,1740582.0
1625051418.09375,-62.16,0.277932,33.91,1741759.0
1625051418.109375,-70.78,0.276651,33.91,1742938.0
1625051418.125,-75.55,0.277932,33.93,1743694.0
1625051418.140625,-75.03,0.280493,33.93,1744256.0
1625051418.15625,-69.68,0.284336,33.93,1743594.0
1625051418.171875,-61.41,0.283055,33.93,1741660.0
1625051418.1875,-52.12,0.284336,33.91,1739593.0
1625051418.203125,-42.59,0.283055,33.91,1737884.0
1625051418.21875,-31.98,0.280493,33.91,1735957.0
1625051418.234375,-18.71,0.280493,33.91,1734562.0
1625051418.25,-2.05,0.280493,33.91,1734002.0
1625051418.265625,16.7,0.283055,33.91,1733749.0
1625051418.28125,34.03,0.284336,33.91,1732878.0
1625051418.296875,45.65,0.284336,33.91,1732719.0
1625051418.3125,48.77,0.284336,33.91,1732452.0
1625051418.328125,44.06,0.281774,33.91,1732333.0
1625051418.34375,35.83,0.280493,33.91,1732915.0
1625051418.359375,30.17,0.281774,33.91,1732906.0
1625051418.375,31.78,0.284336,33.93,1733736.0
1625051418.390625,41.13,0.284336,33.93,1734288.0
1625051418.40625,53.9,0.283055,33.93,1734742.0
1625051418.421875,62.95,0.281774,33.93,1735615.0
1625051418.4375,62.31,0.281774,33.93,1736558.0
1625051418.453125,50.68,0.279212,33.93,1736766.0
1625051418.46875,32.42,0.279212,33.93,1737254.0
1625051418.484375,15.07,0.29074,33.93,1736337.0
1625051418.5,5.14,0.280493,33.91,1734894.0
1625051418.515625,4.52,0.281774,33.91,1732731.0
1625051418.53125,9.69,0.281774,33.91,1730995.0
1625051418.546875,14.41,0.280493,33.91,1729590.0
1625051418.5625,13.9,0.279212,33.91,1727924.0
1625051418.578125,7.79,0.279212,33.91,1727632.0
1625051418.59375,-0.06,0.284336,33.91,1727898.0
1625051418.609375,-4.7,0.284336,33.91,1727914.0
1625051418.625,-3.86,0.283055,33.91,1727911.0
1625051418.640625,0.31,0.281774,33.91,1728512.0
1625051418.65625,2.76,0.280493,33.91,1728870.0
1625051418.671875,-0.57,0.279212,33.91,1729798.0
1625051418.6875,-9.42,0.279212,33.91,1731282.0
1625051418.703125,-18.55,0.279212,33.91,1729302.0
1625051418.71875,-20.89,0.281774,33.91,1730154.0
1625051418.734375,-12.28,0.283055,33.91,1730211.0
1625051418.75,5.09,0.283055,33.91,1733838.0
1625051418.765625,22.88,0.280493,33.91,1736502.0
1625051418.78125,30.65,0.277932,33.91,1740184.0
1625051418.796875,21.33,0.280493,33.91,1741919.0
1625051418.8125,-5.2,0.279212,33.91,1740884.0
1625051418.828125,-42.05,0.279212,33.91,1739994.0
1625051418.84375,-78.87,0.279212,33.91,1739756.0
1625051418.859375,-106.8,0.280493,33.91,1740508.0
1625051418.875,-121.84,0.281774,33.89,1741555.0
1625051418.890625,-125.33,0.279212,33.89,1742070.0
1625051418.90625,-121.68,0.277932,33.89,1742828.0
1625051418.921875,-115.21,0.277932,33.89,1743162.0
1625051418.9375,-108.0,0.279212,33.89,1743013.0
1625051418.953125,-99.97,0.280493,33.89,1743494.0
1625051418.96875,-90.46,0.281774,33.89,1743937.0
1625051418.984375,-80.21,0.281774,33.89,1744250.0
1625051419.0,-71.85,0.281774,33.89,1744999.0
1625051419.015625,-68.44,0.277932,33.89,1745326.0
1625051419.03125,-71.01,0.279212,33.89,1746050.0
1625051419.046875,-77.07,0.277932,33.89,1746667.0
1625051419.0625,-81.27,0.280493,33.91,1747025.0
1625051419.078125,-78.3,0.283055,33.91,1747227.0
1625051419.09375,-66.17,0.281774,33.91,1746247.0
1625051419.109375,-47.75,0.283055,33.91,1744085.0
1625051419.125,-29.44,0.280493,33.89,1741534.0
1625051419.140625,-17.71,0.279212,33.89,1738668.0
1625051419.15625,-15.51,0.279212,33.89,1736653.0
1625051419.171875,-20.72,0.280493,33.89,1735424.0
1625051419.1875,-27.42,0.283055,33.91,1733856.0
1625051419.203125,-28.91,0.281774,33.91,1731859.0
1625051419.21875,-20.63,0.283055,33.91,1730671.0
1625051419.234375,-1.64,0.280493,33.91,1729967.0
1625051419.25,25.7,0.279212,33.89,1728633.0
1625051419.265625,57.19,0.279212,33.89,1728105.0
1625051419.28125,88.16,0.279212,33.89,1728137.0
1625051419.296875,114.73,0.281774,33.89,1728652.0
1625051419.3125,134.54,0.281774,33.89,1728620.0
1625051419.328125,147.23,0.283055,33.89,1728704.0
1625051419.34375,154.45,0.283055,33.89,1729154.0
1625051419.359375,159.42,0.280493,33.89,1729507.0
1625051419.375,165.94,0.281774,33.91,1729902.0
1625051419.390625,177.18,0.279212,33.91,1729630.0
1625051419.40625,194.88,0.283055,33.91,1727249.0
1625051419.421875,218.74,0.283055,33.91,1724131.0
1625051419.4375,246.69,0.283055,33.89,1721418.0
1625051419.453125,275.25,0.283055,33.89,1719557.0
1625051419.46875,299.89,0.280493,33.89,1717700.0
1625051419.484375,315.83,0.280493,33.89,1716757.0
1625051419.5,318.86,0.279212,33.91,1715430.0
1625051419.515625,306.51,0.281774,33.91,1713644.0
1625051419.53125,278.73,0.283055,33.91,1711424.0
1625051419.546875,237.98,0.283055,33.91,1712259.0
1625051419.5625,188.08,0.283055,33.91,1710062.0
1625051419.578125,133.35,0.279212,33.91,1710101.0
1625051419.59375,77.41,0.279212,33.91,1710208.0
1625051419.609375,22.6,0.277932,33.91,1710313.0
1625051419.625,-30.03,0.280493,33.89,1710697.0
1625051419.640625,-80.2,0.280493,33.89,1710032.0
1625051419.65625,-128.13,0.283055,33.89,1708530.0
1625051419.671875,-174.76,0.283055,33.89,1701930.0
1625051419.6875,-221.57,0.281774,33.89,1699929.0
1625051419.703125,-271.91,0.279212,33.89,1694410.0
1625051419.71875,-328.34,0.271528,33.89,1691128.0
1625051419.734375,-391.05,0.266405,33.89,1710469.0
1625051419.75,-456.12,0.267685,33.89,1690192.0
1625051419.765625,-515.32,0.267685,33.89,1701533.0
1625051419.78125,-558.33,0.265124,33.89,1709850.0
1625051419.796875,-576.82,0.263843,33.89,1716710.0
1625051419.8125,-568.14,0.262562,33.89,1694103.0
1625051419.828125,-535.71,0.266405,33.89,1720710.0
1625051419.84375,-489.9,0.268966,33.89,1725745.0
1625051419.859375,-440.72,0.271528,33.89,1728521.0
1625051419.875,-394.5,0.267685,34.07,1729760.0
1625051419.890625,-352.06,0.265124,34.07,1732394.0
1625051419.90625,-310.03,0.274089,34.07,1733991.0
1625051419.921875,-264.07,0.271528,34.07,1734367.0
1625051419.9375,-211.85,0.279212,34.5,1735222.0
1625051419.953125,-154.16,0.279212,34.5,1735410.0
1625051419.96875,-92.91,0.276651,34.5,1735571.0
1625051419.984375,-34.69,0.276651,34.5,1735615.0
1625051420.0,14.44,0.276651,34.84,1734570.0
1625051420.015625,48.38,0.277932,34.84,1727994.0
1625051420.03125,62.41,0.280493,34.84,1723653.0
1625051420.046875,55.25,0.276651,34.84,1719132.0
1625051420.0625,30.78,0.271528,35.21,1715645.0
1625051420.078125,-2.26,0.272808,35.21,1732250.0
1625051420.09375,-32.64,0.274089,35.21,1713323.0
1625051420.109375,-48.59,0.274089,35.21,1710659.0
1625051420.125,-46.95,0.274089,35.15,1708875.0
1625051420.140625,-28.13,0.274089,35.15,1707751.0
1625051420.15625,3.89,0.280493,35.15,1707934.0
1625051420.171875,44.53,0.284336,35.15,1708673.0
1625051420.1875,91.14,0.288178,35.11,1707493.0
1625051420.203125,143.17,0.29074,35.11,1709712.0
1625051420.21875,200.57,0.289459,35.11,1711285.0
1625051420.234375,248.91,0.289459,35.11,1711975.0
1625051420.25,298.36,0.286897,35.09,1710284.0
1625051420.265625,340.64,0.284336,35.09,1713208.0
1625051420.28125,369.98,0.284336,35.09,1713801.0
1625051420.296875,383.3,0.284336,35.09,1714415.0
1625051420.3125,381.45,0.285616,35.03,1714631.0
1625051420.328125,368.79,0.284336,35.03,1713051.0
1625051420.34375,351.3,0.280493,35.03,1710543.0
1625051420.359375,333.9,0.277932,35.03,1708454.0
1625051420.375,318.34,0.277932,35.0,1706658.0
1625051420.390625,304.73,0.280493,35.0,1704983.0
1625051420.40625,287.18,0.280493,35.0,1703726.0
1625051420.421875,262.69,0.279212,35.0,1702525.0
1625051420.4375,231.79,0.277932,34.97,1701895.0
1625051420.453125,198.96,0.277932,34.97,1700868.0
1625051420.46875,170.49,0.274089,34.97,1700348.0
1625051420.484375,150.8,0.27537,34.97,1699552.0
1625051420.5,139.83,0.274089,34.91,1699635.0
1625051420.515625,132.91,0.274089,34.91,1700114.0
1625051420.53125,124.8,0.276651,34.91,1700863.0
1625051420.546875,108.73,0.27537,34.91,1699667.0
1625051420.5625,83.51,0.274089,34.87,1702028.0
1625051420.578125,52.2,0.271528,34.87,1701254.0
1625051420.59375,20.27,0.270247,34.87,1702698.0
1625051420.609375,-6.76,0.271528,34.87,1703726.0
1625051420.625,-24.92,0.270247,34.87,1704211.0
1625051420.640625,-32.11,0.272808,34.87,1702873.0
1625051420.65625,-28.17,0.272808,34.87,1701510.0
1625051420.671875,-14.21,0.274089,34.87,1701028.0
1625051420.6875,4.27,0.271528,34.87,1700550.0
1625051420.703125,20.63,0.270247,34.87,1700378.0
1625051420.71875,28.29,0.270247,34.87,1700526.0
1625051420.734375,23.63,0.270247,34.87,1700239.0
1625051420.75,8.15,0.274089,,1700842.0
1625051420.765625,-12.01,0.272808,,1700629.0
1625051420.78125,-29.35,,,1701157.0
1625051420.796875,-39.22,,,1701853.0
1625051420.8125,-41.86,,,1702947.0
1625051420.828125,-42.95,,,1704263.0
1625051420.84375,-48.35,,,1705252.0
1625051420.859375,-60.47,,,1705330.0
1625051420.875,-76.52,,,1706487.0
1625051420.890625,-90.24,,,1707467.0
1625051420.90625,-96.13,,,1707701.0
1625051420.921875,-92.95,,,1707700.0
1625051420.9375,-84.46,,,1706361.0
1625051420.953125,-76.56,,,1704137.0
1625051420.96875,-73.88,,,1701346.0
1625051420.984375,-76.56,,,1699163.0
1625051421.0,-80.72,,,1697718.0
1625051421.015625,-81.34,,,1696477.0
1625051421.03125,-75.99,,,1695374.0
1625051421.046875,-66.74,,,1694204.0
1625051421.0625,-59.24,,,1692797.0
1625051421.078125,-59.34,,,1691303.0
1625051421.09375,-69.33,,,1690282.0
1625051421.109375,-86.01,,,1689417.0
1625051421.125,-101.61,,,1689274.0
1625051421.140625,-107.36,,,1689157.0
1625051421.15625,-97.78,,,1689211.0
1625051421.171875,-73.35,,,1688702.0
1625051421.1875,-40.35,,,1688114.0
1625051421.203125,-7.8,,,1687939.0
1625051421.21875,16.62,,,1688130.0
1625051421.234375,29.34,,,1688279.0
1625051421.25,31.34,,,1686883.0
1625051421.265625,26.02,,,1684146.0
1625051421.28125,16.49,,,1681184.0
1625051421.296875,3.76,,,1678319.0
1625051421.3125,-12.78,,,1676165.0
1625051421.328125,-33.57,,,1674498.0
1625051421.34375,-57.09,,,1673726.0
1625051421.359375,-79.5,,,1672664.0
1625051421.375,-95.95,,,1671619.0
1625051421.390625,-102.57,,,1670407.0
1625051421.40625,-98.13,,,1669602.0
1625051421.421875,-84.23,,,1669235.0
1625051421.4375,-64.52,,,1668947.0
1625051421.453125,-43.3,,,1668691.0
1625051421.46875,-24.46,,,1668302.0
1625051421.484375,-10.79,,,1668458.0
1625051421.5,-3.81,,,1666363.0
1625051421.515625,-3.78,,,1662181.0
1625051421.53125,-9.92,,,1668676.0
1625051421.546875,-20.61,,,1667619.0
1625051421.5625,-33.58,,,1672327.0
1625051421.578125,-46.04,,,1677092.0
1625051421.59375,-54.99,,,1683684.0
1625051421.609375,-57.68,,,1689186.0
1625051421.625,-52.43,,,1694474.0
1625051421.640625,-39.32,,,1697343.0
1625051421.65625,-20.5,,,1697406.0
1625051421.671875,0.48,,,1696862.0
1625051421.6875,20.01,,,1698242.0
1625051421.703125,35.68,,,1708302.0
1625051421.71875,46.8,,,1715921.0
1625051421.734375,53.89,,,1718636.0
1625051421.75,57.64,,,1722733.0
1625051421.765625,58.27,,,1725787.0
1625051421.78125,55.55,,,1728400.0
1625051421.796875,49.47,,,1729622.0
1625051421.8125,40.73,,,1734577.0
1625051421.828125,30.55,,,1739271.0
1625051421.84375,19.89,,,1742987.0
1625051421.859375,8.88,,,1746012.0
1625051421.875,-2.92,,,1745898.0
1625051421.890625,-15.52,,,1746128.0
1625051421.90625,-27.5,,,1745038.0
1625051421.921875,-36.15,,,1743375.0
1625051421.9375,-39.04,,,1741332.0
1625051421.953125,-36.09,,,1739403.0
1625051421.96875,-30.51,,,1737898.0
1625051421.984375,-27.7,,,1736330.0
1625051422.0,-32.52,,,1735507.0
1625051422.015625,-46.21,,,1734218.0
1625051422.03125,-65.34,,,1733956.0
1625051422.046875,-83.18,,,1733848.0
1625051422.0625,-92.65,,,1732530.0
1625051422.078125,-89.15,,,1730449.0
1625051422.09375,-71.96,,,1729268.0
1625051422.109375,-43.82,,,1728617.0
1625051422.125,-9.64,,,1728428.0
1625051422.140625,24.91,,,1728473.0
1625051422.15625,54.26,,,1728164.0
1625051422.171875,73.82,,,1727739.0
1625051422.1875,81.14,,,1725588.0
1625051422.203125,77.06,,,1722950.0
1625051422.21875,65.85,,,1719687.0
1625051422.234375,53.8,,,1717098.0
1625051422.25,46.76,,,1715295.0
1625051422.265625,47.62,,,1713758.0
1625051422.28125,55.42,,,1713614.0
1625051422.296875,66.42,,,1712471.0
1625051422.3125,76.19,,,1711813.0
1625051422.328125,81.25,,,1711268.0
1625051422.34375,79.63,,,1711462.0
1625051422.359375,70.72,,,1712929.0
1625051422.375,55.27,,,1715076.0
1625051422.390625,35.86,,,1716299.0
1625051422.40625,17.33,,,1718808.0
1625051422.421875,5.97,,,1722289.0
1625051422.4375,7.06,,,1725737.0
1625051422.453125,21.68,,,1729560.0
1625051422.46875,44.81,,,1729934.0
1625051422.484375,66.53,,,1734075.0
1625051422.5,75.91,,,1734534.0
1625051422.515625,66.3,,,1737857.0
1625051422.53125,38.64,,,1740791.0
1625051422.546875,1.12,,,1739721.0
1625051422.5625,-34.69,,,1737974.0
1625051422.578125,-59.21,,,1738276.0
1625051422.59375,-68.78,,,1741616.0
1625051422.609375,-66.25,,,1743588.0
1625051422.625,-58.22,,,1740603.0
1625051422.640625,-50.76,,,1739601.0
1625051422.65625,-46.14,,,1741147.0
1625051422.671875,-42.23,,,1743757.0
1625051422.6875,-34.72,,,1746577.0
1625051422.703125,-20.31,,,1747864.0
1625051422.71875,0.88,,,1748041.0
1625051422.734375,25.25,,,1747636.0
1625051422.75,47.72,,,1746840.0
1625051422.765625,64.16,,,1745776.0
1625051422.78125,72.45,,,1743243.0
1625051422.796875,72.33,,,1740704.0
1625051422.8125,64.14,,,1737706.0
1625051422.828125,48.09,,,1734548.0
1625051422.84375,24.31,,,1732470.0
1625051422.859375,-6.22,,,1729843.0
1625051422.875,-41.22,,,1727903.0
1625051422.890625,-77.4,,,1726293.0
1625051422.90625,-111.51,,,1725116.0
1625051422.921875,-141.41,,,1724955.0
1625051422.9375,-165.9,,,1724602.0
1625051422.953125,-184.22,,,1724954.0
1625051422.96875,-194.94,,,1725671.0
1625051422.984375,-195.8,,,1726799.0
1625051423.0,-184.54,,,1727698.0
1625051423.015625,-159.92,,,1728761.0
1625051423.03125,-122.16,,,1730497.0
1625051423.046875,-72.33,,,1731991.0
1625051423.0625,-11.75,,,1734144.0
1625051423.078125,57.83,,,1736193.0
1625051423.09375,132.84,,,1738079.0
1625051423.109375,206.13,,,1737714.0
1625051423.125,266.97,,,1736311.0
1625051423.140625,303.72,,,1734546.0
1625051423.15625,308.73,,,1732750.0
1625051423.171875,282.68,,,1731774.0
1625051423.1875,235.6,,,1730703.0
1625051423.203125,183.02,,,1731219.0
1625051423.21875,139.02,,,1731269.0
1625051423.234375,109.93,,,1730305.0
1625051423.25,92.36,,,1729456.0
1625051423.265625,76.52,,,1727922.0
1625051423.28125,52.41,,,1728032.0
1625051423.296875,15.54,,,1726285.0
1625051423.3125,-31.27,,,1723950.0
1625051423.328125,-79.94,,,1724168.0
1625051423.34375,-121.31,,,1727595.0
1625051423.359375,-148.25,,,1732818.0
1625051423.375,-156.93,,,1738288.0
1625051423.390625,-146.44,,,1740735.0
1625051423.40625,-118.49,,,1741670.0
1625051423.421875,-77.82,,,1739615.0
1625051423.4375,-32.23,,,1738396.0
1625051423.453125,8.44,,,1738432.0
1625051423.46875,35.5,,,1739759.0
1625051423.484375,45.07,,,1740436.0
1625051423.5,40.12,,,1741423.0
1625051423.515625,29.21,,,1742274.0
1625051423.53125,22.15,,,1742651.0
1625051423.546875,25.33,,,1742399.0
1625051423.5625,38.84,,,1742527.0
1625051423.578125,57.16,,,1743261.0
1625051423.59375,72.64,,,1743875.0
1625051423.609375,79.52,,,1744139.0
1625051423.625,76.41,,,1745055.0
1625051423.640625,66.34,,,1746209.0
1625051423.65625,54.71,,,1748298.0
1625051423.671875,46.78,,,1749595.0
1625051423.6875,45.9,,,1751838.0
1625051423.703125,52.88,,,1751934.0
1625051423.71875,66.45,,,1751961.0
1625051423.734375,83.83,,,1751341.0
1625051423.75,101.42,,,1749386.0
1625051423.765625,115.09,,,1747399.0
1625051423.78125,120.62,,,1744679.0
1625051423.796875,114.57,,,1744149.0
1625051423.8125,95.59,,,1742179.0
1625051423.828125,65.61,,,1740934.0
1625051423.84375,30.18,,,1740073.0
1625051423.859375,-2.51,,,1739024.0
1625051423.875,-24.23,,,1737636.0
1625051423.890625,-29.66,,,1735865.0
1625051423.90625,-18.57,,,1734987.0
1625051423.921875,4.04,,,1733628.0
1625051423.9375,29.97,,,1732682.0
1625051423.953125,51.23,,,1731454.0
1625051423.96875,63.13,,,1731098.0
1625051423.984375,65.59,,,1730411.0
1625051424.0,62.3,,,1729100.0
1625051424.015625,58.28,,,1725820.0
1625051424.03125,57.17,,,1722924.0
1625051424.046875,59.44,,,1719594.0
1625051424.0625,62.43,,,1717009.0
1625051424.078125,61.89,,,1715117.0
1625051424.09375,54.39,,,1713652.0
1625051424.109375,39.1,,,1712925.0
1625051424.125,18.4,,,1712327.0
1625051424.140625,-3.28,,,1711409.0
1625051424.15625,-21.41,,,1710944.0
1625051424.171875,-33.38,,,1710650.0
1625051424.1875,-39.22,,,1710920.0
1625051424.203125,-41.07,,,1711185.0
1625051424.21875,-41.66,,,1711661.0
1625051424.234375,-42.77,,,1712737.0
1625051424.25,-44.75,,,1713719.0
1625051424.265625,-47.09,,,1714747.0
1625051424.28125,-49.68,,,1715840.0
1625051424.296875,-53.59,,,1716214.0
1625051424.3125,-60.84,,,1714589.0
1625051424.328125,-73.17,,,1712507.0
1625051424.34375,-90.69,,,1710293.0
1625051424.359375,-111.31,,,1708780.0
1625051424.375,-131.4,,,1708318.0
1625051424.390625,-147.45,,,1708106.0
1625051424.40625,-157.54,,,1707472.0
1625051424.421875,-161.87,,,1706590.0
1625051424.4375,-162.37,,,1705637.0
1625051424.453125,-161.23,,,1704800.0
1625051424.46875,-159.47,,,1704708.0
1625051424.484375,-156.29,,,1704686.0
1625051424.5,-149.52,,,1705359.0
1625051424.515625,-137.18,,,1706462.0
1625051424.53125,-119.31,,,1707478.0
1625051424.546875,-99.18,,,1708077.0
1625051424.5625,-82.79,,,1708540.0
1625051424.578125,-76.67,,,1708674.0
1625051424.59375,-84.86,,,1707549.0
1625051424.609375,-106.62,,,1705215.0
1625051424.625,-136.16,,,1702850.0
1625051424.640625,-164.71,,,1700797.0
1625051424.65625,-183.86,,,1699331.0
1625051424.671875,-188.68,,,1698166.0
1625051424.6875,-178.88,,,1697761.0
1625051424.703125,-157.97,,,1696921.0
1625051424.71875,-131.05,,,1696208.0
1625051424.734375,-102.65,,,1696408.0
1625051424.75,-75.57,,,1697335.0
1625051424.765625,-50.88,,,1698486.0
1625051424.78125,-28.65,,,1700415.0
1625051424.796875,-8.82,,,1702898.0
1625051424.8125,7.9,,,1706301.0
1625051424.828125,19.44,,,1709692.0
1625051424.84375,22.38,,,1712697.0
1625051424.859375,13.12,,,1712674.0
1625051424.875,-9.84,,,1709806.0
1625051424.890625,-43.9,,,1708680.0
1625051424.90625,-82.0,,,1705687.0
1625051424.921875,-114.63,,,1702440.0
1625051424.9375,-133.6,,,1703016.0
1625051424.953125,-135.59,,,1704110.0
1625051424.96875,-123.09,,,1709005.0
1625051424.984375,-102.54,,,1715565.0
1625051425.0,-80.4,,,1719189.0
1625051425.015625,-59.99,,,1723697.0
1625051425.03125,-40.67,,,1723939.0
1625051425.046875,-19.53,,,1724552.0
1625051425.0625,5.58,,,1724831.0
1625051425.078125,34.19,,,1725072.0
1625051425.09375,63.19,,,1727482.0
1625051425.109375,88.79,,,1738537.0
1625051425.125,108.55,,,1744462.0
1625051425.140625,122.37,,,1742665.0
1625051425.15625,131.79,,,1741586.0
1625051425.171875,138.34,,,1740027.0
1625051425.1875,142.3,,,1739842.0
1625051425.203125,142.63,,,1737789.0
1625051425.21875,137.95,,,1735330.0
1625051425.234375,127.92,,,1733237.0
1625051425.25,113.94,,,1731436.0
1625051425.265625,98.91,,,1731294.0
1625051425.28125,86.16,,,1731216.0
1625051425.296875,78.16,,,1730255.0
1625051425.3125,75.89,,,1729896.0
1625051425.328125,78.63,,,1730193.0
1625051425.34375,84.35,,,1730071.0
1625051425.359375,90.02,,,1730694.0
1625051425.375,92.0,,,1730892.0
1625051425.390625,86.75,,,1730880.0
1625051425.40625,71.9,,,1730932.0
1625051425.421875,47.56,,,1733427.0
1625051425.4375,17.34,,,1735855.0
1625051425.453125,-11.97,,,1738087.0
1625051425.46875,-32.51,,,1738033.0
1625051425.484375,-38.45,,,1738332.0
1625051425.5,-28.7,,,1739587.0
1625051425.515625,-7.71,,,1739699.0
1625051425.53125,16.12,,,1740548.0
1625051425.546875,34.01,,,1741564.0
1625051425.5625,40.42,,,1742984.0
1625051425.578125,35.41,,,1743709.0
1625051425.59375,24.34,,,1744891.0
1625051425.609375,15.41,,,1745478.0
1625051425.625,16.02,,,1747749.0
1625051425.640625,29.62,,,1750183.0
1625051425.65625,54.2,,,1753339.0
1625051425.671875,82.89,,,1756138.0
1625051425.6875,106.33,,,1759886.0
1625051425.703125,115.87,,,1762867.0
1625051425.71875,106.74,,,1766523.0
1625051425.734375,79.87,,,1768353.0
1625051425.75,41.87,,,1769154.0
1625051425.765625,2.87,,,1769290.0
1625051425.78125,-27.01,,,1767797.0
1625051425.796875,-41.32,,,1765817.0
1625051425.8125,-39.24,,,1765329.0
1625051425.828125,-25.05,,,1765649.0
1625051425.84375,-5.27,,,1764366.0
1625051425.859375,14.87,,,1764192.0
1625051425.875,33.34,,,1760675.0
1625051425.890625,51.0,,,1763770.0
1625051425.90625,69.08,,,1773184.0
1625051425.921875,86.61,,,1775911.0
1625051425.9375,99.6,,,1769291.0
1625051425.953125,102.75,,,1776829.0
1625051425.96875,92.58,,,1778961.0
1625051425.984375,69.89,,,1781146.0
1625051426.0,40.05,,,1782374.0
1625051426.015625,10.69,,,1778070.0
1625051426.03125,-11.8,,,1780309.0
1625051426.046875,-24.93,,,1780358.0
1625051426.0625,-30.69,,,1782711.0
1625051426.078125,-33.71,,,1778254.0
1625051426.09375,-38.28,,,1776057.0
1625051426.109375,-46.04,,,1773903.0
1625051426.125,-55.28,,,1772109.0
1625051426.140625,-62.11,,,1772427.0
1625051426.15625,-62.88,,,1772439.0
1625051426.171875,-56.13,,,1771952.0
1625051426.1875,-43.57,,,1771504.0
1625051426.203125,-29.29,,,1771957.0
1625051426.21875,-18.2,,,1772275.0
1625051426.234375,-14.07,,,1773321.0
1625051426.25,-18.45,,,1774912.0
1625051426.265625,-30.46,,,1776226.0
1625051426.28125,-47.2,,,1776866.0
1625051426.296875,-64.63,,,1778262.0
1625051426.3125,-78.54,,,1779359.0
1625051426.328125,-85.67,,,1780702.0
1625051426.34375,-84.79,,,1781540.0
1625051426.359375,-77.37,,,1781740.0
1625051426.375,-67.12,,,1780297.0
1625051426.390625,-58.34,,,1779012.0
1625051426.40625,-53.93,,,1778216.0
1625051426.421875,-53.91,,,1777098.0
1625051426.4375,-55.64,,,1777113.0
1625051426.453125,-55.48,,,1777883.0
1625051426.46875,-50.95,,,1777844.0
1625051426.484375,-42.18,,,1777027.0
1625051426.5,-31.73,,,1776453.0
1625051426.515625,-23.3,,,1775793.0
1625051426.53125,-20.09,,,1775725.0
1625051426.546875,-23.75,,,1775182.0
1625051426.5625,-34.33,,,1775350.0
1625051426.578125,-50.52,,,1774879.0
1625051426.59375,-69.88,,,1775757.0
1625051426.609375,-88.95,,,1776554.0
1625051426.625,-103.65,,,1777392.0
1625051426.640625,-110.21,,,1777970.0
1625051426.65625,-106.76,,,1776234.0
1625051426.671875,-94.43,,,1766851.0
1625051426.6875,-77.3,,,1761932.0
1625051426.703125,-61.1,,,1751028.0
1625051426.71875,-51.08,,,1741359.0
1625051426.734375,-50.11,,,1735661.0
1625051426.75,-57.96,,,1736962.0
1625051426.765625,-71.78,,,1744359.0
1625051426.78125,-87.16,,,1750259.0
1625051426.796875,-99.77,,,1752677.0
1625051426.8125,-106.53,,,1754566.0
1625051426.828125,-106.63,,,1757246.0
1625051426.84375,-101.47,,,1760116.0
1625051426.859375,-93.98,,,1762720.0
1625051426.875,-87.22,,,1764554.0
1625051426.890625,-82.85,,,1767212.0
1625051426.90625,-80.32,,,1769387.0
1625051426.921875,-77.05,,,1772188.0
1625051426.9375,-69.87,,,1773075.0
1625051426.953125,-56.63,,,1772311.0
1625051426.96875,-37.36,,,1769465.0
1625051426.984375,-13.93,,,1760449.0
1625051427.0,11.02,,,1753910.0
1625051427.015625,35.57,,,1751582.0
1625051427.03125,58.78,,,1751438.0
1625051427.046875,80.1,,,1751384.0
1625051427.0625,98.6,,,1751126.0
1625051427.078125,112.81,,,1750224.0
1625051427.09375,121.73,,,1750437.0
1625051427.109375,126.15,,,1751370.0
1625051427.125,129.03,,,1752233.0
1625051427.140625,134.34,,,1752952.0
1625051427.15625,144.88,,,1754359.0
1625051427.171875,160.23,,,1755616.0
1625051427.1875,176.49,,,1756885.0
1625051427.203125,188.25,,,1756860.0
1625051427.21875,191.8,,,1756812.0
1625051427.234375,187.91,,,1755462.0
1625051427.25,181.99,,,1753510.0
1625051427.265625,181.36,,,1751223.0
1625051427.28125,190.8,,,1749330.0
1625051427.296875,209.45,,,1747674.0
1625051427.3125,230.4,,,1746477.0
1625051427.328125,243.66,,,1746425.0
1625051427.34375,240.55,,,1745790.0
1625051427.359375,217.13,,,1745276.0
1625051427.375,174.56,,,1745036.0
1625051427.390625,116.95,,,1744702.0
1625051427.40625,48.45,,,1745191.0
1625051427.421875,-28.09,,,1746441.0
1625051427.4375,-109.74,,,1747215.0
1625051427.453125,-190.95,,,1747717.0
1625051427.46875,-262.01,,,1748315.0
1625051427.484375,-310.6,,,1749738.0
1625051427.5,-326.6,,,1749738.0
1625051427.515625,-307.06,,,1750445.0
1625051427.53125,-258.72,,,1751739.0
1625051427.546875,-195.95,,,1751840.0
1625051427.5625,-135.17,,,1750401.0
1625051427.578125,-88.81,,,1749360.0
1625051427.59375,-61.67,,,1749582.0
1625051427.609375,-50.95,,,1748548.0
1625051427.625,-49.34,,,1748353.0
1625051427.640625,-49.15,,,1749572.0
1625051427.65625,-45.09,,,1749348.0
1625051427.671875,-35.25,,,1748836.0
1625051427.6875,-20.49,,,1748168.0
1625051427.703125,-3.29,,,1750425.0
1625051427.71875,13.41,,,1752932.0
1625051427.734375,26.98,,,1753623.0
1625051427.75,35.78,,,1757154.0
1625051427.765625,39.64,,,1758106.0
1625051427.78125,39.79,,,1757944.0
1625051427.796875,38.76,,,1758685.0
1625051427.8125,39.43,,,1758892.0
1625051427.828125,44.06,,,1758956.0
1625051427.84375,53.36,,,1757851.0
1625051427.859375,66.14,,,1755928.0
1625051427.875,79.77,,,1754088.0
1625051427.890625,91.13,,,1752543.0
1625051427.90625,98.02,,,1750824.0
1625051427.921875,100.05,,,1749536.0
1625051427.9375,99.08,,,1749160.0
1625051427.953125,98.5,,,1748234.0
1625051427.96875,101.86,,,1747122.0
1625051427.984375,111.25,,,1746380.0
1625051428.0,126.17,,,1746590.0
1625051428.015625,143.47,,,1747134.0
1625051428.03125,158.46,,,1747719.0
1625051428.046875,166.81,,,1748559.0
1625051428.0625,166.23,,,1749031.0
1625051428.078125,157.31,,,1749201.0
1625051428.09375,142.81,,,1750083.0
1625051428.109375,125.97,,,1751818.0
1625051428.125,108.87,,,1753150.0
1625051428.140625,91.6,,,1754423.0
1625051428.15625,73.09,,,1754465.0
1625051428.171875,52.71,,,1752433.0
1625051428.1875,31.74,,,1749891.0
1625051428.203125,13.53,,,1747357.0
1625051428.21875,2.03,,,1744951.0
1625051428.234375,-0.43,,,1743137.0
1625051428.25,5.14,,,1742870.0
1625051428.265625,14.58,,,1741992.0
1625051428.28125,22.5,,,1740796.0
1625051428.296875,24.99,,,1740087.0
1625051428.3125,21.6,,,1739319.0
1625051428.328125,15.28,,,1739446.0
1625051428.34375,10.54,,,1739760.0
1625051428.359375,10.61,,,1740142.0
1625051428.375,15.5,,,1740937.0
1625051428.390625,21.88,,,1741988.0
1625051428.40625,24.89,,,1743025.0
1625051428.421875,20.84,,,1744608.0
1625051428.4375,9.28,,,1746017.0
1625051428.453125,-6.7,,,1744748.0
1625051428.46875,-22.01,,,1743800.0
1625051428.484375,-32.16,,,1741628.0
1625051428.5,-35.45,,,1737850.0
1625051428.515625,-33.59,,,1734075.0
1625051428.53125,-30.5,,,1732494.0
1625051428.546875,-30.16,,,1735998.0
1625051428.5625,-34.5,,,1739679.0
1625051428.578125,-42.63,,,1741012.0
1625051428.59375,-51.59,,,1741917.0
1625051428.609375,-58.12,,,1742187.0
1625051428.625,-60.37,,,1741595.0
1625051428.640625,-58.65,,,1741259.0
1625051428.65625,-54.9,,,1742121.0
1625051428.671875,-51.48,,,1742420.0
1625051428.6875,-49.87,,,1743251.0
1625051428.703125,-50.06,,,1743843.0
1625051428.71875,-50.65,,,1745097.0
1625051428.734375,-49.73,,,1746141.0
1625051428.75,-45.98,,,1746581.0
1625051428.765625,-39.29,,,1744592.0
1625051428.78125,-31.0,,,1741966.0
1625051428.796875,-23.25,,,1738916.0
1625051428.8125,-18.04,,,1735882.0
1625051428.828125,-16.42,,,1732635.0
1625051428.84375,-18.17,,,1730852.0
1625051428.859375,-22.33,,,1729322.0
1625051428.875,-28.24,,,1728389.0
1625051428.890625,-35.99,,,1727243.0
1625051428.90625,-46.09,,,1725836.0
1625051428.921875,-58.39,,,1725432.0
1625051428.9375,-71.25,,,1725542.0
1625051428.953125,-81.57,,,1726050.0
1625051428.96875,-86.12,,,1726461.0
1625051428.984375,-83.45,,,1726840.0
1625051429.0,-74.84,,,1727286.0
1625051429.015625,-63.46,,,1728093.0
1625051429.03125,-52.56,,,1729367.0
1625051429.046875,-43.53,,,1730021.0
1625051429.0625,-35.53,,,1731154.0
1625051429.078125,-26.84,,,1730802.0
1625051429.09375,-16.9,,,1728622.0
1625051429.109375,-7.32,,,1726993.0
1625051429.125,-1.05,,,1724978.0
1625051429.140625,0.19,,,1723861.0
1625051429.15625,-1.59,,,1723158.0
1625051429.171875,-0.02,,,1723528.0
1625051429.1875,13.25,,,1723568.0
1625051429.203125,44.1,,,1723251.0
1625051429.21875,92.1,,,1723506.0
1625051429.234375,149.01,,,1723350.0
1625051429.25,201.08,,,1724329.0
1625051429.265625,234.15,,,1725586.0
1625051429.28125,238.88,,,1726492.0
1625051429.296875,213.83,,,1724818.0
1625051429.3125,164.77,,,1722581.0
1625051429.328125,101.39,,,1717425.0
1625051429.34375,33.2,,,1712562.0
1625051429.359375,-33.34,,,1707319.0
1625051429.375,-95.29,,,1706008.0
1625051429.390625,-151.71,,,1709161.0
1625051429.40625,-201.65,,,1716290.0
1625051429.421875,-243.04,,,1721985.0
1625051429.4375,-273.37,,,1727777.0
1625051429.453125,-291.11,,,1732746.0
1625051429.46875,-296.67,,,1735816.0
1625051429.484375,-292.33,,,1740207.0
1625051429.5,-280.81,,,1743131.0
1625051429.515625,-263.72,,,1747908.0
1625051429.53125,-241.05,,,1751577.0
1625051429.546875,-211.91,,,1757020.0
1625051429.5625,-175.99,,,1765070.0
1625051429.578125,-135.0,,,1779485.0
1625051429.59375,-92.67,,,1784607.0
1625051429.609375,-53.38,,,1794536.0
1625051429.625,-20.45,,,1797647.0
1625051429.640625,5.2,,,1798379.0
1625051429.65625,24.92,,,1798363.0
1625051429.671875,41.12,,,1801345.0
1625051429.6875,55.66,,,1800290.0
1625051429.703125,68.77,,,1796738.0
1625051429.71875,79.25,,,1794806.0
1625051429.734375,85.37,,,1792441.0
1625051429.75,85.75,,,1792099.0
1625051429.765625,79.69,,,1791151.0
1625051429.78125,67.2,,,1791007.0
1625051429.796875,48.81,,,1791517.0
1625051429.8125,25.22,,,1791926.0
1625051429.828125,-2.46,,,1790967.0
1625051429.84375,-32.72,,,1790426.0
1625051429.859375,-63.44,,,1791743.0
1625051429.875,-92.02,,,1794241.0
1625051429.890625,-115.56,,,1794804.0
1625051429.90625,-131.37,,,1795345.0
1625051429.921875,-137.53,,,1795578.0
1625051429.9375,-133.43,,,1795819.0
1625051429.953125,-119.8,,,1796072.0
1625051429.96875,-98.28,,,1797489.0
1625051429.984375,-70.64,,,1798948.0
1625051430.0,-38.19,,,1800127.0
1625051430.015625,-1.83,,,1798941.0
1625051430.03125,37.34,,,1796075.0
1625051430.046875,77.19,,,1792494.0
1625051430.0625,114.36,,,1788800.0
1625051430.078125,144.81,,,1785769.0
1625051430.09375,165.15,,,1783741.0
1625051430.109375,173.94,,,1783189.0
1625051430.125,172.12,,,1781615.0
1625051430.140625,162.61,,,1780875.0
1625051430.15625,149.12,,,1779503.0
1625051430.171875,135.06,,,1779081.0
1625051430.1875,122.87,,,1779070.0
1625051430.203125,113.83,,,1779719.0
1625051430.21875,108.22,,,1780321.0
1625051430.234375,105.37,,,1781456.0
1625051430.25,103.84,,,1782854.0
1625051430.265625,101.63,,,1784315.0
1625051430.28125,96.81,,,1784856.0
1625051430.296875,88.24,,,1784286.0
1625051430.3125,76.13,,,1782689.0
1625051430.328125,61.99,,,1777173.0
1625051430.34375,47.6,,,1774207.0
1625051430.359375,33.79,,,1772452.0
1625051430.375,19.59,,,1774296.0
1625051430.390625,2.64,,,1777071.0
1625051430.40625,-19.21,,,1781350.0
1625051430.421875,-46.06,,,1784153.0
1625051430.4375,-74.92,,,1783431.0
1625051430.453125,-100.27,,,1782438.0
1625051430.46875,-116.27,,,1782553.0
1625051430.484375,-119.18,,,1783767.0
1625051430.5,-109.04,,,1782356.0
1625051430.515625,-89.54,,,1779386.0
1625051430.53125,-66.4,,,1780221.0
1625051430.546875,-45.06,,,1781677.0
1625051430.5625,-28.75,,,1780902.0
1625051430.578125,-17.8,,,1783146.0
1625051430.59375,-10.18,,,1785296.0
1625051430.609375,-2.89,,,1786636.0
1625051430.625,6.63,,,1787536.0
1625051430.640625,19.49,,,1785924.0
1625051430.65625,35.15,,,1783103.0
1625051430.671875,51.83,,,1781329.0
1625051430.6875,67.44,,,1779953.0
1625051430.703125,80.43,,,1778425.0
1625051430.71875,90.31,,,1778618.0
1625051430.734375,97.47,,,1777290.0
1625051430.75,102.7,,,1777768.0
1625051430.765625,106.56,,,1777578.0
1625051430.78125,109.14,,,1777084.0
1625051430.796875,110.2,,,1776955.0
1625051430.8125,109.58,,,1777363.0
1625051430.828125,107.58,,,1778172.0
1625051430.84375,105.33,,,1778793.0
1625051430.859375,104.58,,,1779878.0
1625051430.875,107.24,,,1780983.0
1625051430.890625,114.35,,,1782055.0
1625051430.90625,125.31,,,1783732.0
1625051430.921875,137.89,,,1785316.0
1625051430.9375,149.53,,,1786994.0
1625051430.953125,159.25,,,1786286.0
1625051430.96875,168.87,,,1785055.0
1625051430.984375,182.35,,,1783787.0
1625051431.0,203.15,,,1782879.0
1625051431.015625,231.06,,,1782419.0
1625051431.03125,260.58,,,1782611.0
1625051431.046875,282.27,,,1782906.0
1625051431.0625,286.74,,,1783031.0
1625051431.078125,269.11,,,1783220.0
1625051431.09375,231.25,,,1782767.0
1625051431.109375,180.56,,,1783787.0
1625051431.125,125.87,,,1785111.0
1625051431.140625,72.88,,,1786571.0
1625051431.15625,22.1,,,1787695.0
1625051431.171875,-29.76,,,1789454.0
1625051431.1875,-85.99,,,1790274.0
1625051431.203125,-146.04,,,1791056.0
1625051431.21875,-204.19,,,1792526.0
1625051431.234375,-251.3,,,1793758.0
1625051431.25,-278.72,,,1794034.0
1625051431.265625,-282.23,,,1793551.0
1625051431.28125,-264.04,,,1790693.0
1625051431.296875,-231.97,,,1788291.0
1625051431.3125,-196.37,,,1785496.0
1625051431.328125,-166.46,,,1781476.0
1625051431.34375,-147.56,,,1775501.0
1625051431.359375,-140.57,,,1771065.0
1625051431.375,-143.13,,,1770201.0
1625051431.390625,-151.58,,,1768790.0
1625051431.40625,-162.36,,,1769197.0
1625051431.421875,-172.45,,,1771645.0
1625051431.4375,-179.08,,,1771150.0
1625051431.453125,-179.69,,,1773066.0
1625051431.46875,-172.58,,,1774832.0
1625051431.484375,-158.0,,,1776158.0
1625051431.5,-138.75,,,1775682.0
1625051431.515625,-119.59,,,1776751.0
1625051431.53125,-105.35,,,1776111.0
1625051431.546875,-98.69,,,1775090.0
1625051431.5625,-98.61,,,1772594.0
1625051431.578125,-100.76,,,1770938.0
1625051431.59375,-99.57,,,1768530.0
1625051431.609375,-90.98,,,1765175.0
1625051431.625,-74.3,,,1766297.0
1625051431.640625,-52.27,,,1766222.0
1625051431.65625,-29.34,,,1766248.0
1625051431.671875,-9.22,,,1766973.0
1625051431.6875,6.92,,,1767044.0
1625051431.703125,20.34,,,1767801.0
1625051431.71875,33.3,,,1775352.0
1625051431.734375,47.25,,,1782400.0
1625051431.75,61.85,,,1792415.0
1625051431.765625,75.39,,,1808096.0
1625051431.78125,86.17,,,1815368.0
1625051431.796875,93.66,,,1820470.0
1625051431.8125,98.69,,,1817273.0
1625051431.828125,102.66,,,1810631.0
1625051431.84375,106.1,,,1807016.0
1625051431.859375,107.99,,,1806430.0
1625051431.875,105.97,,,1804563.0
1625051431.890625,97.51,,,1803554.0
1625051431.90625,81.23,,,1802397.0
1625051431.921875,57.68,,,1801871.0
1625051431.9375,29.21,,,1800873.0
1625051431.953125,-0.76,,,1798464.0
1625051431.96875,-28.63,,,1794500.0
1625051431.984375,-51.47,,,1792636.0
1625051432.0,-67.48,,,1791823.0
1625051432.015625,-76.23,,,1790419.0
1625051432.03125,-78.43,,,1790059.0
1625051432.046875,-75.43,,,1789729.0
1625051432.0625,-68.64,,,1790718.0
1625051432.078125,-59.11,,,1792718.0
1625051432.09375,-47.4,,,1795273.0
1625051432.109375,-33.89,,,1797368.0
1625051432.125,-19.19,,,1797769.0
1625051432.140625,-4.31,,,1795804.0
1625051432.15625,9.35,,,1794055.0
1625051432.171875,20.24,,,1792044.0
1625051432.1875,27.11,,,1789454.0
1625051432.203125,29.4,,,1788165.0
1625051432.21875,27.43,,,1786476.0
1625051432.234375,22.48,,,1784675.0
1625051432.25,16.53,,,1782709.0
1625051432.265625,11.62,,,1781557.0
1625051432.28125,9.2,,,1781201.0
1625051432.296875,9.34,,,1781606.0
1625051432.3125,10.52,,,1782478.0
1625051432.328125,10.01,,,1783644.0
1625051432.34375,5.01,,,1784830.0
1625051432.359375,-6.09,,,1786651.0
1625051432.375,-22.69,,,1788108.0
1625051432.390625,-41.92,,,1789142.0
1625051432.40625,-59.58,,,1789707.0
1625051432.421875,-71.68,,,1789336.0
1625051432.4375,-75.97,,,1787840.0
1625051432.453125,-72.9,,,1786535.0
1625051432.46875,-65.33,,,1785233.0
1625051432.484375,-57.13,,,1784626.0
1625051432.5,-51.42,,,1784580.0
1625051432.515625,-49.1,,,1784279.0
1625051432.53125,-48.67,,,1783920.0
1625051432.546875,-47.26,,,1783653.0
1625051432.5625,-42.42,,,1781903.0
1625051432.578125,-33.54,,,1781696.0
1625051432.59375,-22.06,,,1782444.0
1625051432.609375,-10.43,,,1783673.0
1625051432.625,-0.44,,,1784074.0
1625051432.640625,8.04,,,1785023.0
1625051432.65625,16.77,,,1784025.0
1625051432.671875,27.87,,,1783854.0
1625051432.6875,42.16,,,1787279.0
1625051432.703125,58.25,,,1792445.0
1625051432.71875,73.02,,,1792120.0
1625051432.734375,83.17,,,1790840.0
1625051432.75,86.82,,,1788876.0
1625051432.765625,84.35,,,1785434.0
1625051432.78125,77.91,,,1784026.0
1625051432.796875,69.99,,,1783315.0
1625051432.8125,61.97,,,1782218.0
1625051432.828125,53.77,,,1780477.0
1625051432.84375,44.45,,,1778235.0
1625051432.859375,33.53,,,1777047.0
1625051432.875,22.1,,,1775855.0
1625051432.890625,12.73,,,1774671.0
1625051432.90625,8.31,,,1774349.0
1625051432.921875,10.36,,,1774364.0
1625051432.9375,17.79,,,1774416.0
1625051432.953125,26.95,,,1774203.0
1625051432.96875,33.22,,,1774243.0
1625051432.984375,32.98,,,1774319.0
1625051433.0,25.26,,,1773119.0
1625051433.015625,11.97,,,1770680.0
1625051433.03125,-3.12,,,1767381.0
1625051433.046875,-16.06,,,1765214.0
1625051433.0625,-23.91,,,1763565.0
1625051433.078125,-25.24,,,1762979.0
1625051433.09375,-20.05,,,1762632.0
1625051433.109375,-9.54,,,1762319.0
1625051433.125,3.9,,,1760737.0
1625051433.140625,16.87,,,1761118.0
1625051433.15625,25.54,,,1761546.0
1625051433.171875,26.96,,,1761972.0
1625051433.1875,20.68,,,1762002.0
1625051433.203125,9.6,,,1762652.0
1625051433.21875,-0.84,,,1763276.0
1625051433.234375,-4.94,,,1764301.0
1625051433.25,0.45,,,1765430.0
1625051433.265625,14.3,,,1764228.0
1625051433.28125,32.01,,,1760131.0
1625051433.296875,47.96,,,1762146.0
1625051433.3125,58.4,,,1758566.0
1625051433.328125,63.1,,,1756553.0
1625051433.34375,64.61,,,1755871.0
1625051433.359375,65.98,,,1755528.0
1625051433.375,68.67,,,1754802.0
1625051433.390625,71.74,,,1754093.0
1625051433.40625,73.01,,,1754405.0
1625051433.421875,71.03,,,1755219.0
1625051433.4375,66.65,,,1756181.0
1625051433.453125,62.73,,,1756628.0
1625051433.46875,62.73,,,1756960.0
1625051433.484375,68.63,,,1757443.0
1625051433.5,79.61,,,1757781.0
1625051433.515625,92.13,,,1757298.0
1625051433.53125,101.1,,,1751183.0
1625051433.546875,101.24,,,1743657.0
1625051433.5625,88.13,,,1732878.0
1625051433.578125,59.02,,,1723500.0
1625051433.59375,13.67,,,1722918.0
1625051433.609375,-44.5,,,1721732.0
1625051433.625,-107.76,,,1720195.0
1625051433.640625,-164.61,,,1738242.0
1625051433.65625,-202.62,,,1726682.0
1625051433.671875,-212.71,,,1720628.0
1625051433.6875,-193.07,,,1720814.0
1625051433.703125,-150.71,,,1719463.0
1625051433.71875,-99.05,,,1721675.0
1625051433.734375,-52.81,,,1728470.0
1625051433.75,-22.27,,,1736368.0
1625051433.765625,-10.04,,,1740836.0
1625051433.78125,-11.52,,,1746486.0
1625051433.796875,-18.43,,,1752975.0
1625051433.8125,-23.03,,,1764982.0
1625051433.828125,-20.71,,,1773172.0
1625051433.84375,-10.17,,,1782202.0
1625051433.859375,8.16,,,1779481.0
1625051433.875,33.45,,,1777689.0
1625051433.890625,64.62,,,1775147.0
1625051433.90625,99.38,,,1775587.0
1625051433.921875,133.3,,,1778028.0
1625051433.9375,160.4,,,1780315.0
1625051433.953125,175.01,,,1779615.0
1625051433.96875,174.31,,,1779883.0
1625051433.984375,159.95,,,1780539.0
1625051434.0,137.5,,,1780332.0
1625051434.015625,114.13,,,1780885.0
1625051434.03125,95.66,,,1781611.0
1625051434.046875,84.3,,,1782397.0
1625051434.0625,78.05,,,1783539.0
1625051434.078125,72.13,,,1784162.0
1625051434.09375,61.05,,,1785159.0
1625051434.109375,40.73,,,1786687.0
1625051434.125,9.53,,,1788093.0
1625051434.140625,-32.03,,,1788296.0
1625051434.15625,-82.42,,,1787451.0
1625051434.171875,-140.3,,,1785016.0
1625051434.1875,-204.63,,,1782746.0
1625051434.203125,-273.68,,,1780726.0
1625051434.21875,-343.58,,,1779266.0
1625051434.234375,-407.77,,,1778267.0
1625051434.25,-457.96,,,1778000.0
1625051434.265625,-486.72,,,1777358.0
1625051434.28125,-490.28,,,1776100.0
1625051434.296875,-470.1,,,1775419.0
1625051434.3125,-432.21,,,1775822.0
1625051434.328125,-384.56,,,1776026.0
1625051434.34375,-333.91,,,1776548.0
1625051434.359375,-283.79,,,1777194.0
1625051434.375,-234.63,,,1778245.0
1625051434.390625,-185.29,,,1779076.0
1625051434.40625,-135.19,,,1780158.0
1625051434.421875,-85.35,,,1781141.0
1625051434.4375,-37.99,,,1781540.0
1625051434.453125,4.94,,,1781398.0
1625051434.46875,43.27,,,1779419.0
1625051434.484375,79.5,,,1774702.0
1625051434.5,118.4,,,1771114.0
1625051434.515625,165.26,,,1776313.0
1625051434.53125,223.36,,,1766961.0
1625051434.546875,291.44,,,1763253.0
1625051434.5625,362.45,,,1764888.0
1625051434.578125,424.87,,,1770062.0
1625051434.59375,466.25,,,1775156.0
1625051434.609375,477.42,,,1784966.0
1625051434.625,455.86,,,1791969.0
1625051434.640625,406.21,,,1801439.0
1625051434.65625,338.13,,,1806672.0
1625051434.671875,262.69,,,1806838.0
1625051434.6875,189.42,,,1807180.0
1625051434.703125,125.08,,,1809365.0
1625051434.71875,74.08,,,1811473.0
1625051434.734375,39.2,,,1810923.0
1625051434.75,21.6,,,1809282.0
1625051434.765625,20.01,,,1808494.0
1625051434.78125,30.05,,,1806138.0
1625051434.796875,44.8,,,1807885.0
1625051434.8125,57.0,,,1804619.0
1625051434.828125,61.73,,,1803942.0
1625051434.84375,57.96,,,1802714.0
1625051434.859375,47.88,,,1801326.0
1625051434.875,34.51,,,1800279.0
1625051434.890625,19.37,,,1800066.0
1625051434.90625,1.55,,,1799808.0
1625051434.921875,-20.93,,,1800374.0
1625051434.9375,-48.53,,,1801554.0
1625051434.953125,-78.2,,,1803056.0
1625051434.96875,-103.41,,,1803559.0
1625051434.984375,-116.35,,,1801977.0
1625051435.0,-111.05,,,1799973.0
1625051435.015625,-86.06,,,1797709.0
1625051435.03125,-44.87,,,1795414.0
1625051435.046875,5.05,,,1794140.0
1625051435.0625,54.44,,,1793309.0
1625051435.078125,94.27,,,1792509.0
1625051435.09375,117.64,,,1792208.0
1625051435.109375,121.04,,,1791815.0
1625051435.125,105.18,,,1791406.0
1625051435.140625,75.09,,,1791553.0
1625051435.15625,38.88,,,1792121.0
1625051435.171875,5.3,,,1793225.0
1625051435.1875,-19.26,,,1794254.0
1625051435.203125,-32.67,,,1795112.0
1625051435.21875,-36.93,,,1795536.0
1625051435.234375,-36.48,,,1793953.0
1625051435.25,-35.72,,,1791707.0
1625051435.265625,-37.66,,,1790297.0
1625051435.28125,-43.84,,,1788401.0
1625051435.296875,-55.23,,,1781645.0
1625051435.3125,-72.72,,,1776580.0
1625051435.328125,-96.36,,,1770012.0
1625051435.34375,-123.84,,,1764579.0
1625051435.359375,-149.44,,,1763073.0
1625051435.375,-164.79,,,1763601.0
1625051435.390625,-161.58,,,1765227.0
1625051435.40625,-134.93,,,1768526.0
1625051435.421875,-85.91,,,1770965.0
1625051435.4375,-21.67,,,1772271.0
1625051435.453125,46.86,,,1772262.0
1625051435.46875,108.55,,,1771733.0
1625051435.484375,155.49,,,1769896.0
1625051435.5,184.51,,,1766985.0
1625051435.515625,196.74,,,1765123.0
1625051435.53125,195.76,,,1764103.0
1625051435.546875,185.3,,,1763546.0
1625051435.5625,167.93,,,1763829.0
1625051435.578125,145.02,,,1762820.0
1625051435.59375,117.87,,,1762126.0
1625051435.609375,88.84,,,1761564.0
1625051435.625,61.5,,,1760899.0
1625051435.640625,39.51,,,1760851.0
1625051435.65625,24.93,,,1760801.0
1625051435.671875,16.99,,,1761461.0
1625051435.6875,12.36,,,1762010.0
1625051435.703125,7.12,,,1762861.0
1625051435.71875,-0.96,,,1763058.0
1625051435.734375,-11.12,,,1761883.0
1625051435.75,-20.22,,,1759702.0
1625051435.765625,-25.07,,,1756956.0
1625051435.78125,-24.78,,,1754306.0
1625051435.796875,-21.85,,,1752356.0
1625051435.8125,-21.01,,,1751229.0
1625051435.828125,-26.64,,,1750446.0
1625051435.84375,-40.37,,,1749486.0
1625051435.859375,-60.14,,,1748599.0
1625051435.875,-81.5,,,1748485.0
1625051435.890625,-100.04,,,1748420.0
1625051435.90625,-113.36,,,1748643.0
1625051435.921875,-121.66,,,1749724.0
1625051435.9375,-126.85,,,1750989.0
1625051435.953125,-131.01,,,1752112.0
1625051435.96875,-135.32,,,1753738.0
1625051435.984375,-139.94,,,1754237.0
1625051436.0,-144.52,,,1754308.0
1625051436.015625,-148.51,,,1752088.0
1625051436.03125,-151.02,,,1749860.0
1625051436.046875,-150.47,,,1747809.0
1625051436.0625,-144.47,,,1746190.0
1625051436.078125,-130.61,,,1744898.0
1625051436.09375,-107.49,,,1745326.0
1625051436.109375,-75.55,,,1745271.0
1625051436.125,-37.38,,,1744383.0
1625051436.140625,3.13,,,1744126.0
1625051436.15625,41.99,,,1745004.0
1625051436.171875,76.05,,,1743447.0
1625051436.1875,103.32,,,1744810.0
1625051436.203125,122.8,,,1743404.0
1625051436.21875,134.31,,,1736973.0
1625051436.234375,138.35,,,1732125.0
1625051436.25,136.39,,,1732648.0
1625051436.265625,130.86,,,1739518.0
1625051436.28125,124.68,,,1744812.0
1625051436.296875,120.22,,,1747208.0
1625051436.3125,118.22,,,1748797.0
1625051436.328125,117.36,,,1750703.0
1625051436.34375,115.07,,,1749663.0
1625051436.359375,108.95,,,1749294.0
1625051436.375,98.1,,,1749326.0
1625051436.390625,83.28,,,1749796.0
1625051436.40625,65.83,,,1749051.0
1625051436.421875,46.32,,,1750095.0
1625051436.4375,23.67,,,1756348.0
1625051436.453125,-3.91,,,1767929.0
1625051436.46875,-36.91,,,1770303.0
1625051436.484375,-72.67,,,1770611.0
1625051436.5,-105.06,,,1772381.0
1625051436.515625,-126.47,,,1772673.0
1625051436.53125,-131.1,,,1774320.0
1625051436.546875,-118.09,,,1775802.0
1625051436.5625,-92.43,,,1775548.0
1625051436.578125,-63.62,,,1774688.0
1625051436.59375,-42.44,,,1772670.0
1625051436.609375,-37.51,,,1772081.0
1625051436.625,-52.67,,,1770752.0
1625051436.640625,-85.85,,,1770112.0
1625051436.65625,-129.42,,,1770568.0
1625051436.671875,-172.17,,,1770454.0
1625051436.6875,-202.83,,,1771196.0
1625051436.703125,-213.98,,,1771592.0
1625051436.71875,-204.97,,,1772941.0
1625051436.734375,-182.24,,,1775810.0
1625051436.75,-156.46,,,1774315.0
1625051436.765625,-137.77,,,1776898.0
1625051436.78125,-131.22,,,1777003.0
1625051436.796875,-134.91,,,1775889.0
1625051436.8125,-141.65,,,1777280.0
1625051436.828125,-143.11,,,1773937.0
1625051436.84375,-134.03,,,1771147.0
1625051436.859375,-114.39,,,1772352.0
1625051436.875,-88.65,,,1770382.0
1625051436.890625,-63.08,,,1770259.0
1625051436.90625,-42.76,,,1770452.0
1625051436.921875,-30.1,,,1770423.0
1625051436.9375,-24.93,,,1770276.0
1625051436.953125,-25.4,,,1770729.0
1625051436.96875,-28.87,,,1771393.0
1625051436.984375,-32.52,,,1772391.0
1625051437.0,-33.69,,,1773590.0
1625051437.015625,-30.34,,,1774921.0
1625051437.03125,-21.44,,,1775586.0
1625051437.046875,-6.97,,,1776727.0
1625051437.0625,12.87,,,1777842.0
1625051437.078125,38.53,,,1778628.0
1625051437.09375,71.33,,,1777773.0
1625051437.109375,112.53,,,1776673.0
1625051437.125,161.5,,,1775635.0
1625051437.140625,214.09,,,1774815.0
1625051437.15625,262.81,,,1774604.0
1625051437.171875,299.3,,,1770064.0
1625051437.1875,317.56,,,1769363.0
1625051437.203125,316.28,,,1767218.0
1625051437.21875,298.72,,,1764968.0
1625051437.234375,270.12,,,1763766.0
1625051437.25,234.75,,,1765121.0
1625051437.265625,194.67,,,1767088.0
1625051437.28125,150.92,,,1770730.0
1625051437.296875,105.72,,,1773207.0
1625051437.3125,63.75,,,1775021.0
1625051437.328125,30.87,,,1775328.0
1625051437.34375,11.3,,,1775121.0
1625051437.359375,5.24,,,1774384.0
1625051437.375,8.57,,,1772944.0
1625051437.390625,15.07,,,1770463.0
1625051437.40625,19.66,,,1768493.0
1625051437.421875,20.41,,,1767550.0
1625051437.4375,18.43,,,1767750.0
1625051437.453125,16.04,,,1768102.0
1625051437.46875,15.05,,,1767402.0
1625051437.484375,15.94,,,1766678.0
1625051437.5,18.47,,,1766179.0
1625051437.515625,22.65,,,1766597.0
1625051437.53125,28.86,,,1767689.0
1625051437.546875,37.21,,,1768409.0
1625051437.5625,46.62,,,1769136.0
1625051437.578125,54.35,,,1770263.0
1625051437.59375,56.74,,,1770968.0
1625051437.609375,50.68,,,1771541.0
1625051437.625,34.99,,,1771240.0
1625051437.640625,11.24,,,1769484.0
1625051437.65625,-16.4,,,1767261.0
1625051437.671875,-42.23,,,1765806.0
1625051437.6875,-60.58,,,1764864.0
1625051437.703125,-67.73,,,1764114.0
1625051437.71875,-63.23,,,1763870.0
1625051437.734375,-49.95,,,1763836.0
1625051437.75,-32.76,,,1763524.0
1625051437.765625,-16.46,,,1763016.0
1625051437.78125,-4.06,,,1762818.0
1625051437.796875,3.48,,,1762862.0
1625051437.8125,6.19,,,1763157.0
1625051437.828125,3.62,,,1763691.0
1625051437.84375,-5.49,,,1763848.0
1625051437.859375,-22.33,,,1764628.0
1625051437.875,-46.29,,,1765414.0
1625051437.890625,-74.0,,,1765152.0
1625051437.90625,-100.05,,,1763864.0
1625051437.921875,-119.41,,,1760870.0
1625051437.9375,-129.82,,,1756301.0
1625051437.953125,-132.83,,,1758611.0
1625051437.96875,-132.5,,,1754445.0
1625051437.984375,-132.62,,,1753116.0
1625051438.0,-134.33,,,1752423.0
1625051438.015625,-135.55,,,1751411.0
1625051438.03125,-132.77,,,1750140.0
1625051438.046875,-123.83,,,1746436.0
1625051438.0625,-110.02,,,1747030.0
1625051438.078125,-96.1,,,1748111.0
1625051438.09375,-88.13,,,1750857.0
1625051438.109375,-90.3,,,1753492.0
1625051438.125,-102.49,,,1754935.0
1625051438.140625,-120.03,,,1754724.0
1625051438.15625,-135.6,,,1755182.0
1625051438.171875,-142.4,,,1754657.0
1625051438.1875,-136.82,,,1752492.0
1625051438.203125,-119.17,,,1750324.0
1625051438.21875,-92.69,,,1749681.0
1625051438.234375,-61.63,,,1746383.0
1625051438.25,-29.57,,,1741685.0
1625051438.265625,0.73,,,1740139.0
1625051438.28125,26.87,,,1743643.0
1625051438.296875,46.3,,,1746555.0
1625051438.3125,56.77,,,1746602.0
1625051438.328125,57.46,,,1747532.0
1625051438.34375,50.24,,,1751543.0
1625051438.359375,39.63,,,1753999.0
1625051438.375,31.29,,,1756811.0
1625051438.390625,29.72,,,1759713.0
1625051438.40625,36.42,,,1765155.0
1625051438.421875,49.48,,,1776173.0
1625051438.4375,64.92,,,1783465.0
1625051438.453125,78.82,,,1780921.0
1625051438.46875,88.99,,,1774505.0
1625051438.484375,95.58,,,1771360.0
1625051438.5,100.49,,,1769776.0
1625051438.515625,106.15,,,1769003.0
1625051438.53125,114.36,,,1769183.0
1625051438.546875,125.78,,,1770143.0
1625051438.5625,139.85,,,1770027.0
1625051438.578125,155.22,,,1768938.0
1625051438.59375,170.16,,,1768522.0
1625051438.609375,183.1,,,1767994.0
1625051438.625,193.31,,,1768620.0
1625051438.640625,201.15,,,1768933.0
1625051438.65625,208.0,,,1770149.0
1625051438.671875,215.41,,,1770840.0
1625051438.6875,224.12,,,1771652.0
1625051438.703125,233.6,,,1772252.0
1625051438.71875,242.34,,,1772810.0
1625051438.734375,249.35,,,1773227.0
1625051438.75,254.94,,,1773393.0
1625051438.765625,260.72,,,1772828.0
1625051438.78125,268.12,,,1770248.0
1625051438.796875,276.36,,,1767620.0
1625051438.8125,281.34,,,1765237.0
1625051438.828125,276.95,,,1763446.0
1625051438.84375,258.15,,,1762393.0
1625051438.859375,224.46,,,1761739.0
1625051438.875,181.14,,,1760740.0
1625051438.890625,137.16,,,1759878.0
1625051438.90625,100.89,,,1758725.0
1625051438.921875,75.79,,,1757868.0
1625051438.9375,58.87,,,1758015.0
1625051438.953125,42.79,,,1758902.0
1625051438.96875,20.13,,,1759178.0
1625051438.984375,-12.52,,,1759554.0
1625051439.0,-53.37,,,1760060.0
1625051439.015625,-96.99,,,1760266.0
1625051439.03125,-137.99,,,1760308.0
1625051439.046875,-174.03,,,1759723.0
1625051439.0625,-206.74,,,1757515.0
1625051439.078125,-240.51,,,1754701.0
1625051439.09375,-280.14,,,1749654.0
1625051439.109375,-328.88,,,1749243.0
1625051439.125,-387.36,,,1748489.0
1625051439.140625,-453.47,,,1745998.0
1625051439.15625,-522.5,,,1743254.0
1625051439.171875,-587.64,,,1741424.0
1625051439.1875,-640.93,,,1742056.0
1625051439.203125,-675.04,,,1743601.0
1625051439.21875,-685.63,,,1744494.0
1625051439.234375,-672.49,,,1746034.0
1625051439.25,-639.71,,,1746201.0
1625051439.265625,-593.71,,,1746440.0
1625051439.28125,-540.71,,,1746294.0
1625051439.296875,-484.76,,,1746317.0
1625051439.3125,-427.36,,,1746694.0
1625051439.328125,-368.85,,,1746856.0
1625051439.34375,-310.08,,,1746412.0
1625051439.359375,-253.28,,,1744930.0
1625051439.375,-201.35,,,1743083.0
1625051439.390625,-156.16,,,1741129.0
1625051439.40625,-116.79,,,1739371.0
1625051439.421875,-79.36,,,1737563.0
1625051439.4375,-38.52,,,1735944.0
1625051439.453125,9.84,,,1734541.0
1625051439.46875,66.18,,,1732360.0
1625051439.484375,126.52,,,1731609.0
1625051439.5,183.25,,,1731711.0
1625051439.515625,227.99,,,1732188.0
1625051439.53125,254.16,,,1732214.0
1625051439.546875,259.05,,,1732599.0
1625051439.5625,244.04,,,1732791.0
1625051439.578125,213.61,,,1732834.0
1625051439.59375,174.03,,,1732509.0
1625051439.609375,131.98,,,1732350.0
1625051439.625,93.91,,,1730638.0
1625051439.640625,65.2,,,1728495.0
1625051439.65625,49.31,,,1726032.0
1625051439.671875,46.88,,,1723609.0
1625051439.6875,55.43,,,1721622.0
1625051439.703125,70.14,,,1719949.0
1625051439.71875,85.78,,,1718528.0
1625051439.734375,98.75,,,1716760.0
1625051439.75,108.14,,,1715253.0
1625051439.765625,115.39,,,1713929.0
1625051439.78125,122.72,,,1712418.0
1625051439.796875,131.55,,,1712092.0
1625051439.8125,141.73,,,1712766.0
1625051439.828125,151.85,,,1713006.0
1625051439.84375,160.31,,,1713353.0
1625051439.859375,166.25,,,1712819.0
1625051439.875,170.03,,,1713778.0
1625051439.890625,172.9,,,1714335.0
1625051439.90625,176.28,,,1713510.0
1625051439.921875,180.73,,,1713086.0
1625051439.9375,185.19,,,1714913.0
1625051439.953125,186.96,,,1713861.0
1625051439.96875,182.65,,,1710150.0
1625051439.984375,169.95,,,1707926.0
1625051440.0,149.6,,,1711035.0
1625051440.015625,126.23,,,1715379.0
1625051440.03125,107.24,,,1717482.0
1625051440.046875,99.82,,,1717561.0
1625051440.0625,107.42,,,1718907.0
1625051440.078125,127.5,,,1720817.0
1625051440.09375,151.97,,,1720287.0
1625051440.109375,170.3,,,1720058.0
1625051440.125,174.17,,,1718818.0
1625051440.140625,161.0,,,1717124.0
1625051440.15625,134.72,,,1717614.0
1625051440.171875,103.63,,,1719287.0
1625051440.1875,76.21,,,1719781.0
1625051440.203125,57.48,,,1717918.0
1625051440.21875,47.35,,,1716347.0
1625051440.234375,41.77,,,1713562.0
1625051440.25,35.69,,,1711793.0
1625051440.265625,26.07,,,1710049.0
1625051440.28125,13.49,,,1709002.0
1625051440.296875,1.36,,,1707889.0
1625051440.3125,-6.58,,,1708549.0
1625051440.328125,-8.89,,,1709043.0
1625051440.34375,-7.48,,,1710307.0
1625051440.359375,-6.39,,,1713780.0
1625051440.375,-9.07,,,1717574.0
1625051440.390625,-15.8,,,1721956.0
1625051440.40625,-23.01,,,1725396.0
1625051440.421875,-25.16,,,1727603.0
1625051440.4375,-18.04,,,1730580.0
1625051440.453125,-1.71,,,1734260.0
1625051440.46875,18.95,,,1735520.0
1625051440.484375,36.4,,,1735767.0
1625051440.5,44.22,,,1734810.0
1625051440.515625,40.35,,,1737436.0
1625051440.53125,28.08,,,1738592.0
1625051440.546875,14.35,,,1741069.0
1625051440.5625,6.36,,,1744957.0
1625051440.578125,8.69,,,1749977.0
1625051440.59375,21.98,,,1757106.0
1625051440.609375,43.59,,,1763783.0
1625051440.625,69.41,,,1766788.0
1625051440.640625,95.54,,,1753726.0
1625051440.65625,119.08,,,1761036.0
1625051440.671875,138.12,,,1770099.0
1625051440.6875,151.23,,,1767924.0
1625051440.703125,157.21,,,1773329.0
1625051440.71875,155.21,,,1775770.0
1625051440.734375,145.05,,,1775546.0
1625051440.75,127.37,,,1776263.0
1625051440.765625,103.39,,,1774456.0
1625051440.78125,74.53,,,1773128.0
1625051440.796875,41.86,,,1772701.0
1625051440.8125,5.72,,,1772809.0
1625051440.828125,-34.35,,,1773476.0
1625051440.84375,-79.19,,,1776791.0
1625051440.859375,-129.02,,,1781270.0
1625051440.875,-182.44,,,1785342.0
1625051440.890625,-235.92,,,1794785.0
1625051440.90625,-284.29,,,1792194.0
1625051440.921875,-321.96,,,1795763.0
1625051440.9375,-344.75,,,1798601.0
1625051440.953125,-350.99,,,1803106.0
1625051440.96875,-341.7,,,1808953.0
1625051440.984375,-319.73,,,1812072.0
1625051441.0,-288.62,,,1810444.0
1625051441.015625,-251.92,,,1810484.0
1625051441.03125,-213.19,,,1809545.0
1625051441.046875,-176.36,,,1806601.0
1625051441.0625,-145.89,,,1802644.0
1625051441.078125,-125.96,,,1798665.0
1625051441.09375,-119.18,,,1796195.0
1625051441.109375,-125.14,,,1795841.0
1625051441.125,-140.06,,,1797142.0
1625051441.140625,-157.9,,,1796766.0
1625051441.15625,-172.22,,,1797290.0
1625051441.171875,-178.02,,,1797880.0
1625051441.1875,-172.6,,,1797399.0
1625051441.203125,-155.35,,,1798215.0
1625051441.21875,-127.07,,,1799561.0
1625051441.234375,-89.26,,,1799826.0
1625051441.25,-44.04,,,1799225.0
1625051441.265625,5.54,,,1798685.0
1625051441.28125,55.29,,,1797344.0
1625051441.296875,100.55,,,1795975.0
1625051441.3125,137.42,,,1794722.0
1625051441.328125,164.16,,,1792758.0
1625051441.34375,181.75,,,1789074.0
1625051441.359375,193.35,,,1786432.0
1625051441.375,202.81,,,1784467.0
1625051441.390625,212.96,,,1783662.0
1625051441.40625,224.71,,,1783454.0
1625051441.421875,237.16,,,1783296.0
1625051441.4375,248.29,,,1783388.0
1625051441.453125,255.72,,,1782688.0
1625051441.46875,257.28,,,1782066.0
1625051441.484375,251.13,,,1782450.0
1625051441.5,236.22,,,1783574.0
1625051441.515625,213.05,,,1784165.0
1625051441.53125,184.65,,,1784311.0
1625051441.546875,156.73,,,1785004.0
1625051441.5625,136.21,,,1785337.0
1625051441.578125,128.7,,,1785790.0
1625051441.59375,135.39,,,1786268.0
1625051441.609375,151.87,,,1785573.0
1625051441.625,169.23,,,1782710.0
1625051441.640625,177.45,,,1778690.0
1625051441.65625,169.1,,,1774797.0
1625051441.671875,141.63,,,1772788.0
1625051441.6875,97.55,,,1771460.0
1625051441.703125,42.49,,,1770677.0
1625051441.71875,-17.29,,,1769510.0
1625051441.734375,-76.93,,,1768319.0
1625051441.75,-133.61,,,1767229.0
1625051441.765625,-185.68,,,1767115.0
1625051441.78125,-231.43,,,1767596.0
1625051441.796875,-268.36,,,1769136.0
1625051441.8125,-293.53,,,1769945.0
1625051441.828125,-304.63,,,1773004.0
1625051441.84375,-301.1,,,1774165.0
1625051441.859375,-284.73,,,1771374.0
1625051441.875,-259.73,,,1768565.0
1625051441.890625,-231.89,,,1772398.0
1625051441.90625,-206.89,,,1780777.0
1625051441.921875,-188.58,,,1786898.0
1625051441.9375,-177.85,,,1789211.0
1625051441.953125,-173.05,,,1788255.0
1625051441.96875,-171.61,,,1783168.0
1625051441.984375,-172.01,,,1780046.0
1625051442.0,-174.62,,,1778659.0
1625051442.015625,-180.9,,,1777881.0
1625051442.03125,-191.04,,,1778952.0
1625051442.046875,-201.74,,,1778002.0
1625051442.0625,-206.42,,,1780267.0
1625051442.078125,-198.06,,,1786044.0
1625051442.09375,-173.8,,,1789608.0
1625051442.109375,-138.17,,,1790712.0
1625051442.125,-102.7,,,1799559.0
1625051442.140625,-80.76,,,1799676.0
1625051442.15625,-80.69,,,1804267.0
1625051442.171875,-100.85,,,1805407.0
1625051442.1875,-129.89,,,1808235.0
1625051442.203125,-152.27,,,1808605.0
1625051442.21875,-155.73,,,1812191.0
1625051442.234375,-136.19,,,1819723.0
1625051442.25,-98.03,,,1821124.0
1625051442.265625,-50.09,,,1815077.0
1625051442.28125,-0.48,,,1812990.0
1625051442.296875,46.47,,,1811164.0
1625051442.3125,90.05,,,1814813.0
1625051442.328125,130.77,,,1816844.0
1625051442.34375,168.29,,,1811992.0
1625051442.359375,201.18,,,1811353.0
1625051442.375,228.28,,,1813995.0
1625051442.390625,250.09,,,1816544.0
1625051442.40625,268.74,,,1811340.0
1625051442.421875,286.55,,,1810903.0
1625051442.4375,304.28,,,1810428.0
1625051442.453125,320.36,,,1809354.0
1625051442.46875,331.53,,,1809504.0
1625051442.484375,334.47,,,1809557.0
1625051442.5,327.48,,,1809255.0
1625051442.515625,311.13,,,1809538.0
1625051442.53125,287.7,,,1808398.0
1625051442.546875,260.02,,,1805261.0
1625051442.5625,230.34,,,1802216.0
1625051442.578125,199.91,,,1799184.0
1625051442.59375,169.26,,,1796551.0
1625051442.609375,138.9,,,1793965.0
1625051442.625,109.87,,,1793101.0
1625051442.640625,83.71,,,1795066.0
1625051442.65625,61.74,,,1792148.0
1625051442.671875,44.2,,,1791653.0
1625051442.6875,29.79,,,1791689.0
1625051442.703125,16.31,,,1793269.0
1625051442.71875,1.98,,,1792490.0
1625051442.734375,-13.25,,,1794136.0
1625051442.75,-27.22,,,1794893.0
1625051442.765625,-36.68,,,1795862.0
1625051442.78125,-39.2,,,1797261.0
1625051442.796875,-34.79,,,1798830.0
1625051442.8125,-26.15,,,1800142.0
1625051442.828125,-17.31,,,1799492.0
1625051442.84375,-11.6,,,1796835.0
1625051442.859375,-10.2,,,1794631.0
1625051442.875,-12.11,,,1792984.0
1625051442.890625,-15.26,,,1792281.0
1625051442.90625,-17.78,,,1792283.0
1625051442.921875,-18.6,,,1790391.0
1625051442.9375,-17.35,,,1789988.0
1625051442.953125,-14.03,,,1790446.0
1625051442.96875,-9.03,,,1790475.0
1625051442.984375,-3.47,,,1795049.0
1625051443.0,0.73,,,1797269.0
1625051443.015625,1.46,,,1802460.0
1625051443.03125,-2.39,,,1798645.0
1625051443.046875,-9.95,,,1801017.0
1625051443.0625,-18.38,,,1801047.0
1625051443.078125,-24.27,,,1800652.0
1625051443.09375,-25.37,,,1797145.0
1625051443.109375,-21.8,,,1800581.0
1625051443.125,-15.74,,,1793592.0
1625051443.140625,-10.24,,,1786931.0
1625051443.15625,-7.63,,,1790253.0
1625051443.171875,-8.87,,,1784800.0
1625051443.1875,-13.87,,,1782938.0
1625051443.203125,-22.25,,,1780786.0
1625051443.21875,-33.82,,,1777973.0
1625051443.234375,-48.25,,,1775416.0
1625051443.25,-64.34,,,1773591.0
1625051443.265625,-79.63,,,1772303.0
1625051443.28125,-90.8,,,1771342.0
1625051443.296875,-95.0,,,1771042.0
1625051443.3125,-91.35,,,1770583.0
1625051443.328125,-81.73,,,1770645.0
1625051443.34375,-70.34,,,1770782.0
1625051443.359375,-62.05,,,1770563.0
1625051443.375,-60.18,,,1768015.0
1625051443.390625,-65.13,,,1764714.0
1625051443.40625,-74.26,,,1761681.0
1625051443.421875,-83.3,,,1759223.0
1625051443.4375,-88.34,,,1758088.0
1625051443.453125,-87.43,,,1757565.0
1625051443.46875,-80.99,,,1756472.0
1625051443.484375,-71.07,,,1755021.0
1625051443.5,-60.04,,,1753124.0
1625051443.515625,-49.49,,,1752393.0
1625051443.53125,-39.97,,,1751423.0
1625051443.546875,-31.4,,,1751501.0
1625051443.5625,-23.74,,,1751269.0
1625051443.578125,-17.39,,,1751718.0
1625051443.59375,-13.04,,,1752607.0
1625051443.609375,-11.18,,,1752899.0
1625051443.625,-11.75,,,1751679.0
1625051443.640625,-13.85,,,1748631.0
1625051443.65625,-15.86,,,1744991.0
1625051443.671875,-15.62,,,1741793.0
1625051443.6875,-10.9,,,1739801.0
1625051443.703125,-0.16,,,1738446.0
1625051443.71875,16.37,,,1737364.0
1625051443.734375,36.01,,,1736403.0
1625051443.75,53.95,,,1736211.0
1625051443.765625,64.8,,,1736095.0
1625051443.78125,65.0,,,1736457.0
1625051443.796875,54.96,,,1737304.0
1625051443.8125,39.41,,,1737533.0
1625051443.828125,25.67,,,1738641.0
1625051443.84375,20.39,,,1743570.0
1625051443.859375,26.44,,,1748703.0
1625051443.875,41.56,,,1751497.0
1625051443.890625,59.69,,,1755959.0
1625051443.90625,74.06,,,1759121.0
1625051443.921875,80.63,,,1760983.0
1625051443.9375,79.83,,,1764881.0
1625051443.953125,76.04,,,1769239.0
1625051443.96875,75.24,,,1773975.0
1625051443.984375,82.23,,,1775827.0
1625051444.0,98.59,,,1777660.0
1625051444.015625,122.19,,,1779566.0
1625051444.03125,147.8,,,1778481.0
1625051444.046875,168.52,,,1788011.0
1625051444.0625,177.64,,,1797054.0
1625051444.078125,170.67,,,1798355.0
1625051444.09375,147.36,,,1794070.0
1625051444.109375,112.65,,,1791673.0
1625051444.125,75.93,,,1791572.0
1625051444.140625,48.47,,,1791155.0
1625051444.15625,39.7,,,1788816.0
1625051444.171875,53.91,,,1785513.0
1625051444.1875,88.72,,,1782272.0
1625051444.203125,135.98,,,1780788.0
1625051444.21875,184.56,,,1779740.0
1625051444.234375,223.75,,,1779085.0
1625051444.25,245.87,,,1779036.0
1625051444.265625,247.43,,,1779349.0
1625051444.28125,228.86,,,1779094.0
1625051444.296875,193.44,,,1779535.0
1625051444.3125,145.83,,,1781091.0
1625051444.328125,91.15,,,1781979.0
1625051444.34375,34.09,,,1783119.0
1625051444.359375,-21.75,,,1783943.0
1625051444.375,-74.13,,,1785102.0
1625051444.390625,-122.48,,,1786034.0
1625051444.40625,-168.12,,,1787101.0
1625051444.421875,-214.22,,,1787924.0
1625051444.4375,-264.9,,,1789565.0
1625051444.453125,-323.51,,,1789797.0
1625051444.46875,-390.23,,,1787569.0
1625051444.484375,-460.51,,,1785115.0
1625051444.5,-525.19,,,1783012.0
1625051444.515625,-572.94,,,1781853.0
1625051444.53125,-594.32,,,1781001.0
1625051444.546875,-585.34,,,1781060.0
1625051444.5625,-548.93,,,1780550.0
1625051444.578125,-493.56,,,1780190.0
1625051444.59375,-429.75,,,1780439.0
1625051444.609375,-366.35,,,1780851.0
1625051444.625,-308.21,,,1781290.0
1625051444.640625,-256.16,,,1782745.0
1625051444.65625,-208.35,,,1783772.0
1625051444.671875,-162.31,,,1785098.0
1625051444.6875,-116.13,,,1786396.0
1625051444.703125,-68.65,,,1785209.0
1625051444.71875,-19.06,,,1788989.0
1625051444.734375,33.64,,,1790852.0
1625051444.75,90.46,,,1794104.0
1625051444.765625,151.6,,,1794537.0
1625051444.78125,215.21,,,1794882.0
1625051444.796875,276.72,,,1795144.0
1625051444.8125,329.15,,,1794756.0
1625051444.828125,365.24,,,1793173.0
1625051444.84375,380.34,,,1791612.0
1625051444.859375,374.82,,,1789649.0
1625051444.875,354.52,,,1789280.0
1625051444.890625,328.37,,,1789461.0
1625051444.90625,304.53,,,1789522.0
1625051444.921875,286.8,,,1789125.0
1625051444.9375,273.6,,,1790189.0
1625051444.953125,259.81,,,1793432.0
1625051444.96875,240.51,,,1796034.0
1625051444.984375,214.1,,,1798812.0
1625051445.0,183.28,,,1799494.0
1625051445.015625,153.42,,,1796366.0
1625051445.03125,129.55,,,1796512.0
1625051445.046875,113.8,,,1796537.0
1625051445.0625,104.74,,,1797102.0
1625051445.078125,98.72,,,1798911.0
1625051445.09375,92.1,,,1802830.0
1625051445.109375,82.98,,,1799025.0
1625051445.125,71.68,,,1797195.0
1625051445.140625,59.74,,,1797857.0
1625051445.15625,48.38,,,1800608.0
1625051445.171875,37.56,,,1804866.0
1625051445.1875,25.77,,,1808005.0
1625051445.203125,11.0,,,1807895.0
1625051445.21875,-7.92,,,1807219.0
1625051445.234375,-30.27,,,1806803.0
1625051445.25,-53.22,,,1806198.0
1625051445.265625,-72.73,,,1806329.0
1625051445.28125,-85.17,,,1806260.0
1625051445.296875,-88.99,,,1806802.0
1625051445.3125,-85.44,,,1807431.0
1625051445.328125,-78.04,,,1808752.0
1625051445.34375,-70.86,,,1810001.0
1625051445.359375,-66.65,,,1811209.0
1625051445.375,-65.67,,,1810846.0
1625051445.390625,-66.03,,,1807271.0
1625051445.40625,-65.12,,,1803797.0
1625051445.421875,-61.55,,,1800821.0
1625051445.4375,-56.06,,,1797880.0
1625051445.453125,-51.08,,,1796233.0
1625051445.46875,-49.15,,,1794902.0
1625051445.484375,-51.36,,,1794192.0
1625051445.5,-56.74,,,1792873.0
1625051445.515625,-63.06,,,1791415.0
1625051445.53125,-68.25,,,1790754.0
1625051445.546875,-71.72,,,1790895.0
1625051445.5625,-74.63,,,1791004.0
1625051445.578125,-78.95,,,1791142.0
1625051445.59375,-85.92,,,1791853.0
1625051445.609375,-94.91,,,1792529.0
1625051445.625,-103.15,,,1793171.0
1625051445.640625,-106.67,,,1793772.0
1625051445.65625,-102.06,,,1794428.0
1625051445.671875,-88.03,,,1794999.0
1625051445.6875,-66.24,,,1794800.0
1625051445.703125,-40.79,,,1792459.0
1625051445.71875,-16.75,,,1790216.0
1625051445.734375,1.9,,,1787837.0
1625051445.75,13.64,,,1784622.0
1625051445.765625,19.64,,,1783743.0
1625051445.78125,22.65,,,1785384.0
1625051445.796875,25.09,,,1786915.0
1625051445.8125,27.7,,,1788654.0
1625051445.828125,29.21,,,1790610.0
1625051445.84375,27.58,,,1792119.0
1625051445.859375,21.85,,,1793674.0
1625051445.875,13.36,,,1795497.0
1625051445.890625,5.61,,,1798932.0
1625051445.90625,2.86,,,1797108.0
1625051445.921875,7.89,,,1796765.0
1625051445.9375,20.17,,,1796701.0
1625051445.953125,35.43,,,1796676.0
1625051445.96875,47.12,,,1797539.0
1625051445.984375,49.1,,,1796821.0
1625051446.0,38.66,,,1794310.0
1625051446.015625,18.15,,,1789562.0
1625051446.03125,-5.73,,,1791670.0
1625051446.046875,-24.93,,,1788070.0
1625051446.0625,-34.0,,,1786322.0
1625051446.078125,-32.91,,,1785872.0
1625051446.09375,-26.83,,,1785646.0
1625051446.109375,-23.02,,,1785163.0
1625051446.125,-26.33,,,1784781.0
1625051446.140625,-36.17,,,1784355.0
1625051446.15625,-46.67,,,1784302.0
1625051446.171875,-50.22,,,1784559.0
1625051446.1875,-42.12,,,1785292.0
1625051446.203125,-23.52,,,1785782.0
1625051446.21875,-0.8,,,1785809.0
1625051446.234375,18.17,,,1786483.0
1625051446.25,28.54,,,1787310.0
1625051446.265625,31.08,,,1787451.0
1625051446.28125,31.41,,,1786091.0
1625051446.296875,36.44,,,1782533.0
1625051446.3125,50.43,,,1777777.0
1625051446.328125,72.46,,,1772868.0
1625051446.34375,96.88,,,1768603.0
1625051446.359375,116.18,,,1764240.0
1625051446.375,124.8,,,1760535.0
1625051446.390625,121.99,,,1756412.0
1625051446.40625,112.59,,,1752599.0
1625051446.421875,105.18,,,1749556.0
1625051446.4375,108.48,,,1747815.0
1625051446.453125,127.48,,,1746047.0
1625051446.46875,161.2,,,1745278.0
1625051446.484375,203.09,,,1744019.0
1625051446.5,243.95,,,1742769.0
1625051446.515625,275.83,,,1742005.0
1625051446.53125,294.78,,,1741226.0
1625051446.546875,301.27,,,1740523.0
1625051446.5625,298.21,,,1738301.0
1625051446.578125,288.07,,,1735485.0
1625051446.59375,271.1,,,1732088.0
1625051446.609375,245.49,,,1729054.0
1625051446.625,209.39,,,1728068.0
1625051446.640625,163.08,,,1726767.0
1625051446.65625,109.91,,,1724373.0
1625051446.671875,55.2,,,1726575.0
1625051446.6875,4.09,,,1725098.0
1625051446.703125,-40.78,,,1727619.0
1625051446.71875,-80.11,,,1728767.0
1625051446.734375,-117.25,,,1729554.0
1625051446.75,-156.53,,,1735176.0
1625051446.765625,-201.65,,,1740058.0
1625051446.78125,-254.89,,,1744759.0
1625051446.796875,-316.85,,,1752739.0
1625051446.8125,-386.29,,,1758012.0
1625051446.828125,-459.73,,,1762678.0
1625051446.84375,-531.22,,,1765787.0
1625051446.859375,-592.89,,,1768556.0
