timestamp,bvp,eda,temp,PPG GREEN
1590566737.78125,23.23,0.030741,30.21,2075894.0
1590566737.796875,26.54,0.032022,30.21,2075424.0
1590566737.8125,26.69,0.025617,30.21,2076569.0
1590566737.828125,24.08,0.028179,30.21,2076092.0
1590566737.84375,19.64,0.039707,30.21,2076317.0
1590566737.859375,14.37,0.026898,30.23,2075873.0
1590566737.875,8.89,0.025617,30.23,2075907.0
1590566737.890625,3.37,0.028179,30.23,2075511.0
1590566737.90625,-2.28,0.02946,30.23,2075379.0
1590566737.921875,-8.11,0.028179,30.19,2075459.0
1590566737.9375,-13.85,0.026898,30.19,2075530.0
1590566737.953125,-18.9,0.030741,30.19,2075984.0
1590566737.96875,-22.51,0.032022,30.19,2076303.0
1590566737.984375,-24.18,0.02946,30.21,2076445.0
1590566738.0,-23.92,0.028179,30.21,2076730.0
1590566738.015625,-22.26,0.032022,30.21,2077181.0
1590566738.03125,-20.13,0.02946,30.21,2077316.0
1590566738.046875,-18.43,0.028179,30.19,2077441.0
1590566738.0625,-17.63,0.028179,30.19,2078027.0
1590566738.078125,-17.65,0.032022,30.19,2078567.0
1590566738.09375,-17.84,0.032022,30.19,2078674.0
1590566738.109375,-17.45,0.02946,30.21,2078358.0
1590566738.125,-15.93,0.02946,30.21,2077690.0
1590566738.140625,-13.22,0.033303,30.21,2077012.0
1590566738.15625,-9.84,0.032022,30.21,2076745.0
1590566738.171875,-6.62,0.02946,30.21,2075968.0
1590566738.1875,-4.42,0.030741,30.21,2075823.0
1590566738.203125,-3.83,0.032022,30.21,2075959.0
1590566738.21875,-4.92,0.032022,30.21,2075394.0
1590566738.234375,-7.38,0.030741,30.21,2075700.0
1590566738.25,-10.59,0.030741,30.21,2075423.0
1590566738.265625,-13.94,0.032022,30.21,2075267.0
1590566738.28125,-16.97,0.030741,30.21,2075458.0
1590566738.296875,-19.49,0.028179,30.19,2075601.0
1590566738.3125,-21.53,0.032022,30.19,2075970.0
1590566738.328125,-23.23,0.030741,30.19,2076176.0
1590566738.34375,-24.72,0.028179,30.19,2076444.0
1590566738.359375,-26.06,0.02946,30.19,2076859.0
1590566738.375,-27.29,0.032022,30.19,2076997.0
1590566738.390625,-28.45,0.030741,30.19,2077288.0
1590566738.40625,-29.63,0.02946,30.19,2076767.0
1590566738.421875,-30.85,0.028179,30.17,2075762.0
1590566738.4375,-32.0,0.032022,30.17,2075229.0
1590566738.453125,-32.77,0.032022,30.17,2074465.0
1590566738.46875,-32.69,0.02946,30.17,2073712.0
1590566738.484375,-31.39,0.02946,30.17,2073500.0
1590566738.5,-28.84,0.033303,30.17,2073334.0
1590566738.515625,-25.42,0.032022,30.17,2072901.0
1590566738.53125,-21.88,0.02946,30.17,2072905.0
1590566738.546875,-19.0,0.02946,30.15,2072462.0
1590566738.5625,-17.29,0.032022,30.15,2072594.0
1590566738.578125,-16.84,0.030741,30.15,2072679.0
1590566738.59375,-17.35,0.028179,30.15,2072870.0
1590566738.609375,-18.33,0.032022,30.17,2072822.0
1590566738.625,-19.29,0.032022,30.17,2073223.0
1590566738.640625,-19.78,0.02946,30.17,2073126.0
1590566738.65625,-19.39,0.02946,30.17,2073090.0
1590566738.671875,-17.71,0.032022,30.17,2072955.0
1590566738.6875,-14.47,0.033303,30.17,2073172.0
1590566738.703125,-9.66,0.02946,30.17,2072820.0
1590566738.71875,-3.67,0.02946,30.17,2071414.0
1590566738.734375,2.88,0.032022,30.19,2069532.0
1590566738.75,9.41,0.033303,30.19,2067483.0
1590566738.765625,15.78,0.02946,30.19,2065919.0
1590566738.78125,22.5,0.028179,30.19,2065185.0
1590566738.796875,30.61,0.030741,30.17,2064516.0
1590566738.8125,41.35,0.030741,30.17,2064363.0
1590566738.828125,55.61,0.02946,30.17,2063741.0
1590566738.84375,73.55,0.028179,30.17,2063792.0
1590566738.859375,94.39,0.030741,30.19,2063171.0
1590566738.875,116.57,0.030741,30.19,2063013.0
1590566738.890625,138.13,0.028179,30.19,2062657.0
1590566738.90625,157.1,0.028179,30.19,2062941.0
1590566738.921875,172.04,0.032022,30.17,2063047.0
1590566738.9375,182.37,0.032022,30.17,2063196.0
1590566738.953125,188.45,0.02946,30.17,2063274.0
1590566738.96875,191.45,0.032022,30.17,2063566.0
1590566738.984375,193.03,0.032022,30.17,2063547.0
1590566739.0,194.56,0.032022,30.17,2063812.0
1590566739.015625,196.48,0.02946,30.17,2063628.0
1590566739.03125,197.8,0.033303,30.17,2062373.0
1590566739.046875,195.97,0.033303,30.17,2061106.0
1590566739.0625,187.36,0.030741,30.17,2060142.0
1590566739.078125,168.39,0.030741,30.17,2059111.0
1590566739.09375,136.97,0.033303,30.17,2058746.0
1590566739.109375,93.41,0.032022,30.17,2059041.0
1590566739.125,40.47,0.030741,30.17,2059812.0
1590566739.140625,-17.63,0.030741,30.17,2059932.0
1590566739.15625,-76.4,0.033303,30.17,2059110.0
1590566739.171875,-131.98,0.033303,30.17,2058622.0
1590566739.1875,-181.25,0.030741,30.17,2058515.0
1590566739.203125,-221.45,0.030741,30.17,2058546.0
1590566739.21875,-250.1,0.033303,30.17,2058644.0
1590566739.234375,-265.32,0.032022,30.17,2058942.0
1590566739.25,-266.79,0.030741,30.17,2059053.0
1590566739.265625,-256.43,0.030741,30.17,2059326.0
1590566739.28125,-238.16,0.033303,30.17,2058993.0
1590566739.296875,-216.79,0.033303,30.15,2058553.0
1590566739.3125,-196.2,0.02946,30.15,2058378.0
1590566739.328125,-178.24,0.02946,30.15,2058306.0
1590566739.34375,-162.48,0.032022,30.15,2056193.0
1590566739.359375,-147.15,0.033303,30.19,2054368.0
1590566739.375,-130.49,0.032022,30.19,2053172.0
1590566739.390625,-111.77,0.030741,30.19,2052139.0
1590566739.40625,-91.57,0.033303,30.19,2050872.0
1590566739.421875,-71.44,0.033303,30.17,2049794.0
1590566739.4375,-53.26,0.033303,30.17,2049563.0
1590566739.453125,-38.7,0.02946,30.17,2048621.0
1590566739.46875,-28.83,0.032022,30.17,2048181.0
1590566739.484375,-23.7,0.033303,30.15,2047907.0
1590566739.5,-22.29,0.032022,30.15,2047875.0
1590566739.515625,-22.75,0.032022,30.15,2048083.0
1590566739.53125,-22.88,0.033303,30.15,2048557.0
1590566739.546875,-20.81,0.034583,30.17,2048915.0
1590566739.5625,-15.64,0.032022,30.17,2049484.0
1590566739.578125,-7.57,0.034583,30.17,2049539.0
1590566739.59375,2.16,0.030741,30.17,2049779.0
1590566739.609375,11.84,0.033303,30.15,2049833.0
1590566739.625,19.82,0.034583,30.15,2049664.0
1590566739.640625,25.01,0.030741,30.15,2048386.0
1590566739.65625,27.03,0.030741,30.15,2046564.0
1590566739.671875,26.18,0.033303,30.17,2044972.0
1590566739.6875,23.12,0.033303,30.17,2043938.0
1590566739.703125,18.63,0.030741,30.17,2042603.0
1590566739.71875,13.36,0.030741,30.17,2041650.0
1590566739.734375,7.84,0.030741,30.15,2041133.0
1590566739.75,2.56,0.033303,30.15,2040470.0
1590566739.765625,-1.93,0.032022,30.15,2040211.0
1590566739.78125,-4.99,0.030741,30.15,2039885.0
1590566739.796875,-5.93,0.034583,30.17,2039404.0
1590566739.8125,-4.16,0.035864,30.17,2039414.0
1590566739.828125,0.58,0.033303,30.17,2039492.0
1590566739.84375,8.02,0.030741,30.17,2040034.0
1590566739.859375,17.25,0.034583,30.19,2039849.0
1590566739.875,26.79,0.033303,30.19,2040244.0
1590566739.890625,34.89,0.032022,30.19,2040362.0
1590566739.90625,40.05,0.030741,30.19,2040303.0
1590566739.921875,41.44,0.033303,30.17,2039171.0
1590566739.9375,39.15,0.034583,30.17,2037635.0
1590566739.953125,34.06,0.032022,30.17,2036540.0
1590566739.96875,27.55,0.030741,30.17,2035873.0
1590566739.984375,21.18,0.032022,30.17,2035491.0
1590566740.0,16.61,0.033303,30.17,2035400.0
1590566740.015625,15.61,0.030741,30.17,2034969.0
1590566740.03125,19.63,0.033303,30.17,2034406.0
1590566740.046875,28.8,0.033303,30.17,2033644.0
1590566740.0625,41.01,0.032022,30.17,2033225.0
1590566740.078125,51.78,0.030741,30.17,2032614.0
1590566740.09375,55.79,0.035864,30.17,2032278.0
1590566740.109375,49.32,0.033303,30.19,2032562.0
1590566740.125,32.47,0.032022,30.19,2032275.0
1590566740.140625,9.6,0.030741,30.19,2032660.0
1590566740.15625,-12.48,0.034583,30.19,2032506.0
1590566740.171875,-27.73,0.033303,30.15,2031271.0
1590566740.1875,-33.61,0.032022,30.15,2029808.0
1590566740.203125,-31.71,0.030741,30.15,2028633.0
1590566740.21875,-26.31,0.034583,30.15,2027860.0
1590566740.234375,-21.58,0.033303,30.17,2027106.0
1590566740.25,-19.52,0.032022,30.17,2026860.0
1590566740.265625,-19.52,0.030741,30.17,2026087.0
1590566740.28125,-19.59,0.034583,30.17,2025344.0
1590566740.296875,-18.06,0.033303,30.17,2024797.0
1590566740.3125,-14.77,0.033303,30.17,2024624.0
1590566740.328125,-10.87,0.030741,30.17,2024626.0
1590566740.34375,-8.0,0.034583,30.17,2024978.0
1590566740.359375,-7.13,0.034583,30.17,2025276.0
1590566740.375,-8.09,0.034583,30.17,2025021.0
1590566740.390625,-9.65,0.030741,30.17,2025326.0
1590566740.40625,-10.16,0.033303,30.17,2025526.0
1590566740.421875,-8.39,0.034583,30.15,2026080.0
1590566740.4375,-4.27,0.032022,30.15,2025344.0
1590566740.453125,1.01,0.030741,30.15,2024330.0
1590566740.46875,5.58,0.033303,30.15,2024377.0
1590566740.484375,7.86,0.033303,30.17,2024769.0
1590566740.5,7.48,0.030741,30.17,2025762.0
1590566740.515625,5.61,0.030741,30.17,2030601.0
1590566740.53125,4.33,0.034583,30.17,2035409.0
1590566740.546875,5.54,0.034583,30.17,2037876.0
1590566740.5625,9.8,0.032022,30.17,2038373.0
1590566740.578125,16.18,0.030741,30.17,2038434.0
1590566740.59375,22.77,0.034583,30.17,2038590.0
1590566740.609375,27.76,0.034583,30.15,2038526.0
1590566740.625,30.31,0.032022,30.15,2038199.0
1590566740.640625,30.73,0.030741,30.15,2037468.0
1590566740.65625,30.03,0.033303,30.15,2036914.0
1590566740.671875,29.23,0.035864,30.15,2036367.0
1590566740.6875,28.83,0.032022,30.15,2036107.0
1590566740.703125,28.73,0.030741,30.15,2035834.0
1590566740.71875,28.55,0.034583,30.15,2035115.0
1590566740.734375,27.97,0.034583,30.17,2033563.0
1590566740.75,26.93,0.032022,30.17,2031982.0
1590566740.765625,25.51,0.032022,30.17,2030570.0
1590566740.78125,23.86,0.035864,30.17,2028885.0
1590566740.796875,22.1,0.033303,30.17,2027603.0
1590566740.8125,20.37,0.032022,30.17,2026741.0
1590566740.828125,19.06,0.030741,30.17,2026146.0
1590566740.84375,18.82,0.035864,30.17,2025470.0
1590566740.859375,20.31,0.034583,30.15,2025044.0
1590566740.875,23.81,0.032022,30.15,2024601.0
1590566740.890625,28.96,0.035864,30.15,2024509.0
1590566740.90625,34.56,0.035864,30.15,2024761.0
1590566740.921875,39.04,0.033303,30.17,2024749.0
1590566740.9375,40.9,0.032022,30.17,2024869.0
1590566740.953125,39.31,0.035864,30.17,2025063.0
1590566740.96875,34.42,0.033303,30.17,2025218.0
1590566740.984375,27.17,0.034583,30.15,2025452.0
1590566741.0,18.95,0.032022,30.15,2025979.0
1590566741.015625,11.01,0.033303,30.15,2026336.0
1590566741.03125,4.1,0.034583,30.15,2025592.0
1590566741.046875,-1.59,0.034583,30.15,2022996.0
1590566741.0625,-6.28,0.032022,30.15,2024423.0
1590566741.078125,-10.35,0.033303,30.15,2020914.0
1590566741.09375,-14.23,0.033303,30.15,2021918.0
1590566741.109375,-18.42,0.034583,30.17,2019738.0
1590566741.125,-23.53,0.032022,30.17,2019339.0
1590566741.140625,-30.26,0.034583,30.17,2018813.0
1590566741.15625,-39.25,0.035864,30.17,2018551.0
1590566741.171875,-50.79,0.035864,30.15,2018256.0
1590566741.1875,-64.65,0.032022,30.15,2018075.0
1590566741.203125,-79.91,0.035864,30.15,2018050.0
1590566741.21875,-95.3,0.034583,30.15,2018200.0
1590566741.234375,-109.57,0.033303,30.17,2018173.0
1590566741.25,-121.91,0.032022,30.17,2018448.0
1590566741.265625,-132.12,0.035864,30.17,2018687.0
1590566741.28125,-140.55,0.034583,30.17,2018587.0
1590566741.296875,-147.7,0.033303,30.17,2019227.0
1590566741.3125,-153.76,0.032022,30.17,2019444.0
1590566741.328125,-158.43,0.035864,30.17,2019591.0
1590566741.34375,-160.92,0.034583,30.17,2019795.0
1590566741.359375,-160.37,0.033303,30.17,2018555.0
1590566741.375,-156.3,0.032022,30.17,2017167.0
1590566741.390625,-149.01,0.035864,30.17,2016257.0
1590566741.40625,-139.55,0.035864,30.17,2014862.0
1590566741.421875,-129.39,0.033303,30.13,2013982.0
1590566741.4375,-119.87,0.032022,30.13,2013300.0
1590566741.453125,-111.75,0.034583,30.13,2012899.0
1590566741.46875,-105.02,0.035864,30.13,2012682.0
1590566741.484375,-99.17,0.034583,30.15,2012287.0
1590566741.5,-93.57,0.034583,30.15,2012047.0
1590566741.515625,-87.9,0.032022,30.15,2012165.0
1590566741.53125,-82.34,0.037145,30.15,2012198.0
1590566741.546875,-77.43,0.034583,30.17,2012131.0
1590566741.5625,-73.76,0.032022,30.17,2012519.0
1590566741.578125,-71.66,0.035864,30.17,2012602.0
1590566741.59375,-70.99,0.035864,30.17,2012912.0
1590566741.609375,-71.1,0.033303,30.13,2013139.0
1590566741.625,-70.88,0.032022,30.13,2014208.0
1590566741.640625,-69.06,0.035864,30.13,2013538.0
1590566741.65625,-64.46,0.035864,30.13,2014776.0
1590566741.671875,-56.36,0.033303,30.17,2014917.0
1590566741.6875,-44.83,0.034583,30.17,2014809.0
1590566741.703125,-30.78,0.034583,30.17,2013722.0
1590566741.71875,-15.68,0.035864,30.17,2013129.0
1590566741.734375,-1.03,0.035864,30.15,2011999.0
1590566741.75,12.13,0.035864,30.15,2011409.0
1590566741.765625,23.52,0.034583,30.15,2010876.0
1590566741.78125,33.45,0.035864,30.15,2010913.0
1590566741.796875,42.38,0.033303,30.15,2011449.0
1590566741.8125,50.56,0.035864,30.15,2011737.0
1590566741.828125,57.8,0.037145,30.15,2011841.0
1590566741.84375,63.75,0.035864,30.15,2012912.0
1590566741.859375,68.21,0.034583,30.19,2013245.0
1590566741.875,71.4,0.037145,30.19,2012909.0
1590566741.890625,73.88,0.037145,30.19,2012916.0
1590566741.90625,76.3,0.035864,30.19,2012548.0
1590566741.921875,78.88,0.034583,30.15,2013033.0
1590566741.9375,81.3,0.035864,30.15,2013440.0
1590566741.953125,82.77,0.035864,30.15,2013658.0
1590566741.96875,82.49,0.034583,30.15,2014057.0
1590566741.984375,80.11,0.034583,30.17,2014917.0
1590566742.0,75.95,0.037145,30.17,2015353.0
1590566742.015625,70.89,0.037145,30.17,2015772.0
1590566742.03125,65.91,0.034583,30.17,2015152.0
1590566742.046875,61.66,0.034583,30.17,2013483.0
1590566742.0625,58.07,0.037145,30.17,2012357.0
1590566742.078125,54.5,0.037145,30.17,2011163.0
1590566742.09375,50.09,0.034583,30.17,2009457.0
1590566742.109375,44.2,0.034583,30.13,2008249.0
1590566742.125,36.81,0.033303,30.13,2007976.0
1590566742.140625,28.52,0.037145,30.13,2007226.0
1590566742.15625,20.22,0.034583,30.13,2006504.0
1590566742.171875,12.7,0.034583,30.15,2006145.0
1590566742.1875,6.21,0.038426,30.15,2005903.0
1590566742.203125,0.45,0.037145,30.15,2005538.0
1590566742.21875,-5.24,0.034583,30.15,2005826.0
1590566742.234375,-11.64,0.034583,30.17,2005554.0
1590566742.25,-19.34,0.039707,30.17,2005698.0
1590566742.265625,-28.64,0.037145,30.17,2005628.0
1590566742.28125,-39.35,0.034583,30.17,2005863.0
1590566742.296875,-50.64,0.035864,30.15,2006244.0
1590566742.3125,-60.85,0.038426,30.15,2006599.0
1590566742.328125,-67.67,0.037145,30.15,2005923.0
1590566742.34375,-68.69,0.035864,30.15,2004269.0
1590566742.359375,-62.23,0.035864,30.17,2003019.0
1590566742.375,-48.16,0.034583,30.17,2001612.0
1590566742.390625,-28.26,0.039707,30.17,2000690.0
1590566742.40625,-5.74,0.035864,30.17,2000275.0
1590566742.421875,15.82,0.035864,30.15,1999712.0
1590566742.4375,33.64,0.038426,30.15,1998973.0
1590566742.453125,46.48,0.038426,30.15,1998508.0
1590566742.46875,54.65,0.035864,30.15,1998006.0
1590566742.484375,59.38,0.034583,30.17,1997880.0
1590566742.5,62.04,0.037145,30.17,1997932.0
1590566742.515625,63.54,0.037145,30.17,1997747.0
1590566742.53125,64.29,0.035864,30.17,1997923.0
1590566742.546875,64.45,0.034583,30.15,1998412.0
1590566742.5625,64.21,0.039707,30.15,1998541.0
1590566742.578125,63.92,0.039707,30.15,1998179.0
1590566742.59375,63.91,0.035864,30.15,1998579.0
1590566742.609375,64.33,0.035864,30.17,1998904.0
1590566742.625,65.07,0.039707,30.17,1997574.0
1590566742.640625,65.73,0.037145,30.17,1995696.0
1590566742.65625,65.87,0.035864,30.17,1993972.0
1590566742.671875,65.13,0.034583,30.15,1992359.0
1590566742.6875,63.4,0.039707,30.15,1990764.0
1590566742.703125,60.78,0.037145,30.15,1989455.0
1590566742.71875,57.48,0.035864,30.15,1988374.0
1590566742.734375,53.66,0.039707,30.13,1987561.0
1590566742.75,49.42,0.039707,30.13,1986871.0
1590566742.765625,44.74,0.039707,30.13,1985929.0
1590566742.78125,39.61,0.037145,30.13,1985285.0
1590566742.796875,34.04,0.037145,30.15,1984825.0
1590566742.8125,28.18,0.038426,30.15,1984658.0
1590566742.828125,22.24,0.037145,30.15,1984645.0
1590566742.84375,16.48,0.035864,30.15,1984611.0
1590566742.859375,11.02,0.035864,30.15,1984193.0
1590566742.875,5.73,0.040988,30.15,1984130.0
1590566742.890625,0.24,0.039707,30.15,1984214.0
1590566742.90625,-6.01,0.037145,30.15,1984213.0
1590566742.921875,-13.47,0.039707,30.15,1982789.0
1590566742.9375,-22.11,0.039707,30.15,1980564.0
1590566742.953125,-31.08,0.038426,30.15,1977923.0
1590566742.96875,-38.75,0.038426,30.15,1975497.0
1590566742.984375,-43.09,0.037145,30.15,1973190.0
1590566743.0,-42.51,0.039707,30.15,1970947.0
1590566743.015625,-36.5,0.039707,30.15,1969617.0
1590566743.03125,-26.01,0.037145,30.15,1968354.0
1590566743.046875,-13.13,0.040988,30.15,1966795.0
1590566743.0625,-0.29,0.038426,30.15,1965563.0
1590566743.078125,10.57,0.039707,30.15,1964608.0
1590566743.09375,18.66,0.039707,30.15,1963644.0
1590566743.109375,24.24,0.039707,30.15,1962854.0
1590566743.125,28.23,0.039707,30.15,1962423.0
1590566743.140625,31.46,0.039707,30.15,1962192.0
1590566743.15625,34.33,0.038426,30.15,1961808.0
1590566743.171875,36.77,0.039707,30.17,1961608.0
1590566743.1875,38.5,0.038426,30.17,1961619.0
1590566743.203125,39.43,0.038426,30.17,1961341.0
1590566743.21875,39.72,0.037145,30.17,1960932.0
1590566743.234375,39.69,0.037145,30.15,1958104.0
1590566743.25,39.58,0.038426,30.15,1955300.0
1590566743.265625,39.37,0.038426,30.15,1952799.0
1590566743.28125,38.87,0.037145,30.15,1950375.0
1590566743.296875,37.87,0.035864,30.17,1947842.0
1590566743.3125,36.31,0.035864,30.17,1945622.0
1590566743.328125,34.47,0.039707,30.17,1944349.0
1590566743.34375,32.74,0.048673,30.17,1943323.0
1590566743.359375,31.51,0.037145,30.15,1942079.0
1590566743.375,30.91,0.039707,30.15,1941337.0
1590566743.390625,30.68,0.038426,30.15,1940417.0
1590566743.40625,30.22,0.037145,30.15,1940158.0
1590566743.421875,28.8,0.037145,30.15,1939705.0
1590566743.4375,25.86,0.038426,30.15,1939425.0
1590566743.453125,21.25,0.038426,30.15,1939669.0
1590566743.46875,15.28,0.039707,30.15,1939628.0
1590566743.484375,8.7,0.035864,30.15,1939671.0
1590566743.5,2.37,0.035864,30.15,1939645.0
1590566743.515625,-3.07,0.040988,30.15,1939971.0
1590566743.53125,-7.47,0.039707,30.15,1940063.0
1590566743.546875,-11.24,0.037145,30.15,1939708.0
1590566743.5625,-15.22,0.037145,30.15,1937492.0
1590566743.578125,-20.28,0.038426,30.15,1934593.0
1590566743.59375,-26.98,0.040988,30.15,1932243.0
1590566743.609375,-35.21,0.037145,30.15,1929849.0
1590566743.625,-44.09,0.035864,30.15,1927685.0
1590566743.640625,-52.03,0.039707,30.15,1926418.0
1590566743.65625,-57.15,0.039707,30.15,1924819.0
1590566743.671875,-57.81,0.037145,30.13,1922900.0
1590566743.6875,-53.14,0.037145,30.13,1923809.0
1590566743.703125,-43.42,0.040988,30.13,1922019.0
1590566743.71875,-30.07,0.042269,30.13,1921522.0
1590566743.734375,-15.29,0.039707,30.13,1921158.0
1590566743.75,-1.27,0.038426,30.13,1921042.0
1590566743.765625,10.35,0.039707,30.13,1920656.0
1590566743.78125,18.96,0.040988,30.13,1920456.0
1590566743.796875,24.89,0.040988,30.15,1920469.0
1590566743.8125,29.02,0.037145,30.15,1920452.0
1590566743.828125,32.19,0.040988,30.15,1920741.0
1590566743.84375,34.82,0.039707,30.15,1920942.0
1590566743.859375,36.82,0.038426,30.15,1920929.0
1590566743.875,37.83,0.037145,30.15,1921477.0
1590566743.890625,37.58,0.040988,30.15,1920328.0
1590566743.90625,36.19,0.039707,30.15,1917823.0
1590566743.921875,34.16,0.040988,30.13,1915195.0
1590566743.9375,32.25,0.038426,30.13,1913126.0
1590566743.953125,31.15,0.037145,30.13,1910889.0
1590566743.96875,31.18,0.040988,30.13,1909224.0
1590566743.984375,32.17,0.042269,30.11,1908034.0
1590566744.0,33.56,0.038426,30.11,1906938.0
1590566744.015625,34.64,0.038426,30.11,1905636.0
1590566744.03125,34.81,0.042269,30.11,1904473.0
1590566744.046875,33.81,0.040988,30.17,1904061.0
1590566744.0625,31.74,0.038426,30.17,1903568.0
1590566744.078125,28.96,0.038426,30.17,1903426.0
1590566744.09375,25.87,0.040988,30.17,1903158.0
1590566744.109375,22.71,0.042269,30.15,1903111.0
1590566744.125,19.45,0.039707,30.15,1903178.0
1590566744.140625,15.9,0.038426,30.15,1903327.0
1590566744.15625,11.79,0.042269,30.15,1903447.0
1590566744.171875,7.01,0.040988,30.15,1903931.0
1590566744.1875,1.68,0.038426,30.15,1903752.0
1590566744.203125,-3.88,0.038426,30.15,1902226.0
1590566744.21875,-9.26,0.042269,30.15,1900378.0
1590566744.234375,-14.19,0.042269,30.17,1899835.0
1590566744.25,-18.58,0.039707,30.17,1899199.0
1590566744.265625,-22.57,0.039707,30.17,1898658.0
1590566744.28125,-26.46,0.042269,30.17,1898367.0
1590566744.296875,-30.62,0.040988,30.15,1898502.0
1590566744.3125,-35.48,0.039707,30.15,1898024.0
1590566744.328125,-41.41,0.039707,30.15,1897882.0
1590566744.34375,-48.64,0.042269,30.15,1897651.0
1590566744.359375,-56.99,0.040988,30.15,1897562.0
1590566744.375,-65.67,0.039707,30.15,1897926.0
1590566744.390625,-73.23,0.039707,30.15,1898484.0
1590566744.40625,-77.78,0.038426,30.15,1898871.0
1590566744.421875,-77.55,0.04355,30.17,1899257.0
1590566744.4375,-71.56,0.039707,30.17,1899411.0
1590566744.453125,-60.07,0.040988,30.17,1899856.0
1590566744.46875,-44.59,0.038426,30.17,1900476.0
1590566744.484375,-27.44,0.042269,30.15,1899877.0
1590566744.5,-11.04,0.039707,30.15,1897916.0
1590566744.515625,2.85,0.039707,30.15,1896229.0
1590566744.53125,13.54,0.04355,30.15,1894461.0
1590566744.546875,21.33,0.04355,30.15,1892693.0
1590566744.5625,27.09,0.040988,30.15,1891658.0
1590566744.578125,31.7,0.039707,30.15,1890953.0
1590566744.59375,35.67,0.04355,30.15,1890380.0
1590566744.609375,39.01,0.04355,30.15,1889715.0
1590566744.625,41.42,0.040988,30.15,1888959.0
1590566744.640625,42.63,0.039707,30.15,1888580.0
1590566744.65625,42.64,0.042269,30.15,1888100.0
1590566744.671875,41.8,0.04355,30.15,1888175.0
1590566744.6875,40.65,0.040988,30.15,1888032.0
1590566744.703125,39.69,0.039707,30.15,1887937.0
1590566744.71875,39.19,0.042269,30.15,1888078.0
1590566744.734375,39.11,0.040988,30.17,1887985.0
1590566744.75,39.24,0.039707,30.17,1887412.0
1590566744.765625,39.35,0.039707,30.17,1886937.0
1590566744.78125,39.29,0.04483,30.17,1886387.0
1590566744.796875,39.0,0.04355,30.15,1885610.0
1590566744.8125,38.42,0.040988,30.15,1882836.0
1590566744.828125,37.42,0.040988,30.15,1879778.0
1590566744.84375,35.84,0.042269,30.15,1877381.0
1590566744.859375,33.51,0.04483,30.15,1874807.0
1590566744.875,30.45,0.04355,30.15,1872213.0
1590566744.890625,26.77,0.040988,30.15,1869913.0
1590566744.90625,22.74,0.04483,30.15,1868102.0
1590566744.921875,18.57,0.04483,30.17,1866832.0
1590566744.9375,14.33,0.04355,30.17,1864902.0
1590566744.953125,9.96,0.040988,30.17,1864169.0
1590566744.96875,5.36,0.04355,30.17,1863631.0
1590566744.984375,0.53,0.04483,30.15,1863113.0
1590566745.0,-4.39,0.04355,30.15,1862819.0
1590566745.015625,-9.15,0.040988,30.15,1862989.0
1590566745.03125,-13.5,0.039707,30.15,1863033.0
1590566745.046875,-17.39,0.04483,30.15,1862986.0
1590566745.0625,-20.99,0.04355,30.15,1863591.0
1590566745.078125,-24.61,0.040988,30.15,1864146.0
1590566745.09375,-28.68,0.039707,30.15,1864846.0
1590566745.109375,-33.6,0.04355,30.15,1862869.0
1590566745.125,-39.68,0.04355,30.15,1860207.0
1590566745.140625,-47.02,0.040988,30.15,1858564.0
1590566745.15625,-55.26,0.040988,30.15,1856998.0
1590566745.171875,-63.37,0.04355,30.15,1855221.0
1590566745.1875,-69.64,0.04483,30.15,1854074.0
1590566745.203125,-72.06,0.042269,30.15,1853609.0
1590566745.21875,-68.99,0.042269,30.15,1852936.0
1590566745.234375,-59.95,0.04483,30.13,1852278.0
1590566745.25,-45.89,0.042269,30.13,1852181.0
1590566745.265625,-29.02,0.042269,30.13,1852476.0
1590566745.28125,-11.94,0.040988,30.13,1852471.0
1590566745.296875,3.26,0.04483,30.15,1853440.0
1590566745.3125,15.57,0.04483,30.15,1854671.0
1590566745.328125,25.16,0.042269,30.15,1855264.0
1590566745.34375,32.83,0.040988,30.15,1856409.0
1590566745.359375,39.44,0.04355,30.15,1857386.0
1590566745.375,45.52,0.04483,30.15,1858427.0
1590566745.390625,51.15,0.040988,30.15,1859731.0
1590566745.40625,56.16,0.040988,30.15,1861073.0
1590566745.421875,60.39,0.04483,30.15,1861158.0
1590566745.4375,63.83,0.04483,30.15,1859645.0
1590566745.453125,66.6,0.04483,30.15,1857799.0
1590566745.46875,68.9,0.040988,30.15,1856240.0
1590566745.484375,70.96,0.04355,30.15,1854882.0
1590566745.5,72.99,0.04483,30.15,1853738.0
1590566745.515625,75.15,0.04355,30.15,1853118.0
1590566745.53125,77.58,0.042269,30.15,1852750.0
1590566745.546875,80.35,0.042269,30.13,1852586.0
1590566745.5625,83.4,0.040988,30.13,1852116.0
1590566745.578125,86.62,0.04483,30.13,1852059.0
1590566745.59375,89.82,0.04355,30.13,1852301.0
1590566745.609375,92.78,0.040988,30.17,1852569.0
1590566745.625,95.24,0.046111,30.17,1853137.0
1590566745.640625,97.0,0.046111,30.17,1853699.0
1590566745.65625,97.95,0.042269,30.17,1854493.0
1590566745.671875,98.19,0.042269,30.17,1855217.0
1590566745.6875,97.98,0.04483,30.17,1855943.0
1590566745.703125,97.7,0.04483,30.17,1856575.0
1590566745.71875,97.77,0.04355,30.17,1857461.0
1590566745.734375,98.4,0.042269,30.15,1858384.0
1590566745.75,99.56,0.04483,30.15,1857872.0
1590566745.765625,100.9,0.04355,30.15,1856072.0
1590566745.78125,101.95,0.04483,30.15,1853978.0
1590566745.796875,102.2,0.042269,30.15,1852526.0
1590566745.8125,101.31,0.042269,30.15,1851495.0
1590566745.828125,99.17,0.046111,30.15,1850090.0
1590566745.84375,95.85,0.04483,30.15,1849831.0
1590566745.859375,91.52,0.04355,30.17,1849501.0
1590566745.875,86.37,0.040988,30.17,1848964.0
1590566745.890625,80.58,0.04483,30.17,1848776.0
1590566745.90625,74.29,0.04483,30.17,1848696.0
1590566745.921875,67.67,0.042269,30.15,1848808.0
1590566745.9375,60.93,0.040988,30.15,1849354.0
1590566745.953125,54.28,0.04483,30.15,1849890.0
1590566745.96875,48.02,0.04355,30.15,1850125.0
1590566745.984375,42.62,0.040988,30.15,1850958.0
1590566746.0,38.72,0.042269,30.15,1851521.0
1590566746.015625,37.12,0.04483,30.15,1852257.0
1590566746.03125,38.52,0.04483,30.15,1853010.0
1590566746.046875,43.11,0.042269,30.17,1853818.0
1590566746.0625,50.39,0.040988,30.17,1853378.0
1590566746.078125,59.27,0.04483,30.17,1851295.0
1590566746.09375,68.37,0.04483,30.17,1849656.0
1590566746.109375,76.62,0.04483,30.15,1848150.0
1590566746.125,83.44,0.040988,30.15,1847231.0
1590566746.140625,88.7,0.04483,30.15,1846753.0
1590566746.15625,92.28,0.04483,30.15,1846351.0
1590566746.171875,93.73,0.04483,30.17,1846215.0
1590566746.1875,92.12,0.042269,30.17,1845734.0
1590566746.203125,86.56,0.040988,30.17,1845657.0
1590566746.21875,76.7,0.04483,30.17,1845799.0
1590566746.234375,63.28,0.04483,30.15,1846219.0
1590566746.25,48.04,0.042269,30.15,1846625.0
1590566746.265625,33.23,0.040988,30.15,1847209.0
1590566746.28125,20.87,0.04483,30.15,1847888.0
1590566746.296875,12.12,0.046111,30.13,1848616.0
1590566746.3125,6.96,0.042269,30.13,1849481.0
1590566746.328125,4.4,0.042269,30.13,1850289.0
1590566746.34375,2.84,0.046111,30.13,1850774.0
1590566746.359375,0.69,0.046111,30.13,1849442.0
1590566746.375,-3.23,0.04355,30.13,1847762.0
1590566746.390625,-9.34,0.042269,30.13,1846564.0
1590566746.40625,-17.29,0.04483,30.13,1845320.0
1590566746.421875,-26.27,0.04483,30.15,1844670.0
1590566746.4375,-35.41,0.042269,30.15,1844280.0
1590566746.453125,-44.28,0.042269,30.15,1844312.0
1590566746.46875,-52.89,0.046111,30.15,1844202.0
1590566746.484375,-61.57,0.046111,30.17,1844308.0
1590566746.5,-70.55,0.042269,30.17,1844623.0
1590566746.515625,-79.63,0.04355,30.17,1844976.0
1590566746.53125,-88.11,0.046111,30.17,1845557.0
1590566746.546875,-95.15,0.046111,30.15,1846220.0
1590566746.5625,-100.17,0.04483,30.15,1847258.0
1590566746.578125,-103.14,0.042269,30.15,1847874.0
1590566746.59375,-104.63,0.046111,30.15,1848671.0
1590566746.609375,-105.36,0.057639,30.15,1849552.0
1590566746.625,-105.91,0.046111,30.15,1850465.0
1590566746.640625,-106.34,0.042269,30.15,1851147.0
1590566746.65625,-106.28,0.046111,30.15,1850284.0
1590566746.671875,-105.12,0.04483,30.15,1848262.0
1590566746.6875,-102.33,0.04483,30.15,1846837.0
1590566746.703125,-97.59,0.04355,30.15,1845347.0
1590566746.71875,-90.86,0.04483,30.15,1844129.0
1590566746.734375,-82.57,0.047392,30.15,1843510.0
1590566746.75,-73.93,0.046111,30.15,1843149.0
1590566746.765625,-67.08,0.04483,30.15,1842976.0
1590566746.78125,-64.93,0.04355,30.15,1842846.0
1590566746.796875,-70.35,0.046111,30.17,1842870.0
1590566746.8125,-84.95,0.046111,30.17,1842907.0
1590566746.828125,-108.14,0.04483,30.17,1843441.0
1590566746.84375,-136.81,0.04355,30.17,1844408.0
1590566746.859375,-166.23,0.046111,30.15,1844843.0
1590566746.875,-191.67,0.046111,30.15,1843895.0
1590566746.890625,-209.95,0.04483,30.15,1846056.0
1590566746.90625,-220.39,0.04355,30.15,1845473.0
1590566746.921875,-224.51,0.047392,30.17,1847901.0
1590566746.9375,-224.78,0.047392,30.17,1848351.0
1590566746.953125,-223.16,0.056358,30.17,1846861.0
1590566746.96875,-220.13,0.04483,30.17,1847450.0
1590566746.984375,-214.63,0.048673,30.17,1843598.0
1590566747.0,-204.85,0.048673,30.17,1840890.0
1590566747.015625,-189.26,0.04483,30.17,1840048.0
1590566747.03125,-167.53,0.04355,30.17,1839836.0
1590566747.046875,-140.72,0.047392,30.17,1845163.0
1590566747.0625,-110.98,0.047392,30.17,1842350.0
1590566747.078125,-80.85,0.047392,30.17,1839508.0
1590566747.09375,-52.47,0.04355,30.17,1839874.0
1590566747.109375,-27.21,0.047392,30.15,1839501.0
1590566747.125,-5.64,0.047392,30.15,1840617.0
1590566747.140625,12.2,0.047392,30.15,1841349.0
1590566747.15625,26.44,0.04483,30.15,1842052.0
1590566747.171875,37.19,0.04483,30.17,1844429.0
1590566747.1875,44.65,0.047392,30.17,1842819.0
1590566747.203125,49.23,0.047392,30.17,1843583.0
1590566747.21875,51.74,0.04483,30.17,1845156.0
1590566747.234375,53.29,0.04483,30.17,1845985.0
1590566747.25,55.05,0.047392,30.17,1846838.0
1590566747.265625,57.84,0.048673,30.17,1847457.0
1590566747.28125,61.87,0.046111,30.17,1845501.0
1590566747.296875,66.71,0.057639,30.15,1842882.0
1590566747.3125,71.49,0.046111,30.15,1844072.0
1590566747.328125,75.32,0.048673,30.15,1846835.0
1590566747.34375,77.56,0.046111,30.15,1841849.0
1590566747.359375,78.05,0.04483,30.15,1841189.0
1590566747.375,76.98,0.048673,30.15,1841343.0
1590566747.390625,74.74,0.047392,30.15,1841171.0
1590566747.40625,71.71,0.04483,30.15,1841068.0
1590566747.421875,68.18,0.04483,30.15,1841103.0
1590566747.4375,64.3,0.048673,30.15,1841370.0
1590566747.453125,60.11,0.048673,30.15,1843761.0
1590566747.46875,55.58,0.046111,30.15,1845084.0
1590566747.484375,50.68,0.04483,30.15,1846684.0
1590566747.5,45.4,0.048673,30.15,1842266.0
1590566747.515625,39.83,0.048673,30.15,1848694.0
1590566747.53125,34.18,0.047392,30.15,1851340.0
1590566747.546875,28.77,0.04483,30.17,1857530.0
1590566747.5625,23.99,0.047392,30.17,1864582.0
1590566747.578125,20.09,0.048673,30.17,1869047.0
1590566747.59375,17.08,0.047392,30.17,1870751.0
1590566747.609375,14.71,0.04483,30.15,1870388.0
1590566747.625,12.5,0.04355,30.15,1869568.0
1590566747.640625,10.02,0.048673,30.15,1868390.0
1590566747.65625,7.0,0.048673,30.15,1867311.0
1590566747.671875,3.38,0.04483,30.17,1866716.0
1590566747.6875,-0.71,0.04483,30.17,1866639.0
1590566747.703125,-5.08,0.048673,30.17,1865211.0
1590566747.71875,-9.5,0.048673,30.17,1865848.0
1590566747.734375,-13.6,0.04483,30.15,1865357.0
1590566747.75,-16.87,0.04483,30.15,1865752.0
1590566747.765625,-18.6,0.047392,30.15,1865953.0
1590566747.78125,-18.14,0.048673,30.15,1866755.0
1590566747.796875,-15.2,0.048673,30.15,1866926.0
1590566747.8125,-10.21,0.04483,30.15,1865240.0
1590566747.828125,-4.23,0.047392,30.15,1867505.0
1590566747.84375,1.32,0.048673,30.15,1868111.0
1590566747.859375,5.21,0.046111,30.15,1868587.0
1590566747.875,6.92,0.04483,30.15,1868606.0
1590566747.890625,6.77,0.04483,30.15,1865144.0
1590566747.90625,5.62,0.047392,30.15,1863948.0
1590566747.921875,4.47,0.046111,30.15,1862844.0
1590566747.9375,3.89,0.04483,30.15,1862219.0
1590566747.953125,3.88,0.048673,30.15,1861999.0
1590566747.96875,4.03,0.049954,30.15,1861678.0
1590566747.984375,3.91,0.046111,30.15,1861443.0
1590566748.0,3.33,0.04483,30.15,1861022.0
1590566748.015625,2.47,0.049954,30.15,1861200.0
1590566748.03125,1.71,0.048673,30.15,1866630.0
1590566748.046875,1.42,0.048673,30.17,1861723.0
1590566748.0625,1.77,0.046111,30.17,1862923.0
1590566748.078125,2.66,0.048673,30.17,1863427.0
1590566748.09375,3.81,0.049954,30.17,1864089.0
1590566748.109375,4.87,0.049954,30.15,1864426.0
1590566748.125,5.62,0.046111,30.15,1864843.0
1590566748.140625,6.04,0.047392,30.15,1865179.0
1590566748.15625,6.3,0.049954,30.15,1863482.0
1590566748.171875,6.67,0.049954,30.15,1861441.0
1590566748.1875,7.41,0.047392,30.15,1862349.0
1590566748.203125,8.61,0.047392,30.15,1859731.0
1590566748.21875,10.07,0.048673,30.15,1858063.0
1590566748.234375,11.43,0.051235,30.15,1856628.0
1590566748.25,12.28,0.051235,30.15,1855672.0
1590566748.265625,12.37,0.048673,30.15,1855326.0
1590566748.28125,11.79,0.047392,30.15,1854807.0
1590566748.296875,10.89,0.051235,30.15,1854813.0
1590566748.3125,10.15,0.049954,30.15,1854800.0
1590566748.328125,9.89,0.048673,30.15,1854617.0
1590566748.34375,10.18,0.046111,30.15,1855003.0
1590566748.359375,10.78,0.051235,30.15,1855605.0
1590566748.375,11.4,0.049954,30.15,1856107.0
1590566748.390625,11.88,0.049954,30.15,1856807.0
1590566748.40625,12.28,0.048673,30.15,1857341.0
1590566748.421875,12.82,0.047392,30.13,1858238.0
1590566748.4375,13.63,0.051235,30.13,1858844.0
1590566748.453125,14.63,0.052516,30.13,1859017.0
1590566748.46875,15.59,0.049954,30.13,1853284.0
1590566748.484375,16.48,0.048673,30.15,1851642.0
1590566748.5,17.65,0.051235,30.15,1857413.0
1590566748.515625,19.89,0.052516,30.15,1855061.0
1590566748.53125,24.19,0.051235,30.15,1850316.0
1590566748.546875,31.11,0.051235,30.15,1849205.0
1590566748.5625,40.46,0.048673,30.15,1848364.0
1590566748.578125,51.19,0.052516,30.15,1849022.0
1590566748.59375,61.77,0.052516,30.15,1848155.0
1590566748.609375,70.85,0.048673,30.17,1847935.0
1590566748.625,77.75,0.048673,30.17,1848167.0
1590566748.640625,82.65,0.052516,30.17,1848243.0
1590566748.65625,86.27,0.051235,30.17,1848715.0
1590566748.671875,89.39,0.049954,30.15,1849529.0
1590566748.6875,92.39,0.048673,30.15,1849828.0
1590566748.703125,95.22,0.049954,30.15,1850302.0
1590566748.71875,97.58,0.051235,30.15,1851119.0
1590566748.734375,99.22,0.052516,30.15,1851585.0
1590566748.75,100.16,0.048673,30.15,1852148.0
1590566748.765625,100.56,0.048673,30.15,1852959.0
1590566748.78125,100.57,0.052516,30.15,1852058.0
1590566748.796875,100.12,0.051235,30.15,1850176.0
1590566748.8125,98.99,0.048673,30.15,1848219.0
1590566748.828125,96.8,0.048673,30.15,1846519.0
1590566748.84375,93.25,0.052516,30.15,1844982.0
1590566748.859375,88.18,0.051235,30.17,1843848.0
1590566748.875,81.55,0.049954,30.17,1843366.0
1590566748.890625,73.42,0.048673,30.17,1842545.0
1590566748.90625,63.88,0.048673,30.17,1841794.0
1590566748.921875,53.18,0.052516,30.17,1841485.0
1590566748.9375,41.68,0.049954,30.17,1841072.0
1590566748.953125,29.87,0.048673,30.17,1841367.0
1590566748.96875,18.27,0.053796,30.17,1841399.0
1590566748.984375,7.29,0.052516,30.15,1841964.0
1590566749.0,-2.86,0.049954,30.15,1842379.0
1590566749.015625,-12.24,0.048673,30.15,1842914.0
1590566749.03125,-21.0,0.052516,30.15,1843326.0
1590566749.046875,-29.31,0.052516,30.15,1844084.0
1590566749.0625,-37.15,0.049954,30.15,1844748.0
1590566749.078125,-44.43,0.048673,30.15,1845130.0
1590566749.09375,-51.09,0.053796,30.15,1843742.0
1590566749.109375,-57.41,0.052516,30.15,1841595.0
1590566749.125,-64.08,0.049954,30.15,1840349.0
1590566749.140625,-72.12,0.048673,30.15,1839008.0
1590566749.15625,-82.45,0.051235,30.15,1838286.0
1590566749.171875,-95.48,0.052516,30.13,1838060.0
1590566749.1875,-110.85,0.052516,30.13,1837701.0
1590566749.203125,-127.44,0.051235,30.13,1837352.0
1590566749.21875,-143.88,0.052516,30.13,1837014.0
1590566749.234375,-159.01,0.052516,30.15,1837062.0
1590566749.25,-172.18,0.051235,30.15,1837435.0
1590566749.265625,-183.21,0.052516,30.15,1837885.0
1590566749.28125,-192.08,0.051235,30.15,1838534.0
1590566749.296875,-198.58,0.053796,30.13,1839199.0
1590566749.3125,-202.3,0.052516,30.13,1839740.0
1590566749.328125,-202.79,0.051235,30.13,1840440.0
1590566749.34375,-199.8,0.049954,30.13,1841063.0
1590566749.359375,-193.54,0.053796,30.13,1841521.0
1590566749.375,-184.53,0.051235,30.13,1840267.0
1590566749.390625,-173.45,0.051235,30.13,1838424.0
1590566749.40625,-160.86,0.048673,30.13,1836800.0
1590566749.421875,-147.15,0.053796,30.15,1835628.0
1590566749.4375,-132.61,0.052516,30.15,1834266.0
1590566749.453125,-117.53,0.049954,30.15,1833650.0
1590566749.46875,-102.35,0.048673,30.15,1832851.0
1590566749.484375,-87.51,0.052516,30.17,1832334.0
1590566749.5,-73.42,0.052516,30.17,1832222.0
1590566749.515625,-60.26,0.051235,30.17,1831896.0
1590566749.53125,-47.85,0.049954,30.17,1832048.0
1590566749.546875,-35.78,0.052516,30.13,1832417.0
1590566749.5625,-23.59,0.051235,30.13,1832669.0
1590566749.578125,-11.03,0.052516,30.13,1833043.0
1590566749.59375,1.73,0.048673,30.13,1833819.0
1590566749.609375,14.02,0.053796,30.15,1834147.0
1590566749.625,24.9,0.053796,30.15,1834708.0
1590566749.640625,33.47,0.051235,30.15,1835149.0
1590566749.65625,39.22,0.049954,30.15,1834809.0
1590566749.671875,42.15,0.048673,30.15,1832368.0
1590566749.6875,42.74,0.053796,30.15,1830182.0
1590566749.703125,41.66,0.052516,30.15,1827802.0
1590566749.71875,39.55,0.049954,30.15,1825992.0
1590566749.734375,36.89,0.049954,30.13,1824319.0
1590566749.75,33.97,0.049954,30.13,1823156.0
1590566749.765625,31.01,0.052516,30.13,1822474.0
1590566749.78125,28.19,0.049954,30.13,1821519.0
1590566749.796875,25.68,0.049954,30.13,1820869.0
1590566749.8125,23.54,0.048673,30.13,1820181.0
1590566749.828125,21.74,0.052516,30.13,1819950.0
1590566749.84375,20.19,0.049954,30.13,1819951.0
1590566749.859375,18.73,0.048673,30.11,1820296.0
1590566749.875,17.26,0.052516,30.11,1820369.0
1590566749.890625,15.71,0.051235,30.11,1820767.0
1590566749.90625,14.0,0.049954,30.11,1821321.0
1590566749.921875,12.04,0.051235,30.13,1821848.0
1590566749.9375,9.64,0.052516,30.13,1822331.0
1590566749.953125,6.62,0.051235,30.13,1822264.0
1590566749.96875,2.78,0.051235,30.13,1820265.0
1590566749.984375,-1.83,0.051235,30.13,1817954.0
1590566750.0,-6.84,0.052516,30.13,1815815.0
1590566750.015625,-11.47,0.053796,30.13,1813925.0
1590566750.03125,-14.7,0.051235,30.13,1812107.0
1590566750.046875,-15.58,0.049954,30.15,1810930.0
1590566750.0625,-13.59,0.052516,30.15,1810320.0
1590566750.078125,-8.98,0.052516,30.15,1809902.0
1590566750.09375,-2.8,0.051235,30.15,1809278.0
1590566750.109375,3.5,0.053796,30.13,1809235.0
1590566750.125,8.57,0.055077,30.13,1809215.0
1590566750.140625,11.72,0.052516,30.13,1809150.0
1590566750.15625,13.1,0.051235,30.13,1809742.0
1590566750.171875,13.51,0.053796,30.15,1810089.0
1590566750.1875,13.91,0.053796,30.15,1810522.0
1590566750.203125,14.9,0.053796,30.15,1811101.0
1590566750.21875,16.55,0.051235,30.15,1811806.0
1590566750.234375,18.39,0.053796,30.15,1812721.0
1590566750.25,19.87,0.055077,30.15,1813232.0
1590566750.265625,20.61,0.052516,30.15,1813811.0
1590566750.28125,20.57,0.051235,30.15,1812292.0
1590566750.296875,20.0,0.053796,30.15,1810168.0
1590566750.3125,19.24,0.053796,30.15,1808367.0
1590566750.328125,18.58,0.051235,30.15,1806943.0
1590566750.34375,18.17,0.049954,30.15,1804827.0
1590566750.359375,18.04,0.053796,30.13,1805686.0
1590566750.375,18.12,0.052516,30.13,1804324.0
1590566750.390625,18.32,0.052516,30.13,1804042.0
1590566750.40625,18.55,0.052516,30.13,1803995.0
1590566750.421875,18.7,0.055077,30.15,1803745.0
1590566750.4375,18.69,0.055077,30.15,1803981.0
1590566750.453125,18.47,0.051235,30.15,1804549.0
1590566750.46875,18.0,0.049954,30.15,1804920.0
1590566750.484375,17.25,0.049954,30.13,1805501.0
1590566750.5,16.19,0.053796,30.13,1806003.0
1590566750.515625,14.83,0.051235,30.13,1806807.0
1590566750.53125,13.2,0.051235,30.13,1807666.0
1590566750.546875,11.4,0.055077,30.13,1808470.0
1590566750.5625,9.6,0.052516,30.13,1809541.0
1590566750.578125,7.94,0.051235,30.13,1810415.0
1590566750.59375,6.48,0.049954,30.13,1810616.0
1590566750.609375,5.15,0.055077,30.13,1809003.0
1590566750.625,3.84,0.052516,30.13,1807447.0
1590566750.640625,2.45,0.051235,30.13,1806181.0
1590566750.65625,0.98,0.049954,30.13,1805192.0
1590566750.671875,-0.5,0.055077,30.13,1804422.0
1590566750.6875,-1.93,0.055077,30.13,1804143.0
1590566750.703125,-3.34,0.051235,30.13,1804113.0
1590566750.71875,-4.94,0.049954,30.13,1803993.0
1590566750.734375,-7.08,0.053796,30.13,1804033.0
1590566750.75,-9.97,0.053796,30.13,1803922.0
1590566750.765625,-13.53,0.051235,30.13,1804804.0
1590566750.78125,-17.12,0.051235,30.13,1805407.0
1590566750.796875,-19.61,0.053796,30.11,1806252.0
1590566750.8125,-19.64,0.052516,30.11,1807796.0
1590566750.828125,-16.13,0.053796,30.11,1809782.0
1590566750.84375,-8.69,0.053796,30.11,1811828.0
1590566750.859375,2.1,0.053796,30.11,1813520.0
1590566750.875,14.88,0.053796,30.11,1815411.0
1590566750.890625,28.01,0.051235,30.11,1817094.0
1590566750.90625,40.08,0.053796,30.11,1817027.0
1590566750.921875,50.39,0.055077,30.13,1816965.0
1590566750.9375,59.01,0.051235,30.13,1817168.0
1590566750.953125,66.59,0.052516,30.13,1817670.0
1590566750.96875,73.89,0.053796,30.13,1818384.0
1590566750.984375,81.32,0.055077,30.13,1819037.0
1590566751.0,88.82,0.052516,30.13,1820169.0
1590566751.015625,95.88,0.051235,30.13,1820969.0
1590566751.03125,101.9,0.053796,30.13,1821646.0
1590566751.046875,106.52,0.053796,30.13,1822337.0
1590566751.0625,109.78,0.051235,30.13,1823173.0
1590566751.078125,112.1,0.052516,30.13,1824178.0
1590566751.09375,113.9,0.055077,30.13,1825081.0
1590566751.109375,115.34,0.056358,30.13,1826060.0
1590566751.125,116.08,0.052516,30.13,1827216.0
1590566751.140625,115.47,0.051235,30.13,1827967.0
1590566751.15625,112.86,0.055077,30.13,1828874.0
1590566751.171875,107.93,0.053796,30.15,1829693.0
1590566751.1875,100.86,0.052516,30.15,1830717.0
1590566751.203125,92.21,0.052516,30.15,1830887.0
1590566751.21875,82.7,0.055077,30.15,1829797.0
1590566751.234375,72.94,0.053796,30.13,1828601.0
1590566751.25,63.32,0.052516,30.13,1827668.0
1590566751.265625,54.14,0.052516,30.13,1827006.0
1590566751.28125,45.56,0.055077,30.13,1826418.0
1590566751.296875,37.74,0.053796,30.13,1826665.0
1590566751.3125,30.75,0.051235,30.13,1827248.0
1590566751.328125,24.53,0.051235,30.13,1827451.0
1590566751.34375,18.91,0.055077,30.13,1827620.0
1590566751.359375,13.59,0.055077,30.11,1828050.0
1590566751.375,8.25,0.051235,30.11,1828820.0
1590566751.390625,2.58,0.051235,30.11,1829827.0
1590566751.40625,-3.6,0.055077,30.11,1830791.0
1590566751.421875,-10.2,0.055077,30.13,1831830.0
1590566751.4375,-16.96,0.052516,30.13,1832706.0
1590566751.453125,-23.52,0.051235,30.13,1833489.0
1590566751.46875,-29.67,0.055077,30.13,1834422.0
1590566751.484375,-35.56,0.055077,30.11,1835209.0
1590566751.5,-41.68,0.051235,30.11,1835871.0
1590566751.515625,-48.74,0.051235,30.11,1836422.0
1590566751.53125,-57.33,0.055077,30.11,1835417.0
1590566751.546875,-67.75,0.053796,30.11,1834494.0
1590566751.5625,-79.96,0.051235,30.11,1833562.0
1590566751.578125,-93.74,0.051235,30.11,1833135.0
1590566751.59375,-108.78,0.055077,30.11,1832866.0
1590566751.609375,-124.69,0.055077,30.13,1832989.0
1590566751.625,-140.83,0.051235,30.13,1833282.0
1590566751.640625,-156.2,0.051235,30.13,1833911.0
1590566751.65625,-169.38,0.053796,30.13,1834282.0
1590566751.671875,-178.78,0.055077,30.13,1835075.0
1590566751.6875,-183.06,0.051235,30.13,1835570.0
1590566751.703125,-181.48,0.055077,30.13,1836449.0
1590566751.71875,-174.14,0.055077,30.13,1837508.0
1590566751.734375,-161.98,0.053796,30.13,1838519.0
1590566751.75,-146.57,0.053796,30.13,1839662.0
1590566751.765625,-129.72,0.055077,30.13,1840650.0
1590566751.78125,-113.07,0.055077,30.13,1841907.0
1590566751.796875,-97.79,0.053796,30.11,1843209.0
1590566751.8125,-84.39,0.052516,30.11,1844042.0
1590566751.828125,-72.88,0.056358,30.11,1844136.0
1590566751.84375,-63.0,0.056358,30.11,1844687.0
1590566751.859375,-54.48,0.055077,30.13,1843155.0
1590566751.875,-47.2,0.051235,30.13,1843113.0
1590566751.890625,-41.01,0.053796,30.13,1843085.0
1590566751.90625,-35.56,0.055077,30.13,1843227.0
1590566751.921875,-30.27,0.053796,30.11,1843921.0
1590566751.9375,-24.44,0.051235,30.11,1844221.0
1590566751.953125,-17.6,0.055077,30.11,1844865.0
1590566751.96875,-9.85,0.055077,30.11,1845398.0
1590566751.984375,-1.87,0.053796,30.13,1845924.0
1590566752.0,5.36,0.051235,30.13,1846764.0
1590566752.015625,10.98,0.055077,30.13,1847362.0
1590566752.03125,14.66,0.055077,30.13,1848504.0
1590566752.046875,16.59,0.055077,30.13,1849175.0
1590566752.0625,17.4,0.051235,30.13,1850319.0
1590566752.078125,17.71,0.053796,30.13,1851228.0
1590566752.09375,17.88,0.055077,30.13,1852205.0
1590566752.109375,17.94,0.052516,30.13,1852978.0
1590566752.125,17.68,0.051235,30.13,1854250.0
1590566752.140625,16.88,0.055077,30.13,1855430.0
1590566752.15625,15.52,0.053796,30.13,1854754.0
1590566752.171875,13.81,0.051235,30.11,1853804.0
1590566752.1875,12.16,0.051235,30.11,1853546.0
1590566752.203125,10.96,0.055077,30.11,1853579.0
1590566752.21875,10.49,0.056358,30.11,1854025.0
1590566752.234375,10.71,0.052516,30.11,1853487.0
1590566752.25,11.36,0.051235,30.11,1853900.0
1590566752.265625,11.97,0.055077,30.11,1854399.0
1590566752.28125,12.1,0.053796,30.11,1854448.0
1590566752.296875,11.48,0.052516,30.13,1855063.0
1590566752.3125,10.16,0.051235,30.13,1855566.0
1590566752.328125,8.47,0.057639,30.13,1856161.0
1590566752.34375,6.87,0.055077,30.13,1857120.0
1590566752.359375,5.62,0.052516,30.11,1857922.0
1590566752.375,4.71,0.052516,30.11,1858531.0
1590566752.390625,3.8,0.051235,30.11,1859479.0
1590566752.40625,2.4,0.053796,30.11,1860096.0
1590566752.421875,0.09,0.053796,30.13,1861202.0
1590566752.4375,-3.33,0.051235,30.13,1861381.0
1590566752.453125,-7.65,0.055077,30.13,1860827.0
1590566752.46875,-12.33,0.053796,30.13,1860071.0
1590566752.484375,-16.47,0.052516,30.11,1859684.0
1590566752.5,-18.95,0.053796,30.11,1859359.0
1590566752.515625,-18.72,0.055077,30.11,1859031.0
1590566752.53125,-15.08,0.055077,30.11,1859505.0
1590566752.546875,-8.12,0.055077,30.11,1859671.0
1590566752.5625,1.23,0.056358,30.11,1859803.0
1590566752.578125,11.32,0.052516,30.11,1860001.0
1590566752.59375,20.4,0.055077,30.11,1860436.0
1590566752.609375,27.11,0.053796,30.11,1860884.0
1590566752.625,30.98,0.056358,30.11,1861317.0
1590566752.640625,32.41,0.056358,30.11,1861856.0
1590566752.65625,32.32,0.055077,30.11,1862584.0
1590566752.671875,31.69,0.053796,30.13,1863417.0
1590566752.6875,31.15,0.056358,30.13,1864249.0
1590566752.703125,30.92,0.057639,30.13,1865178.0
1590566752.71875,30.86,0.055077,30.13,1865311.0
1590566752.734375,30.76,0.052516,30.13,1864705.0
1590566752.75,30.44,0.055077,30.13,1864003.0
1590566752.765625,29.84,0.056358,30.13,1863528.0
1590566752.78125,29.0,0.052516,30.13,1863091.0
1590566752.796875,28.01,0.052516,30.11,1862807.0
1590566752.8125,27.01,0.056358,30.11,1862984.0
1590566752.828125,26.05,0.056358,30.11,1862876.0
1590566752.84375,25.1,0.055077,30.11,1862989.0
1590566752.859375,24.0,0.052516,30.09,1862933.0
1590566752.875,22.61,0.056358,30.09,1863092.0
1590566752.890625,20.87,0.057639,30.09,1863412.0
1590566752.90625,18.9,0.053796,30.09,1863886.0
1590566752.921875,16.99,0.053796,30.09,1864575.0
1590566752.9375,15.41,0.056358,30.09,1864915.0
1590566752.953125,14.32,0.057639,30.09,1865669.0
1590566752.96875,13.63,0.066605,30.09,1865470.0
1590566752.984375,13.13,0.052516,30.09,1864178.0
1590566753.0,12.61,0.056358,30.09,1863324.0
1590566753.015625,11.95,0.056358,30.09,1862693.0
1590566753.03125,11.17,0.053796,30.09,1862158.0
1590566753.046875,10.34,0.052516,30.07,1861735.0
1590566753.0625,9.49,0.056358,30.07,1862070.0
1590566753.078125,8.62,0.056358,30.07,1861585.0
1590566753.09375,7.73,0.053796,30.07,1861690.0
1590566753.109375,6.93,0.052516,30.09,1861663.0
1590566753.125,6.43,0.056358,30.09,1862116.0
1590566753.140625,6.47,0.056358,30.09,1862420.0
1590566753.15625,7.18,0.053796,30.09,1862609.0
1590566753.171875,8.49,0.053796,30.07,1863083.0
1590566753.1875,10.07,0.057639,30.07,1863668.0
1590566753.203125,11.46,0.056358,30.07,1864023.0
1590566753.21875,12.13,0.055077,30.07,1863398.0
1590566753.234375,11.73,0.053796,30.07,1862304.0
1590566753.25,10.33,0.056358,30.07,1861218.0
1590566753.265625,8.5,0.056358,30.07,1860804.0
1590566753.28125,7.27,0.055077,30.07,1860171.0
1590566753.296875,7.83,0.053796,30.05,1860235.0
1590566753.3125,11.08,0.056358,30.05,1860224.0
1590566753.328125,17.18,0.057639,30.05,1860127.0
1590566753.34375,25.44,0.053796,30.05,1859977.0
1590566753.359375,34.5,0.053796,30.07,1860409.0
1590566753.375,42.89,0.056358,30.07,1860366.0
1590566753.390625,49.53,0.056358,30.07,1860985.0
1590566753.40625,54.07,0.053796,30.07,1861270.0
1590566753.421875,56.92,0.053796,30.07,1862206.0
1590566753.4375,58.87,0.056358,30.07,1862853.0
1590566753.453125,60.68,0.056358,30.07,1863797.0
1590566753.46875,62.77,0.053796,30.07,1864060.0
1590566753.484375,65.18,0.053796,30.07,1863118.0
1590566753.5,67.67,0.056358,30.07,1862537.0
1590566753.515625,69.95,0.057639,30.07,1861831.0
1590566753.53125,71.84,0.056358,30.07,1863305.0
1590566753.546875,73.32,0.053796,30.05,1868047.0
1590566753.5625,74.43,0.056358,30.05,1872515.0
1590566753.578125,75.18,0.056358,30.05,1875488.0
1590566753.59375,75.37,0.053796,30.05,1876219.0
1590566753.609375,74.65,0.055077,30.09,1876503.0
1590566753.625,72.57,0.055077,30.09,1876056.0
1590566753.640625,68.7,0.057639,30.09,1876097.0
1590566753.65625,62.81,0.056358,30.09,1876174.0
1590566753.671875,54.98,0.053796,30.09,1876856.0
1590566753.6875,45.6,0.056358,30.09,1877909.0
1590566753.703125,35.26,0.057639,30.09,1878801.0
1590566753.71875,24.67,0.055077,30.09,1879903.0
1590566753.734375,14.51,0.055077,30.07,1880609.0
1590566753.75,5.41,0.056358,30.07,1881122.0
1590566753.765625,-2.18,0.055077,30.07,1881553.0
1590566753.78125,-8.1,0.053796,30.07,1880837.0
1590566753.796875,-12.67,0.052516,30.07,1879686.0
1590566753.8125,-16.81,0.056358,30.07,1878252.0
1590566753.828125,-21.9,0.056358,30.07,1877214.0
1590566753.84375,-29.27,0.056358,30.07,1876182.0
1590566753.859375,-39.72,0.053796,30.07,1875224.0
1590566753.875,-53.04,0.056358,30.07,1874967.0
1590566753.890625,-68.26,0.057639,30.07,1874491.0
1590566753.90625,-84.04,0.057639,30.07,1874415.0
1590566753.921875,-99.48,0.053796,30.09,1873881.0
1590566753.9375,-114.45,0.057639,30.09,1874008.0
1590566753.953125,-129.44,0.057639,30.09,1874071.0
1590566753.96875,-144.93,0.057639,30.09,1874135.0
1590566753.984375,-160.73,0.053796,30.07,1874925.0
1590566754.0,-175.75,0.057639,30.07,1874887.0
1590566754.015625,-188.19,0.056358,30.07,1875260.0
1590566754.03125,-196.09,0.056358,30.07,1875808.0
1590566754.046875,-197.9,0.055077,30.07,1876120.0
1590566754.0625,-192.87,0.056358,30.07,1876955.0
1590566754.078125,-181.14,0.057639,30.07,1877420.0
1590566754.09375,-163.73,0.057639,30.07,1876692.0
1590566754.109375,-142.4,0.053796,30.07,1875539.0
1590566754.125,-119.39,0.053796,30.07,1873922.0
1590566754.140625,-96.94,0.057639,30.07,1873017.0
1590566754.15625,-76.75,0.057639,30.07,1871884.0
1590566754.171875,-59.61,0.055077,30.05,1871001.0
1590566754.1875,-45.34,0.053796,30.05,1870956.0
1590566754.203125,-33.18,0.056358,30.05,1870484.0
1590566754.21875,-22.36,0.057639,30.05,1870313.0
1590566754.234375,-12.52,0.055077,30.07,1870148.0
1590566754.25,-3.75,0.053796,30.07,1869842.0
1590566754.265625,3.66,0.056358,30.07,1870492.0
1590566754.28125,9.56,0.056358,30.07,1870637.0
1590566754.296875,14.22,0.055077,30.09,1871057.0
1590566754.3125,18.13,0.053796,30.09,1871537.0
1590566754.328125,21.71,0.057639,30.09,1871890.0
1590566754.34375,25.09,0.057639,30.09,1872367.0
1590566754.359375,27.95,0.056358,30.09,1873719.0
1590566754.375,29.8,0.053796,30.09,1873036.0
1590566754.390625,30.25,0.057639,30.09,1874585.0
1590566754.40625,29.32,0.055077,30.09,1874869.0
1590566754.421875,27.47,0.055077,30.07,1874129.0
1590566754.4375,25.42,0.052516,30.07,1872907.0
1590566754.453125,23.81,0.055077,30.07,1872093.0
1590566754.46875,22.88,0.057639,30.07,1871247.0
1590566754.484375,22.41,0.056358,30.05,1870619.0
1590566754.5,21.92,0.052516,30.05,1870428.0
1590566754.515625,20.93,0.052516,30.05,1870341.0
1590566754.53125,19.29,0.055077,30.05,1870475.0
1590566754.546875,17.22,0.053796,30.07,1870441.0
1590566754.5625,15.19,0.051235,30.07,1870723.0
1590566754.578125,13.64,0.051235,30.07,1871182.0
1590566754.59375,12.69,0.057639,30.07,1871480.0
1590566754.609375,12.11,0.056358,30.05,1872038.0
1590566754.625,11.44,0.055077,30.05,1872514.0
1590566754.640625,10.24,0.053796,30.05,1872910.0
1590566754.65625,8.36,0.056358,30.05,1873528.0
1590566754.671875,5.95,0.05892,30.05,1874379.0
1590566754.6875,3.41,0.055077,30.05,1874769.0
1590566754.703125,1.15,0.055077,30.05,1875385.0
1590566754.71875,-0.67,0.05892,30.05,1876025.0
1590566754.734375,-2.27,0.05892,30.05,1875624.0
1590566754.75,-4.19,0.055077,30.05,1874450.0
1590566754.765625,-7.09,0.056358,30.05,1873673.0
1590566754.78125,-11.38,0.05892,30.05,1872847.0
1590566754.796875,-16.94,0.057639,30.05,1872630.0
1590566754.8125,-22.99,0.05892,30.05,1871875.0
1590566754.828125,-28.14,0.056358,30.05,1872072.0
1590566754.84375,-30.84,0.060201,30.05,1872117.0
1590566754.859375,-29.82,0.060201,30.05,1872027.0
1590566754.875,-24.59,0.060201,30.05,1872349.0
1590566754.890625,-15.68,0.056358,30.05,1872371.0
1590566754.90625,-4.44,0.057639,30.05,1873087.0
1590566754.921875,7.31,0.060201,30.05,1873461.0
1590566754.9375,17.86,0.05892,30.05,1874223.0
1590566754.953125,26.11,0.057639,30.05,1874950.0
1590566754.96875,31.72,0.056358,30.05,1875534.0
1590566754.984375,35.01,0.060201,30.01,1876313.0
1590566755.0,36.67,0.060201,30.01,1876852.0
1590566755.015625,37.42,0.060201,30.01,1877955.0
1590566755.03125,37.81,0.057639,30.01,1878602.0
1590566755.046875,38.14,0.061482,30.05,1878441.0
1590566755.0625,38.49,0.061482,30.05,1877498.0
1590566755.078125,38.77,0.05892,30.05,1876772.0
1590566755.09375,38.82,0.057639,30.05,1876259.0
1590566755.109375,38.43,0.056358,30.03,1875757.0
1590566755.125,37.51,0.060201,30.03,1875656.0
1590566755.140625,36.12,0.061482,30.03,1875668.0
1590566755.15625,34.54,0.05892,30.03,1875639.0
1590566755.171875,33.14,0.057639,30.03,1875874.0
1590566755.1875,32.29,0.061482,30.03,1876092.0
1590566755.203125,32.11,0.061482,30.03,1876530.0
1590566755.21875,32.51,0.057639,30.03,1876935.0
1590566755.234375,33.17,0.057639,30.03,1877694.0
1590566755.25,33.69,0.060201,30.03,1878332.0
1590566755.265625,33.81,0.060201,30.03,1879042.0
1590566755.28125,33.44,0.061482,30.03,1879745.0
1590566755.296875,32.65,0.05892,30.01,1880455.0
1590566755.3125,31.58,0.061482,30.01,1881153.0
1590566755.328125,30.28,0.060201,30.01,1881971.0
1590566755.34375,28.8,0.060201,30.01,1882886.0
1590566755.359375,27.09,0.057639,29.99,1883670.0
1590566755.375,25.16,0.060201,29.99,1884025.0
1590566755.390625,23.06,0.060201,29.99,1883470.0
1590566755.40625,20.96,0.060201,29.99,1882363.0
1590566755.421875,19.07,0.057639,30.01,1881413.0
1590566755.4375,17.62,0.057639,30.01,1881211.0
1590566755.453125,16.82,0.062763,30.01,1880714.0
1590566755.46875,16.76,0.061482,30.01,1880380.0
1590566755.484375,17.44,0.057639,29.99,1880367.0
1590566755.5,18.64,0.057639,29.99,1880485.0
1590566755.515625,20.0,0.061482,29.99,1880557.0
1590566755.53125,21.04,0.060201,29.99,1880868.0
1590566755.546875,21.19,0.057639,,1881166.0
1590566755.5625,20.01,0.057639,,1881944.0
1590566755.578125,17.38,,,1882626.0
1590566755.59375,13.64,,,1883291.0
1590566755.609375,9.68,,,1884404.0
1590566755.625,6.66,,,1885011.0
1590566755.640625,5.64,,,1885913.0
1590566755.65625,7.1,,,1886971.0
1590566755.671875,10.77,,,1887509.0
1590566755.6875,15.66,,,1888631.0
1590566755.703125,20.45,,,1889345.0
1590566755.71875,24.03,,,1890065.0
1590566755.734375,25.82,,,1889921.0
1590566755.75,25.89,,,1889417.0
1590566755.765625,24.74,,,1888814.0
1590566755.78125,23.1,,,1888663.0
1590566755.796875,21.66,,,1888071.0
1590566755.8125,20.85,,,1888204.0
1590566755.828125,20.82,,,1888591.0
1590566755.84375,21.37,,,1888821.0
1590566755.859375,22.04,,,1888908.0
1590566755.875,22.24,,,1889564.0
1590566755.890625,21.49,,,1890255.0
1590566755.90625,19.58,,,1889541.0
1590566755.921875,16.62,,,1890713.0
1590566755.9375,12.95,,,1891511.0
1590566755.953125,8.95,,,1892317.0
1590566755.96875,4.92,,,1892961.0
1590566755.984375,1.13,,,1893597.0
1590566756.0,-2.22,,,1894301.0
1590566756.015625,-4.84,,,1895055.0
1590566756.03125,-6.53,,,1895970.0
1590566756.046875,-7.16,,,1896469.0
1590566756.0625,-6.96,,,1896074.0
1590566756.078125,-6.32,,,1895268.0
1590566756.09375,-5.8,,,1894986.0
1590566756.109375,-5.84,,,1894609.0
1590566756.125,-6.68,,,1895285.0
1590566756.140625,-8.39,,,1895488.0
1590566756.15625,-10.87,,,1895129.0
1590566756.171875,-14.09,,,1895815.0
1590566756.1875,-18.02,,,1894889.0
1590566756.203125,-22.65,,,1896755.0
1590566756.21875,-27.85,,,1896194.0
1590566756.234375,-33.26,,,1897581.0
1590566756.25,-38.3,,,1898241.0
1590566756.265625,-42.22,,,1898663.0
1590566756.28125,-44.39,,,1899542.0
1590566756.296875,-44.52,,,1900297.0
1590566756.3125,-42.77,,,1901117.0
1590566756.328125,-39.8,,,1901754.0
1590566756.34375,-36.61,,,1902569.0
1590566756.359375,-34.36,,,1902337.0
1590566756.375,-34.0,,,1901610.0
1590566756.390625,-36.04,,,1900636.0
1590566756.40625,-40.25,,,1900221.0
1590566756.421875,-45.56,,,1899808.0
1590566756.4375,-50.25,,,1899836.0
1590566756.453125,-52.41,,,1899771.0
1590566756.46875,-50.58,,,1899949.0
1590566756.484375,-44.28,,,1899955.0
1590566756.5,-34.21,,,1900069.0
1590566756.515625,-22.0,,,1900443.0
1590566756.53125,-9.61,,,1900641.0
1590566756.546875,1.35,,,1901080.0
1590566756.5625,10.07,,,1901615.0
1590566756.578125,16.66,,,1902884.0
1590566756.59375,21.76,,,1902352.0
1590566756.609375,26.15,,,1903601.0
1590566756.625,30.3,,,1904547.0
1590566756.640625,34.2,,,1904108.0
1590566756.65625,37.44,,,1905216.0
1590566756.671875,39.45,,,1904764.0
1590566756.6875,39.83,,,1903390.0
1590566756.703125,38.58,,,1902112.0
1590566756.71875,36.19,,,1901285.0
1590566756.734375,33.46,,,1900460.0
1590566756.75,31.21,,,1899554.0
1590566756.765625,30.06,,,1899435.0
1590566756.78125,30.16,,,1899096.0
1590566756.796875,31.23,,,1899164.0
1590566756.8125,32.72,,,1898939.0
1590566756.828125,33.98,,,1899035.0
1590566756.84375,34.48,,,1899437.0
1590566756.859375,33.97,,,1899736.0
1590566756.875,32.5,,,1900294.0
1590566756.890625,30.31,,,1900765.0
1590566756.90625,27.75,,,1901325.0
1590566756.921875,25.13,,,1901691.0
1590566756.9375,22.58,,,1902275.0
1590566756.953125,20.21,,,1903020.0
1590566756.96875,18.17,,,1903528.0
1590566756.984375,16.66,,,1903488.0
1590566757.0,15.83,,,1902240.0
1590566757.015625,15.54,,,1900896.0
1590566757.03125,15.29,,,1899617.0
1590566757.046875,14.52,,,1898616.0
1590566757.0625,13.08,,,1897685.0
1590566757.078125,11.47,,,1897094.0
1590566757.09375,10.55,,,1896863.0
1590566757.109375,10.72,,,1896319.0
1590566757.125,11.0,,,1896135.0
1590566757.140625,8.87,,,1896062.0
1590566757.15625,1.1,,,1896092.0
1590566757.171875,-14.68,,,1896306.0
1590566757.1875,-38.63,,,1896568.0
1590566757.203125,-68.22,,,1896796.0
1590566757.21875,-99.32,,,1897435.0
1590566757.234375,-127.76,,,1897812.0
1590566757.25,-150.88,,,1898185.0
1590566757.265625,-167.85,,,1898876.0
1590566757.28125,-179.12,,,1899186.0
1590566757.296875,-185.33,,,1899973.0
1590566757.3125,-186.66,,,1900298.0
1590566757.328125,-183.05,,,1899064.0
1590566757.34375,-174.76,,,1897484.0
1590566757.359375,-162.91,,,1896122.0
1590566757.375,-149.31,,,1895053.0
1590566757.390625,-135.81,,,1893748.0
1590566757.40625,-123.53,,,1893427.0
1590566757.421875,-112.47,,,1892673.0
1590566757.4375,-101.86,,,1892505.0
1590566757.453125,-90.7,,,1891967.0
1590566757.46875,-78.43,,,1891817.0
1590566757.484375,-65.18,,,1891606.0
1590566757.5,-51.67,,,1891839.0
1590566757.515625,-38.85,,,1891756.0
1590566757.53125,-27.52,,,1892088.0
1590566757.546875,-18.13,,,1892419.0
1590566757.5625,-10.63,,,1892531.0
1590566757.578125,-4.54,,,1893067.0
1590566757.59375,0.99,,,1893366.0
1590566757.609375,6.91,,,1893805.0
1590566757.625,13.88,,,1894299.0
1590566757.640625,22.06,,,1893125.0
1590566757.65625,30.95,,,1891253.0
1590566757.671875,39.59,,,1889917.0
1590566757.6875,46.82,,,1888850.0
1590566757.703125,51.77,,,1887940.0
1590566757.71875,54.07,,,1887566.0
1590566757.734375,53.91,,,1887179.0
1590566757.75,51.93,,,1886826.0
1590566757.765625,48.96,,,1886238.0
1590566757.78125,45.82,,,1886072.0
1590566757.796875,43.08,,,1885936.0
1590566757.8125,40.92,,,1886096.0
1590566757.828125,39.09,,,1886286.0
1590566757.84375,37.04,,,1886715.0
1590566757.859375,34.25,,,1886752.0
1590566757.875,30.46,,,1886995.0
1590566757.890625,25.88,,,1887072.0
1590566757.90625,21.05,,,1887327.0
1590566757.921875,16.57,,,1887636.0
1590566757.9375,12.78,,,1887419.0
1590566757.953125,9.56,,,1885609.0
1590566757.96875,6.38,,,1883974.0
1590566757.984375,2.56,,,1882669.0
1590566758.0,-2.53,,,1881418.0
1590566758.015625,-9.22,,,1880332.0
1590566758.03125,-17.36,,,1879814.0
1590566758.046875,-26.25,,,1879688.0
1590566758.0625,-34.53,,,1879601.0
1590566758.078125,-40.42,,,1879155.0
1590566758.09375,-42.08,,,1878826.0
1590566758.109375,-38.22,,,1878677.0
1590566758.125,-28.7,,,1878682.0
1590566758.140625,-14.69,,,1878705.0
1590566758.15625,1.61,,,1878973.0
1590566758.171875,17.71,,,1879365.0
1590566758.1875,31.62,,,1879542.0
1590566758.203125,42.34,,,1879734.0
1590566758.21875,49.97,,,1880153.0
1590566758.234375,55.18,,,1880263.0
1590566758.25,58.79,,,1878924.0
1590566758.265625,61.3,,,1876372.0
1590566758.28125,62.78,,,1873876.0
1590566758.296875,63.06,,,1871460.0
1590566758.3125,62.03,,,1869116.0
1590566758.328125,59.85,,,1866754.0
1590566758.34375,57.02,,,1865633.0
1590566758.359375,54.29,,,1864514.0
1590566758.375,52.36,,,1863363.0
1590566758.390625,51.61,,,1861982.0
1590566758.40625,51.96,,,1861382.0
1590566758.421875,52.93,,,1860987.0
1590566758.4375,53.86,,,1860266.0
1590566758.453125,54.22,,,1860070.0
1590566758.46875,53.88,,,1859917.0
1590566758.484375,53.05,,,1859779.0
1590566758.5,52.11,,,1860082.0
1590566758.515625,51.31,,,1859851.0
1590566758.53125,50.62,,,1860124.0
1590566758.546875,49.65,,,1860565.0
1590566758.5625,47.93,,,1859738.0
1590566758.578125,45.13,,,1857394.0
1590566758.59375,41.27,,,1854821.0
1590566758.609375,36.77,,,1852883.0
1590566758.625,32.29,,,1851324.0
1590566758.640625,28.45,,,1850144.0
1590566758.65625,25.63,,,1849093.0
1590566758.671875,23.83,,,1847838.0
1590566758.6875,22.75,,,1847510.0
1590566758.703125,21.91,,,1847521.0
1590566758.71875,20.84,,,1848322.0
1590566758.734375,19.14,,,1852197.0
1590566758.75,16.48,,,1857113.0
1590566758.765625,12.63,,,1860585.0
1590566758.78125,7.58,,,1862346.0
1590566758.796875,1.74,,,1863281.0
1590566758.8125,-3.94,,,1863816.0
1590566758.828125,-8.13,,,1864148.0
1590566758.84375,-9.48,,,1864518.0
1590566758.859375,-7.18,,,1865296.0
1590566758.875,-1.4,,,1865933.0
1590566758.890625,6.74,,,1866521.0
1590566758.90625,15.53,,,1865155.0
1590566758.921875,23.38,,,1862645.0
1590566758.9375,29.4,,,1860509.0
1590566758.953125,33.6,,,1858414.0
1590566758.96875,36.72,,,1856747.0
1590566758.984375,39.68,,,1855218.0
1590566759.0,43.12,,,1854186.0
1590566759.015625,47.09,,,1853128.0
1590566759.03125,51.16,,,1852170.0
1590566759.046875,54.74,,,1851618.0
1590566759.0625,57.37,,,1850991.0
1590566759.078125,58.97,,,1850833.0
1590566759.09375,59.82,,,1850619.0
1590566759.109375,60.43,,,1850862.0
1590566759.125,61.38,,,1850997.0
1590566759.140625,63.11,,,1851054.0
1590566759.15625,65.87,,,1851421.0
1590566759.171875,69.67,,,1851619.0
1590566759.1875,74.3,,,1852351.0
1590566759.203125,79.29,,,1852480.0
1590566759.21875,83.99,,,1850246.0
1590566759.234375,87.66,,,1847751.0
1590566759.25,89.65,,,1845748.0
1590566759.265625,89.53,,,1844017.0
1590566759.28125,87.15,,,1842579.0
1590566759.296875,82.75,,,1842049.0
1590566759.3125,76.84,,,1841405.0
1590566759.328125,70.24,,,1840758.0
1590566759.34375,63.93,,,1840027.0
1590566759.359375,58.82,,,1839885.0
1590566759.375,55.29,,,1839588.0
1590566759.390625,52.84,,,1840076.0
1590566759.40625,49.96,,,1840135.0
1590566759.421875,44.58,,,1840705.0
1590566759.4375,34.91,,,1840852.0
1590566759.453125,20.23,,,1841593.0
1590566759.46875,1.26,,,1842166.0
1590566759.484375,-20.23,,,1842771.0
1590566759.5,-42.33,,,1842721.0
1590566759.515625,-63.83,,,1840398.0
1590566759.53125,-84.53,,,1837783.0
1590566759.546875,-104.84,,,1835994.0
1590566759.5625,-124.97,,,1834417.0
1590566759.578125,-144.34,,,1833047.0
1590566759.59375,-161.51,,,1832283.0
1590566759.609375,-174.73,,,1831671.0
1590566759.625,-182.62,,,1830945.0
1590566759.640625,-184.64,,,1830629.0
1590566759.65625,-181.06,,,1830290.0
1590566759.671875,-172.69,,,1830380.0
1590566759.6875,-160.49,,,1830809.0
1590566759.703125,-145.49,,,1831073.0
1590566759.71875,-128.79,,,1831688.0
1590566759.734375,-111.61,,,1832253.0
1590566759.75,-95.16,,,1832841.0
1590566759.765625,-80.46,,,1833793.0
1590566759.78125,-68.12,,,1834504.0
1590566759.796875,-58.34,,,1835381.0
1590566759.8125,-50.95,,,1834806.0
1590566759.828125,-45.56,,,1832042.0
1590566759.84375,-41.7,,,1829602.0
1590566759.859375,-38.8,,,1827266.0
1590566759.875,-36.21,,,1825370.0
1590566759.890625,-33.31,,,1823465.0
1590566759.90625,-29.64,,,1822740.0
1590566759.921875,-25.07,,,1821948.0
1590566759.9375,-19.81,,,1821334.0
1590566759.953125,-14.36,,,1820707.0
1590566759.96875,-9.26,,,1820632.0
1590566759.984375,-4.93,,,1820574.0
1590566760.0,-1.57,,,1820773.0
1590566760.015625,0.81,,,1821286.0
1590566760.03125,2.28,,,1821818.0
1590566760.046875,2.99,,,1822289.0
1590566760.0625,3.11,,,1822956.0
1590566760.078125,2.82,,,1823635.0
1590566760.09375,2.31,,,1824367.0
1590566760.109375,1.68,,,1825021.0
1590566760.125,0.85,,,1825724.0
1590566760.140625,-0.35,,,1823949.0
1590566760.15625,-2.16,,,1821342.0
1590566760.171875,-4.69,,,1819032.0
1590566760.1875,-7.85,,,1817236.0
1590566760.203125,-11.36,,,1815577.0
1590566760.21875,-14.91,,,1814211.0
1590566760.234375,-18.25,,,1813680.0
1590566760.25,-21.36,,,1813319.0
1590566760.265625,-24.37,,,1813002.0
1590566760.28125,-27.63,,,1812730.0
1590566760.296875,-31.56,,,1812825.0
1590566760.3125,-36.63,,,1813224.0
1590566760.328125,-43.2,,,1813783.0
1590566760.34375,-51.22,,,1814428.0
1590566760.359375,-60.04,,,1815549.0
1590566760.375,-68.18,,,1816464.0
1590566760.390625,-73.61,,,1817021.0
1590566760.40625,-74.26,,,1817972.0
1590566760.421875,-68.84,,,1818981.0
1590566760.4375,-57.34,,,1820092.0
1590566760.453125,-41.17,,,1821342.0
1590566760.46875,-22.73,,,1821257.0
1590566760.484375,-4.62,,,1819143.0
1590566760.5,11.17,,,1817135.0
1590566760.515625,23.74,,,1816097.0
1590566760.53125,33.21,,,1814130.0
1590566760.546875,40.35,,,1814789.0
1590566760.5625,46.05,,,1813638.0
1590566760.578125,50.89,,,1813570.0
1590566760.59375,55.02,,,1813523.0
1590566760.609375,58.27,,,1813655.0
1590566760.625,60.38,,,1813937.0
1590566760.640625,61.22,,,1814245.0
1590566760.65625,60.92,,,1814824.0
1590566760.671875,59.83,,,1816221.0
1590566760.6875,58.39,,,1815775.0
1590566760.703125,57.01,,,1817281.0
1590566760.71875,55.93,,,1817965.0
1590566760.734375,55.21,,,1818981.0
1590566760.75,54.77,,,1819979.0
1590566760.765625,54.46,,,1821018.0
1590566760.78125,54.11,,,1821744.0
1590566760.796875,53.54,,,1820417.0
1590566760.8125,52.56,,,1818796.0
1590566760.828125,50.94,,,1817743.0
1590566760.84375,48.5,,,1817186.0
1590566760.859375,45.2,,,1816750.0
1590566760.875,41.22,,,1816750.0
1590566760.890625,36.96,,,1817300.0
1590566760.90625,32.87,,,1817194.0
1590566760.921875,29.29,,,1817314.0
1590566760.9375,26.27,,,1817832.0
1590566760.953125,23.52,,,1818395.0
1590566760.96875,20.66,,,1819493.0
1590566760.984375,17.35,,,1820222.0
1590566761.0,13.56,,,1821120.0
1590566761.015625,9.54,,,1822221.0
1590566761.03125,5.77,,,1823008.0
1590566761.046875,2.64,,,1824105.0
1590566761.0625,0.26,,,1825286.0
1590566761.078125,-1.66,,,1826072.0
1590566761.09375,-3.8,,,1825601.0
1590566761.109375,-7.04,,,1823709.0
1590566761.125,-12.11,,,1822591.0
1590566761.140625,-19.28,,,1821679.0
1590566761.15625,-27.95,,,1821071.0
1590566761.171875,-36.57,,,1820656.0
1590566761.1875,-42.87,,,1820581.0
1590566761.203125,-44.44,,,1821035.0
1590566761.21875,-39.55,,,1821115.0
1590566761.234375,-27.89,,,1821382.0
1590566761.25,-10.87,,,1821814.0
1590566761.265625,8.72,,,1822643.0
1590566761.28125,27.59,,,1823379.0
1590566761.296875,43.0,,,1824325.0
1590566761.3125,53.55,,,1826229.0
1590566761.328125,59.48,,,1825275.0
1590566761.34375,62.17,,,1828161.0
1590566761.359375,63.44,,,1827263.0
1590566761.375,64.75,,,1829633.0
1590566761.390625,66.71,,,1830380.0
1590566761.40625,69.08,,,1831705.0
1590566761.421875,71.17,,,1831086.0
1590566761.4375,72.27,,,1829331.0
1590566761.453125,72.02,,,1827940.0
1590566761.46875,70.49,,,1827118.0
1590566761.484375,68.01,,,1826175.0
1590566761.5,64.84,,,1825662.0
1590566761.515625,61.04,,,1825690.0
1590566761.53125,56.43,,,1825795.0
1590566761.546875,50.78,,,1825900.0
1590566761.5625,43.96,,,1826227.0
1590566761.578125,36.11,,,1826690.0
1590566761.59375,27.55,,,1827470.0
1590566761.609375,18.68,,,1828046.0
1590566761.625,9.77,,,1828788.0
1590566761.640625,0.94,,,1829897.0
1590566761.65625,-7.79,,,1830586.0
1590566761.671875,-16.42,,,1831615.0
1590566761.6875,-24.91,,,1832695.0
1590566761.703125,-33.14,,,1833551.0
1590566761.71875,-40.98,,,1834812.0
1590566761.734375,-48.37,,,1835864.0
1590566761.75,-55.25,,,1835895.0
1590566761.765625,-61.59,,,1834005.0
1590566761.78125,-67.29,,,1833159.0
1590566761.796875,-72.18,,,1832441.0
1590566761.8125,-76.05,,,1831854.0
1590566761.828125,-78.79,,,1831491.0
1590566761.84375,-80.41,,,1831597.0
1590566761.859375,-81.2,,,1832125.0
1590566761.875,-81.67,,,1832173.0
1590566761.890625,-82.47,,,1832740.0
1590566761.90625,-84.23,,,1833308.0
1590566761.921875,-87.35,,,1834287.0
1590566761.9375,-91.61,,,1835521.0
1590566761.953125,-96.04,,,1836274.0
1590566761.96875,-98.82,,,1837260.0
1590566761.984375,-97.72,,,1838130.0
1590566762.0,-90.73,,,1839280.0
1590566762.015625,-76.83,,,1840347.0
1590566762.03125,-56.47,,,1841456.0
1590566762.046875,-31.66,,,1842677.0
1590566762.0625,-5.35,,,1843730.0
1590566762.078125,19.32,,,1843653.0
1590566762.09375,39.9,,,1842635.0
1590566762.109375,55.19,,,1841675.0
1590566762.125,65.16,,,1841238.0
1590566762.140625,70.61,,,1840914.0
1590566762.15625,72.56,,,1841174.0
1590566762.171875,71.86,,,1841547.0
1590566762.1875,69.05,,,1841863.0
1590566762.203125,64.49,,,1842097.0
1590566762.21875,58.67,,,1842566.0
1590566762.234375,52.34,,,1843314.0
1590566762.25,46.48,,,1843968.0
1590566762.265625,42.01,,,1844934.0
1590566762.28125,39.46,,,1845798.0
1590566762.296875,38.75,,,1846615.0
1590566762.3125,39.24,,,1847494.0
1590566762.328125,39.95,,,1848378.0
1590566762.34375,39.98,,,1849249.0
1590566762.359375,38.79,,,1850314.0
1590566762.375,36.28,,,1851229.0
1590566762.390625,32.71,,,1850865.0
1590566762.40625,28.46,,,1849229.0
1590566762.421875,23.85,,,1848602.0
1590566762.4375,19.0,,,1847994.0
1590566762.453125,13.88,,,1847759.0
1590566762.46875,8.32,,,1847836.0
1590566762.484375,2.24,,,1847784.0
1590566762.5,-4.3,,,1847984.0
1590566762.515625,-10.95,,,1848210.0
1590566762.53125,-17.26,,,1848268.0
1590566762.546875,-22.72,,,1848781.0
1590566762.5625,-27.09,,,1849447.0
1590566762.578125,-30.41,,,1850223.0
1590566762.59375,-33.1,,,1851123.0
1590566762.609375,-35.72,,,1851828.0
1590566762.625,-38.86,,,1852698.0
1590566762.640625,-42.93,,,1853402.0
1590566762.65625,-48.13,,,1854239.0
1590566762.671875,-54.4,,,1855289.0
1590566762.6875,-61.3,,,1855433.0
1590566762.703125,-67.93,,,1854094.0
1590566762.71875,-72.89,,,1852680.0
1590566762.734375,-74.51,,,1851731.0
1590566762.75,-71.34,,,1850815.0
1590566762.765625,-62.71,,,1850168.0
1590566762.78125,-49.19,,,1849971.0
1590566762.796875,-32.55,,,1850265.0
1590566762.8125,-15.23,,,1850099.0
1590566762.828125,0.44,,,1850032.0
1590566762.84375,13.01,,,1850447.0
1590566762.859375,22.16,,,1850831.0
1590566762.875,28.54,,,1851490.0
1590566762.890625,33.13,,,1852042.0
1590566762.90625,36.7,,,1852867.0
1590566762.921875,39.51,,,1853590.0
1590566762.9375,41.32,,,1854342.0
1590566762.953125,41.87,,,1855202.0
1590566762.96875,41.1,,,1856087.0
1590566762.984375,39.41,,,1856958.0
1590566763.0,37.49,,,1857813.0
1590566763.015625,36.0,,,1856904.0
1590566763.03125,35.34,,,1855296.0
1590566763.046875,35.45,,,1854083.0
1590566763.0625,35.95,,,1852862.0
1590566763.078125,36.33,,,1851976.0
1590566763.09375,36.24,,,1851418.0
1590566763.109375,35.56,,,1851380.0
1590566763.125,34.44,,,1851299.0
1590566763.140625,33.13,,,1851278.0
1590566763.15625,31.78,,,1851294.0
1590566763.171875,30.37,,,1851290.0
1590566763.1875,28.66,,,1851878.0
1590566763.203125,26.28,,,1852257.0
1590566763.21875,22.95,,,1852787.0
1590566763.234375,18.65,,,1853618.0
1590566763.25,13.7,,,1854350.0
1590566763.265625,8.73,,,1855010.0
1590566763.28125,4.38,,,1855835.0
1590566763.296875,1.1,,,1856788.0
1590566763.3125,-1.07,,,1857445.0
1590566763.328125,-2.55,,,1858419.0
1590566763.34375,-3.98,,,1858556.0
1590566763.359375,-6.0,,,1856766.0
1590566763.375,-9.01,,,1855486.0
1590566763.390625,-13.18,,,1854491.0
1590566763.40625,-18.35,,,1853635.0
1590566763.421875,-24.11,,,1853086.0
1590566763.4375,-29.64,,,1852732.0
1590566763.453125,-33.64,,,1852747.0
1590566763.46875,-34.45,,,1852743.0
1590566763.484375,-30.5,,,1852461.0
1590566763.5,-20.94,,,1852795.0
1590566763.515625,-6.13,,,1853152.0
1590566763.53125,12.22,,,1853597.0
1590566763.546875,31.63,,,1854228.0
1590566763.5625,49.76,,,1855007.0
1590566763.578125,65.15,,,1855522.0
1590566763.59375,77.59,,,1856227.0
1590566763.609375,87.79,,,1856937.0
1590566763.625,96.72,,,1857831.0
1590566763.640625,105.04,,,1858680.0
1590566763.65625,112.89,,,1859284.0
1590566763.671875,120.06,,,1858782.0
1590566763.6875,126.41,,,1857388.0
1590566763.703125,132.06,,,1856045.0
1590566763.71875,137.29,,,1855237.0
1590566763.734375,142.28,,,1854599.0
1590566763.75,146.83,,,1854267.0
1590566763.765625,150.33,,,1854119.0
1590566763.78125,152.05,,,1853711.0
1590566763.796875,151.52,,,1853382.0
1590566763.8125,148.8,,,1853371.0
1590566763.828125,144.49,,,1853333.0
1590566763.84375,139.55,,,1853671.0
1590566763.859375,134.81,,,1854421.0
1590566763.875,130.75,,,1854861.0
1590566763.890625,127.32,,,1855414.0
1590566763.90625,124.05,,,1856008.0
1590566763.921875,120.32,,,1856806.0
1590566763.9375,115.54,,,1857770.0
1590566763.953125,109.32,,,1858190.0
1590566763.96875,101.48,,,1857939.0
1590566763.984375,92.02,,,1856240.0
1590566764.0,81.12,,,1854983.0
1590566764.015625,69.15,,,1853982.0
1590566764.03125,56.65,,,1853318.0
1590566764.046875,44.21,,,1852827.0
1590566764.0625,32.25,,,1852889.0
1590566764.078125,20.85,,,1852795.0
1590566764.09375,9.63,,,1852656.0
1590566764.109375,-2.31,,,1852858.0
1590566764.125,-16.09,,,1852896.0
1590566764.140625,-32.72,,,1853338.0
1590566764.15625,-52.62,,,1853842.0
1590566764.171875,-75.22,,,1854640.0
1590566764.1875,-99.02,,,1855210.0
1590566764.203125,-121.96,,,1855876.0
1590566764.21875,-142.12,,,1856692.0
1590566764.234375,-158.34,,,1857534.0
1590566764.25,-170.46,,,1858197.0
1590566764.265625,-179.11,,,1858064.0
1590566764.28125,-185.16,,,1854927.0
1590566764.296875,-189.23,,,1856327.0
1590566764.3125,-191.46,,,1853798.0
1590566764.328125,-191.67,,,1852770.0
1590566764.34375,-189.65,,,1852261.0
1590566764.359375,-185.45,,,1852110.0
1590566764.375,-179.27,,,1852483.0
1590566764.390625,-171.36,,,1852583.0
1590566764.40625,-161.86,,,1852832.0
1590566764.421875,-150.89,,,1853134.0
1590566764.4375,-138.79,,,1853617.0
1590566764.453125,-126.17,,,1854103.0
1590566764.46875,-113.85,,,1854611.0
1590566764.484375,-102.6,,,1855472.0
1590566764.5,-92.87,,,1856165.0
1590566764.515625,-84.68,,,1856701.0
1590566764.53125,-77.76,,,1857454.0
1590566764.546875,-71.76,,,1858427.0
1590566764.5625,-66.35,,,1858949.0
1590566764.578125,-61.31,,,1860106.0
1590566764.59375,-56.52,,,1858949.0
1590566764.609375,-51.88,,,1857418.0
1590566764.625,-47.37,,,1855883.0
1590566764.640625,-43.14,,,1854694.0
1590566764.65625,-39.44,,,1853866.0
1590566764.671875,-36.6,,,1852948.0
1590566764.6875,-34.82,,,1852659.0
1590566764.703125,-34.1,,,1852510.0
1590566764.71875,-34.19,,,1852497.0
1590566764.734375,-34.68,,,1852296.0
1590566764.75,-35.13,,,1852577.0
1590566764.765625,-35.23,,,1852863.0
1590566764.78125,-34.92,,,1853452.0
1590566764.796875,-34.36,,,1854288.0
1590566764.8125,-33.91,,,1854632.0
1590566764.828125,-33.92,,,1855405.0
1590566764.84375,-34.57,,,1856271.0
1590566764.859375,-35.8,,,1856823.0
1590566764.875,-37.27,,,1857809.0
1590566764.890625,-38.63,,,1858652.0
1590566764.90625,-39.62,,,1859333.0
1590566764.921875,-40.36,,,1858460.0
1590566764.9375,-41.29,,,1856703.0
1590566764.953125,-43.08,,,1855768.0
1590566764.96875,-46.38,,,1854599.0
1590566764.984375,-51.53,,,1853930.0
1590566765.0,-58.39,,,1853572.0
1590566765.015625,-66.1,,,1853406.0
1590566765.03125,-73.21,,,1853257.0
1590566765.046875,-77.76,,,1853375.0
1590566765.0625,-77.77,,,1853263.0
1590566765.078125,-71.79,,,1853596.0
1590566765.09375,-59.43,,,1853953.0
1590566765.109375,-41.67,,,1854573.0
1590566765.125,-20.66,,,1855377.0
1590566765.140625,0.81,,,1856068.0
1590566765.15625,20.17,,,1856784.0
1590566765.171875,35.73,,,1857529.0
1590566765.1875,47.04,,,1858210.0
1590566765.203125,54.66,,,1859105.0
1590566765.21875,59.68,,,1859868.0
1590566765.234375,63.08,,,1859832.0
1590566765.25,65.37,,,1858506.0
1590566765.265625,66.61,,,1857616.0
1590566765.28125,66.63,,,1856823.0
1590566765.296875,65.39,,,1856389.0
1590566765.3125,63.19,,,1856453.0
1590566765.328125,60.6,,,1856446.0
1590566765.34375,58.28,,,1856568.0
1590566765.359375,56.65,,,1856675.0
1590566765.375,55.79,,,1856847.0
1590566765.390625,55.35,,,1856952.0
1590566765.40625,54.8,,,1857702.0
1590566765.421875,53.64,,,1858294.0
1590566765.4375,51.58,,,1859360.0
1590566765.453125,48.66,,,1860435.0
1590566765.46875,45.19,,,1861310.0
1590566765.484375,41.61,,,1862141.0
1590566765.5,38.32,,,1863046.0
1590566765.515625,35.43,,,1863747.0
1590566765.53125,32.73,,,1864574.0
1590566765.546875,29.75,,,1864223.0
1590566765.5625,25.97,,,1863735.0
1590566765.578125,21.08,,,1863649.0
1590566765.59375,15.19,,,1863003.0
1590566765.609375,8.76,,,1862647.0
1590566765.625,2.43,,,1862689.0
1590566765.640625,-3.19,,,1862578.0
1590566765.65625,-7.8,,,1862966.0
1590566765.671875,-11.4,,,1863428.0
1590566765.6875,-14.21,,,1863692.0
1590566765.703125,-16.64,,,1864558.0
1590566765.71875,-19.09,,,1864949.0
1590566765.734375,-22.03,,,1865650.0
1590566765.75,-25.91,,,1866346.0
1590566765.765625,-30.98,,,1866984.0
1590566765.78125,-37.1,,,1867891.0
1590566765.796875,-43.41,,,1868442.0
1590566765.8125,-48.31,,,1869128.0
1590566765.828125,-49.76,,,1869972.0
1590566765.84375,-45.97,,,1868956.0
1590566765.859375,-36.1,,,1867686.0
1590566765.875,-20.8,,,1866281.0
1590566765.890625,-2.02,,,1865636.0
1590566765.90625,17.53,,,1864912.0
1590566765.921875,35.33,,,1864261.0
1590566765.9375,49.84,,,1864528.0
1590566765.953125,60.78,,,1864450.0
1590566765.96875,68.84,,,1864360.0
1590566765.984375,75.05,,,1864488.0
1590566766.0,80.18,,,1864721.0
1590566766.015625,84.46,,,1865360.0
1590566766.03125,87.74,,,1865725.0
1590566766.046875,89.89,,,1866426.0
1590566766.0625,91.14,,,1866818.0
1590566766.078125,92.16,,,1867734.0
1590566766.09375,93.83,,,1868322.0
1590566766.109375,96.87,,,1869263.0
1590566766.125,101.42,,,1869981.0
1590566766.140625,106.95,,,1870633.0
1590566766.15625,112.4,,,1869892.0
1590566766.171875,116.49,,,1868221.0
1590566766.1875,118.15,,,1867288.0
1590566766.203125,116.85,,,1866273.0
1590566766.21875,112.63,,,1865876.0
1590566766.234375,106.1,,,1865093.0
1590566766.25,98.06,,,1865208.0
1590566766.265625,89.14,,,1865029.0
1590566766.28125,79.58,,,1865199.0
1590566766.296875,69.03,,,1865331.0
1590566766.3125,56.91,,,1865507.0
1590566766.328125,42.7,,,1865906.0
1590566766.34375,26.48,,,1866548.0
1590566766.359375,9.14,,,1867371.0
1590566766.375,-7.92,,,1867641.0
1590566766.390625,-23.28,,,1868707.0
1590566766.40625,-36.34,,,1869183.0
1590566766.421875,-47.67,,,1869904.0
1590566766.4375,-58.83,,,1870799.0
1590566766.453125,-71.63,,,1871676.0
1590566766.46875,-87.14,,,1872504.0
1590566766.484375,-105.1,,,1873361.0
1590566766.5,-123.81,,,1872833.0
1590566766.515625,-140.73,,,1871720.0
1590566766.53125,-153.22,,,1870441.0
1590566766.546875,-159.26,,,1870009.0
1590566766.5625,-157.87,,,1869295.0
1590566766.578125,-149.27,,,1869008.0
1590566766.59375,-134.71,,,1868937.0
1590566766.609375,-116.28,,,1869027.0
1590566766.625,-96.48,,,1869328.0
1590566766.640625,-77.78,,,1869330.0
1590566766.65625,-62.01,,,1869860.0
1590566766.671875,-50.03,,,1870250.0
1590566766.6875,-41.68,,,1870994.0
1590566766.703125,-36.07,,,1871750.0
1590566766.71875,-32.17,,,1872432.0
1590566766.734375,-29.18,,,1873075.0
1590566766.75,-26.76,,,1873945.0
1590566766.765625,-24.84,,,1874789.0
1590566766.78125,-23.34,,,1875448.0
1590566766.796875,-22.01,,,1876289.0
1590566766.8125,-20.44,,,1877185.0
1590566766.828125,-18.27,,,1878181.0
1590566766.84375,-15.38,,,1877762.0
1590566766.859375,-11.93,,,1876499.0
1590566766.875,-8.32,,,1875686.0
1590566766.890625,-5.0,,,1875390.0
1590566766.90625,-2.35,,,1874805.0
1590566766.921875,-0.54,,,1874689.0
1590566766.9375,0.45,,,1874824.0
1590566766.953125,0.78,,,1874821.0
1590566766.96875,0.64,,,1875144.0
1590566766.984375,0.18,,,1875190.0
1590566767.0,-0.62,,,1875499.0
1590566767.015625,-1.89,,,1875877.0
1590566767.03125,-3.89,,,1876449.0
1590566767.046875,-6.87,,,1877113.0
1590566767.0625,-10.96,,,1877696.0
1590566767.078125,-15.99,,,1878388.0
1590566767.09375,-21.55,,,1878880.0
1590566767.109375,-27.05,,,1879850.0
1590566767.125,-31.95,,,1880599.0
1590566767.140625,-35.97,,,1880796.0
1590566767.15625,-39.18,,,1880051.0
1590566767.171875,-42.01,,,1878937.0
1590566767.1875,-45.08,,,1878275.0
1590566767.203125,-49.08,,,1877627.0
1590566767.21875,-54.49,,,1877457.0
1590566767.234375,-61.55,,,1877479.0
1590566767.25,-69.98,,,1877765.0
1590566767.265625,-78.9,,,1877962.0
1590566767.28125,-86.75,,,1877681.0
1590566767.296875,-91.45,,,1878076.0
1590566767.3125,-90.94,,,1878668.0
1590566767.328125,-83.75,,,1878939.0
1590566767.34375,-69.79,,,1879772.0
1590566767.359375,-50.46,,,1880140.0
1590566767.375,-28.45,,,1880932.0
1590566767.390625,-6.77,,,1881734.0
1590566767.40625,12.1,,,1882257.0
1590566767.421875,26.97,,,1883037.0
1590566767.4375,37.98,,,1882499.0
1590566767.453125,46.14,,,1880905.0
1590566767.46875,52.66,,,1879699.0
1590566767.484375,58.28,,,1879008.0
1590566767.5,63.14,,,1877769.0
1590566767.515625,66.94,,,1877159.0
1590566767.53125,69.32,,,1876941.0
1590566767.546875,70.2,,,1876707.0
1590566767.5625,69.88,,,1876628.0
1590566767.578125,68.89,,,1876554.0
1590566767.59375,67.82,,,1876705.0
1590566767.609375,67.06,,,1877082.0
1590566767.625,66.69,,,1877424.0
1590566767.640625,66.53,,,1877677.0
1590566767.65625,66.26,,,1878097.0
1590566767.671875,65.63,,,1878691.0
1590566767.6875,64.54,,,1879092.0
1590566767.703125,63.08,,,1879798.0
1590566767.71875,61.4,,,1880417.0
1590566767.734375,59.63,,,1880161.0
1590566767.75,57.72,,,1878832.0
1590566767.765625,55.52,,,1876822.0
1590566767.78125,52.78,,,1875610.0
1590566767.796875,49.29,,,1874239.0
1590566767.8125,44.98,,,1873270.0
1590566767.828125,39.98,,,1872583.0
1590566767.84375,34.62,,,1872389.0
1590566767.859375,29.37,,,1872135.0
1590566767.875,24.68,,,1871744.0
1590566767.890625,20.85,,,1871646.0
1590566767.90625,17.89,,,1871793.0
1590566767.921875,15.55,,,1871997.0
1590566767.9375,13.43,,,1872452.0
1590566767.953125,11.06,,,1872738.0
1590566767.96875,8.14,,,1873268.0
1590566767.984375,4.54,,,1873764.0
1590566768.0,0.3,,,1874114.0
1590566768.015625,-4.36,,,1874632.0
1590566768.03125,-8.97,,,1875417.0
1590566768.046875,-12.78,,,1875126.0
1590566768.0625,-14.68,,,1873452.0
1590566768.078125,-13.43,,,1871936.0
1590566768.09375,-8.03,,,1870329.0
1590566768.109375,1.76,,,1868872.0
1590566768.125,15.17,,,1867926.0
1590566768.140625,30.5,,,1866913.0
1590566768.15625,45.56,,,1866448.0
1590566768.171875,58.42,,,1866226.0
1590566768.1875,67.92,,,1865756.0
1590566768.203125,73.93,,,1865759.0
1590566768.21875,77.22,,,1865523.0
1590566768.234375,78.96,,,1865895.0
1590566768.25,80.24,,,1866053.0
1590566768.265625,81.73,,,1866614.0
1590566768.28125,83.58,,,1866792.0
1590566768.296875,85.65,,,1867312.0
1590566768.3125,87.74,,,1868186.0
1590566768.328125,89.74,,,1868669.0
1590566768.34375,91.55,,,1869360.0
1590566768.359375,92.83,,,1870108.0
1590566768.375,92.8,,,1870655.0
1590566768.390625,90.31,,,1870478.0
1590566768.40625,84.25,,,1868612.0
1590566768.421875,74.13,,,1867061.0
1590566768.4375,60.49,,,1865439.0
1590566768.453125,44.76,,,1864212.0
1590566768.46875,28.58,,,1863101.0
1590566768.484375,13.04,,,1862284.0
1590566768.5,-1.91,,,1861825.0
1590566768.515625,-17.21,,,1861405.0
1590566768.53125,-33.84,,,1860885.0
1590566768.546875,-51.91,,,1860984.0
1590566768.5625,-70.13,,,1860846.0
1590566768.578125,-86.29,,,1860929.0
1590566768.59375,-98.15,,,1861270.0
1590566768.609375,-104.61,,,1861774.0
1590566768.625,-106.12,,,1861992.0
1590566768.640625,-104.4,,,1862207.0
1590566768.65625,-101.55,,,1862815.0
1590566768.671875,-99.04,,,1863255.0
1590566768.6875,-97.23,,,1863891.0
1590566768.703125,-95.55,,,1863170.0
1590566768.71875,-93.16,,,1861386.0
1590566768.734375,-89.62,,,1860134.0
1590566768.75,-85.26,,,1858816.0
1590566768.765625,-81.01,,,1857812.0
1590566768.78125,-77.94,,,1857645.0
1590566768.796875,-76.75,,,1857157.0
1590566768.8125,-77.4,,,1856860.0
1590566768.828125,-79.02,,,1856797.0
1590566768.84375,-80.15,,,1856996.0
1590566768.859375,-79.13,,,1857666.0
1590566768.875,-74.61,,,1858082.0
1590566768.890625,-66.03,,,1858745.0
1590566768.90625,-53.87,,,1860243.0
1590566768.921875,-39.56,,,1864479.0
1590566768.9375,-24.99,,,1869775.0
1590566768.953125,-11.93,,,1873647.0
1590566768.96875,-1.37,,,1875662.0
1590566768.984375,6.58,,,1876950.0
1590566769.0,12.52,,,1877114.0
1590566769.015625,17.2,,,1875942.0
1590566769.03125,21.14,,,1875019.0
1590566769.046875,24.36,,,1874309.0
1590566769.0625,26.64,,,1873934.0
1590566769.078125,27.84,,,1873781.0
1590566769.09375,28.09,,,1874060.0
1590566769.109375,27.78,,,1874019.0
1590566769.125,27.35,,,1874120.0
1590566769.140625,27.01,,,1874101.0
1590566769.15625,26.69,,,1874061.0
1590566769.171875,26.15,,,1874205.0
1590566769.1875,25.23,,,1874090.0
1590566769.203125,24.01,,,1874516.0
1590566769.21875,22.82,,,1875072.0
1590566769.234375,22.03,,,1875531.0
1590566769.25,21.87,,,1876226.0
1590566769.265625,22.24,,,1876739.0
1590566769.28125,22.7,,,1877683.0
1590566769.296875,22.66,,,1877962.0
1590566769.3125,21.63,,,1876567.0
1590566769.328125,19.39,,,1875180.0
1590566769.34375,16.1,,,1873463.0
1590566769.359375,12.2,,,1872200.0
1590566769.375,8.21,,,1870915.0
1590566769.390625,4.58,,,1870219.0
1590566769.40625,1.5,,,1870321.0
1590566769.421875,-1.12,,,1869988.0
1590566769.4375,-3.51,,,1869977.0
1590566769.453125,-5.98,,,1869959.0
1590566769.46875,-8.68,,,1869900.0
1590566769.484375,-11.61,,,1870109.0
1590566769.5,-14.57,,,1870655.0
1590566769.515625,-17.34,,,1871290.0
1590566769.53125,-19.7,,,1871937.0
1590566769.546875,-21.57,,,1872603.0
1590566769.5625,-23.04,,,1874309.0
1590566769.578125,-24.29,,,1875922.0
1590566769.59375,-25.63,,,1877813.0
1590566769.609375,-27.41,,,1878760.0
1590566769.625,-29.97,,,1879025.0
1590566769.640625,-33.53,,,1880121.0
1590566769.65625,-37.93,,,1880328.0
1590566769.671875,-42.45,,,1880281.0
1590566769.6875,-45.85,,,1880253.0
1590566769.703125,-46.64,,,1879872.0
1590566769.71875,-43.62,,,1879664.0
1590566769.734375,-36.47,,,1879274.0
1590566769.75,-26.01,,,1878850.0
1590566769.765625,-13.97,,,1878517.0
1590566769.78125,-2.44,,,1878317.0
1590566769.796875,6.92,,,1878861.0
1590566769.8125,13.37,,,1878797.0
1590566769.828125,17.19,,,1879141.0
1590566769.84375,19.28,,,1879479.0
1590566769.859375,20.66,,,1880207.0
1590566769.875,21.93,,,1880854.0
1590566769.890625,23.25,,,1881416.0
1590566769.90625,24.38,,,1882297.0
1590566769.921875,25.06,,,1882476.0
1590566769.9375,25.2,,,1881388.0
1590566769.953125,24.94,,,1879461.0
1590566769.96875,24.56,,,1878170.0
1590566769.984375,24.34,,,1876897.0
1590566770.0,24.41,,,1875851.0
1590566770.015625,24.69,,,1875393.0
1590566770.03125,24.94,,,1874896.0
1590566770.046875,24.9,,,1874725.0
1590566770.0625,24.39,,,1874652.0
1590566770.078125,23.36,,,1874391.0
1590566770.09375,21.91,,,1874781.0
1590566770.109375,20.14,,,1874881.0
1590566770.125,18.22,,,1875181.0
1590566770.140625,16.28,,,1875756.0
1590566770.15625,14.48,,,1876087.0
1590566770.171875,12.95,,,1876641.0
1590566770.1875,11.76,,,1877094.0
1590566770.203125,10.87,,,1877801.0
1590566770.21875,10.08,,,1878533.0
1590566770.234375,9.17,,,1877358.0
1590566770.25,7.97,,,1876652.0
1590566770.265625,6.6,,,1877056.0
1590566770.28125,5.38,,,1877569.0
1590566770.296875,4.81,,,1878056.0
1590566770.3125,5.27,,,1879800.0
1590566770.328125,6.86,,,1880777.0
1590566770.34375,9.25,,,1881390.0
1590566770.359375,11.81,,,1881869.0
1590566770.375,13.78,,,1882190.0
1590566770.390625,14.57,,,1882524.0
1590566770.40625,13.99,,,1883038.0
1590566770.421875,12.42,,,1883273.0
1590566770.4375,10.84,,,1883625.0
1590566770.453125,10.66,,,1883999.0
1590566770.46875,13.32,,,1884466.0
1590566770.484375,19.76,,,1884793.0
1590566770.5,30.01,,,1885251.0
1590566770.515625,43.07,,,1885024.0
1590566770.53125,57.23,,,1883276.0
1590566770.546875,70.61,,,1881468.0
1590566770.5625,81.82,,,1879608.0
1590566770.578125,90.28,,,1878181.0
1590566770.59375,96.12,,,1877187.0
1590566770.609375,99.95,,,1876807.0
1590566770.625,102.43,,,1876466.0
1590566770.640625,104.13,,,1876011.0
1590566770.65625,105.34,,,1875909.0
1590566770.671875,106.01,,,1875756.0
1590566770.6875,105.63,,,1875745.0
1590566770.703125,103.18,,,1876152.0
1590566770.71875,97.35,,,1876645.0
1590566770.734375,87.06,,,1877129.0
1590566770.75,72.01,,,1878010.0
1590566770.765625,52.86,,,1878436.0
1590566770.78125,30.86,,,1878944.0
1590566770.796875,7.1,,,1879535.0
1590566770.8125,-17.94,,,1880453.0
1590566770.828125,-44.48,,,1880318.0
1590566770.84375,-72.74,,,1878595.0
1590566770.859375,-102.24,,,1877042.0
1590566770.875,-131.35,,,1875759.0
1590566770.890625,-157.59,,,1874418.0
1590566770.90625,-178.51,,,1873784.0
1590566770.921875,-192.54,,,1872966.0
1590566770.9375,-199.53,,,1872920.0
1590566770.953125,-200.55,,,1872671.0
1590566770.96875,-197.27,,,1872372.0
1590566770.984375,-191.3,,,1872323.0
1590566771.0,-183.82,,,1872446.0
1590566771.015625,-175.54,,,1872768.0
1590566771.03125,-167.01,,,1873274.0
1590566771.046875,-158.73,,,1874241.0
1590566771.0625,-151.22,,,1874836.0
1590566771.078125,-144.87,,,1873709.0
1590566771.09375,-139.8,,,1875604.0
1590566771.109375,-135.69,,,1875831.0
1590566771.125,-131.82,,,1876586.0
1590566771.140625,-127.37,,,1876540.0
1590566771.15625,-121.78,,,1872741.0
1590566771.171875,-115.2,,,1871417.0
1590566771.1875,-108.51,,,1874941.0
1590566771.203125,-103.03,,,1869968.0
1590566771.21875,-99.73,,,1868781.0
1590566771.234375,-98.6,,,1868292.0
1590566771.25,-98.35,,,1867810.0
1590566771.265625,-96.74,,,1867551.0
1590566771.28125,-91.38,,,1867216.0
1590566771.296875,-80.76,,,1866957.0
1590566771.3125,-64.86,,,1867145.0
1590566771.328125,-45.17,,,1867335.0
1590566771.34375,-24.12,,,1867942.0
1590566771.359375,-4.18,,,1868382.0
1590566771.375,12.92,,,1869034.0
1590566771.390625,26.63,,,1869804.0
1590566771.40625,37.39,,,1870176.0
1590566771.421875,46.23,,,1870914.0
1590566771.4375,54.11,,,1871330.0
1590566771.453125,61.56,,,1872204.0
1590566771.46875,68.53,,,1872504.0
1590566771.484375,74.57,,,1871592.0
1590566771.5,79.13,,,1869530.0
1590566771.515625,81.88,,,1868248.0
1590566771.53125,82.78,,,1867017.0
1590566771.546875,82.09,,,1865904.0
1590566771.5625,80.22,,,1865314.0
1590566771.578125,77.56,,,1864824.0
1590566771.59375,74.47,,,1864515.0
1590566771.609375,71.23,,,1864143.0
1590566771.625,68.06,,,1863756.0
1590566771.640625,65.07,,,1863946.0
1590566771.65625,62.2,,,1864395.0
1590566771.671875,59.24,,,1864586.0
1590566771.6875,55.83,,,1865065.0
1590566771.703125,51.65,,,1865614.0
1590566771.71875,46.55,,,1866154.0
1590566771.734375,40.68,,,1866607.0
1590566771.75,34.42,,,1867381.0
1590566771.765625,28.22,,,1867466.0
1590566771.78125,22.4,,,1865987.0
1590566771.796875,17.06,,,1864618.0
1590566771.8125,12.03,,,1863372.0
1590566771.828125,7.0,,,1862654.0
1590566771.84375,1.77,,,1862247.0
1590566771.859375,-3.71,,,1861971.0
1590566771.875,-9.21,,,1862030.0
1590566771.890625,-14.37,,,1862001.0
1590566771.90625,-18.84,,,1861589.0
1590566771.921875,-22.47,,,1861663.0
1590566771.9375,-25.44,,,1861841.0
1590566771.953125,-28.19,,,1862560.0
1590566771.96875,-31.45,,,1863176.0
1590566771.984375,-35.98,,,1864019.0
1590566772.0,-42.39,,,1864321.0
1590566772.015625,-50.76,,,1865170.0
1590566772.03125,-60.37,,,1865800.0
1590566772.046875,-69.51,,,1866586.0
1590566772.0625,-75.76,,,1867306.0
1590566772.078125,-76.62,,,1866441.0
1590566772.09375,-70.42,,,1864461.0
1590566772.109375,-57.01,,,1863187.0
1590566772.125,-38.08,,,1861805.0
1590566772.140625,-16.67,,,1861070.0
1590566772.15625,3.9,,,1860344.0
1590566772.171875,21.01,,,1860237.0
1590566772.1875,33.54,,,1859980.0
1590566772.203125,41.88,,,1859761.0
1590566772.21875,47.37,,,1859797.0
1590566772.234375,51.53,,,1859863.0
1590566772.25,55.4,,,1860116.0
1590566772.265625,59.31,,,1860463.0
1590566772.28125,62.99,,,1860963.0
1590566772.296875,66.01,,,1861403.0
1590566772.3125,68.05,,,1862143.0
1590566772.328125,69.11,,,1862577.0
1590566772.34375,69.46,,,1863256.0
1590566772.359375,69.46,,,1863894.0
1590566772.375,69.41,,,1864000.0
1590566772.390625,69.44,,,1862197.0
1590566772.40625,69.51,,,1860314.0
1590566772.421875,69.54,,,1858625.0
1590566772.4375,69.44,,,1857219.0
1590566772.453125,69.19,,,1855858.0
1590566772.46875,68.79,,,1855199.0
1590566772.484375,68.25,,,1855124.0
1590566772.5,67.56,,,1854629.0
1590566772.515625,66.62,,,1854175.0
1590566772.53125,65.35,,,1854246.0
1590566772.546875,63.65,,,1854278.0
1590566772.5625,61.48,,,1854573.0
1590566772.578125,58.82,,,1855333.0
1590566772.59375,55.64,,,1855610.0
1590566772.609375,52.0,,,1856229.0
1590566772.625,48.05,,,1857095.0
1590566772.640625,44.12,,,1857402.0
1590566772.65625,40.63,,,1858262.0
1590566772.671875,37.97,,,1859057.0
1590566772.6875,36.35,,,1859635.0
1590566772.703125,35.63,,,1858806.0
1590566772.71875,35.38,,,1856767.0
1590566772.734375,35.05,,,1854925.0
1590566772.75,34.11,,,1853514.0
1590566772.765625,32.26,,,1852059.0
1590566772.78125,29.36,,,1851119.0
1590566772.796875,25.49,,,1850611.0
1590566772.8125,20.95,,,1850353.0
1590566772.828125,16.45,,,1849902.0
1590566772.84375,13.19,,,1849503.0
1590566772.859375,12.9,,,1849536.0
1590566772.875,17.33,,,1849765.0
1590566772.890625,27.58,,,1850029.0
1590566772.90625,43.29,,,1850503.0
1590566772.921875,62.47,,,1851014.0
1590566772.9375,81.95,,,1851562.0
1590566772.953125,98.57,,,1852152.0
1590566772.96875,110.31,,,1852706.0
1590566772.984375,116.7,,,1853496.0
1590566773.0,118.38,,,1854307.0
1590566773.015625,115.89,,,1855057.0
1590566773.03125,108.74,,,1855596.0
1590566773.046875,95.31,,,1854031.0
1590566773.0625,73.79,,,1852405.0
1590566773.078125,43.56,,,1851110.0
1590566773.09375,6.17,,,1850113.0
1590566773.109375,-34.78,,,1849598.0
1590566773.125,-74.85,,,1848982.0
1590566773.140625,-110.24,,,1849070.0
1590566773.15625,-138.92,,,1848824.0
1590566773.171875,-160.66,,,1848614.0
1590566773.1875,-176.33,,,1848972.0
1590566773.203125,-186.75,,,1848758.0
1590566773.21875,-192.27,,,1849378.0
1590566773.234375,-192.79,,,1849746.0
1590566773.25,-188.4,,,1850522.0
1590566773.265625,-179.91,,,1851073.0
1590566773.28125,-169.0,,,1851698.0
1590566773.296875,-157.69,,,1852303.0
1590566773.3125,-147.64,,,1853081.0
1590566773.328125,-139.56,,,1853629.0
1590566773.34375,-133.02,,,1853452.0
1590566773.359375,-126.86,,,1851806.0
1590566773.375,-119.83,,,1850525.0
1590566773.390625,-111.22,,,1849453.0
1590566773.40625,-101.19,,,1848812.0
1590566773.421875,-90.65,,,1848544.0
1590566773.4375,-80.81,,,1848887.0
1590566773.453125,-72.68,,,1848848.0
1590566773.46875,-66.6,,,1848622.0
1590566773.484375,-62.18,,,1848652.0
1590566773.5,-58.57,,,1848832.0
1590566773.515625,-54.81,,,1849457.0
1590566773.53125,-50.36,,,1849799.0
1590566773.546875,-45.27,,,1850575.0
1590566773.5625,-40.15,,,1851190.0
1590566773.578125,-35.94,,,1851746.0
1590566773.59375,-33.55,,,1852288.0
1590566773.609375,-33.59,,,1853122.0
1590566773.625,-36.15,,,1853655.0
1590566773.640625,-40.65,,,1853937.0
1590566773.65625,-45.72,,,1852515.0
1590566773.671875,-49.3,,,1850758.0
1590566773.6875,-49.06,,,1849339.0
1590566773.703125,-43.05,,,1848322.0
1590566773.71875,-30.54,,,1847522.0
1590566773.734375,-12.47,,,1847073.0
1590566773.75,8.66,,,1846976.0
1590566773.765625,29.58,,,1846578.0
1590566773.78125,47.33,,,1846310.0
1590566773.796875,60.24,,,1846456.0
1590566773.8125,68.18,,,1846645.0
1590566773.828125,72.26,,,1846803.0
1590566773.84375,73.99,,,1847371.0
1590566773.859375,74.62,,,1847630.0
1590566773.875,74.68,,,1848459.0
1590566773.890625,74.15,,,1848789.0
1590566773.90625,72.75,,,1849386.0
1590566773.921875,70.34,,,1850121.0
1590566773.9375,67.14,,,1850695.0
1590566773.953125,63.6,,,1850267.0
1590566773.96875,60.28,,,1848193.0
1590566773.984375,57.56,,,1846479.0
1590566774.0,55.53,,,1844895.0
1590566774.015625,53.99,,,1843648.0
1590566774.03125,52.61,,,1842546.0
1590566774.046875,51.06,,,1842443.0
1590566774.0625,49.21,,,1841914.0
1590566774.078125,47.15,,,1841560.0
1590566774.09375,45.07,,,1841356.0
1590566774.109375,43.14,,,1841234.0
1590566774.125,41.32,,,1841603.0
1590566774.140625,39.32,,,1841782.0
1590566774.15625,36.71,,,1842303.0
1590566774.171875,33.09,,,1842980.0
1590566774.1875,28.31,,,1843422.0
1590566774.203125,22.57,,,1843982.0
1590566774.21875,16.45,,,1844865.0
1590566774.234375,10.67,,,1845638.0
1590566774.25,5.82,,,1846129.0
1590566774.265625,2.2,,,1844928.0
1590566774.28125,-0.31,,,1842789.0
1590566774.296875,-2.15,,,1841079.0
1590566774.3125,-3.95,,,1839713.0
1590566774.328125,-6.32,,,1838462.0
1590566774.34375,-9.74,,,1837875.0
1590566774.359375,-14.48,,,1837705.0
1590566774.375,-20.51,,,1837145.0
1590566774.390625,-27.44,,,1837145.0
1590566774.40625,-34.28,,,1837221.0
1590566774.421875,-39.58,,,1837159.0
1590566774.4375,-41.58,,,1837359.0
1590566774.453125,-38.73,,,1837932.0
1590566774.46875,-30.27,,,1838413.0
1590566774.484375,-16.59,,,1839213.0
1590566774.5,0.77,,,1839575.0
1590566774.515625,19.61,,,1840251.0
1590566774.53125,37.73,,,1840965.0
1590566774.546875,53.55,,,1841946.0
1590566774.5625,66.4,,,1842855.0
1590566774.578125,76.37,,,1843409.0
1590566774.59375,84.03,,,1843532.0
1590566774.609375,90.01,,,1841590.0
1590566774.625,94.87,,,1839779.0
1590566774.640625,99.05,,,1838572.0
1590566774.65625,103.0,,,1837250.0
1590566774.671875,107.1,,,1836002.0
1590566774.6875,111.57,,,1835265.0
1590566774.703125,116.29,,,1834756.0
1590566774.71875,120.76,,,1834322.0
1590566774.734375,124.28,,,1833934.0
1590566774.75,126.2,,,1833793.0
1590566774.765625,126.28,,,1833928.0
1590566774.78125,124.74,,,1834086.0
1590566774.796875,122.12,,,1834471.0
1590566774.8125,119.02,,,1834967.0
1590566774.828125,115.75,,,1835291.0
1590566774.84375,112.25,,,1835683.0
1590566774.859375,108.1,,,1836282.0
1590566774.875,102.75,,,1836803.0
1590566774.890625,95.62,,,1835842.0
1590566774.90625,86.16,,,1834217.0
1590566774.921875,74.04,,,1832429.0
1590566774.9375,59.35,,,1831340.0
1590566774.953125,42.94,,,1830591.0
1590566774.96875,26.3,,,1830424.0
1590566774.984375,11.19,,,1830138.0
1590566775.0,-1.4,,,1830002.0
1590566775.015625,-12.09,,,1830002.0
1590566775.03125,-23.15,,,1829765.0
1590566775.046875,-37.8,,,1829606.0
1590566775.0625,-58.64,,,1829662.0
1590566775.078125,-86.3,,,1830123.0
1590566775.09375,-118.85,,,1830842.0
1590566775.109375,-152.33,,,1831235.0
1590566775.125,-182.13,,,1831726.0
1590566775.140625,-204.46,,,1832562.0
1590566775.15625,-217.34,,,1833013.0
1590566775.171875,-220.73,,,1833743.0
1590566775.1875,-216.21,,,1834218.0
1590566775.203125,-206.15,,,1833097.0
1590566775.21875,-193.18,,,1830756.0
1590566775.234375,-179.6,,,1828932.0
1590566775.25,-167.01,,,1827511.0
1590566775.265625,-156.05,,,1826218.0
1590566775.28125,-146.43,,,1825466.0
1590566775.296875,-137.19,,,1825005.0
1590566775.3125,-127.2,,,1824614.0
1590566775.328125,-115.69,,,1824159.0
1590566775.34375,-102.44,,,1823942.0
1590566775.359375,-87.85,,,1824152.0
1590566775.375,-72.69,,,1824113.0
1590566775.390625,-57.83,,,1824499.0
1590566775.40625,-44.08,,,1824920.0
1590566775.421875,-31.91,,,1825524.0
1590566775.4375,-21.51,,,1826102.0
1590566775.453125,-12.69,,,1826582.0
1590566775.46875,-5.08,,,1827119.0
1590566775.484375,1.75,,,1827738.0
1590566775.5,8.1,,,1826504.0
1590566775.515625,13.92,,,1824029.0
1590566775.53125,18.91,,,1822064.0
1590566775.546875,22.64,,,1820149.0
1590566775.5625,24.73,,,1818358.0
1590566775.578125,25.1,,,1817334.0
1590566775.59375,23.98,,,1816605.0
1590566775.609375,21.82,,,1816208.0
1590566775.625,19.17,,,1815615.0
1590566775.640625,16.44,,,1815144.0
1590566775.65625,13.84,,,1815171.0
1590566775.671875,11.3,,,1815179.0
1590566775.6875,8.48,,,1815500.0
1590566775.703125,4.9,,,1815980.0
1590566775.71875,0.07,,,1816495.0
1590566775.734375,-6.17,,,1817077.0
1590566775.75,-13.37,,,1817672.0
1590566775.765625,-20.27,,,1818263.0
1590566775.78125,-25.07,,,1818989.0
1590566775.796875,-25.89,,,1818486.0
1590566775.8125,-21.58,,,1816332.0
1590566775.828125,-12.21,,,1814069.0
1590566775.84375,0.81,,,1812278.0
1590566775.859375,15.2,,,1810382.0
1590566775.875,28.57,,,1808950.0
1590566775.890625,39.25,,,1808269.0
1590566775.90625,46.6,,,1807946.0
1590566775.921875,50.98,,,1807500.0
1590566775.9375,53.3,,,1806826.0
1590566775.953125,54.43,,,1806874.0
1590566775.96875,54.91,,,1807023.0
1590566775.984375,54.78,,,1807584.0
1590566776.0,53.85,,,1807604.0
1590566776.015625,51.95,,,1808309.0
1590566776.03125,49.15,,,1808785.0
1590566776.046875,45.82,,,1809441.0
1590566776.0625,42.55,,,1810133.0
1590566776.078125,39.85,,,1810977.0
1590566776.09375,37.96,,,1811811.0
1590566776.109375,36.73,,,1812492.0
1590566776.125,35.68,,,1812410.0
1590566776.140625,34.21,,,1809921.0
1590566776.15625,31.9,,,1807812.0
1590566776.171875,28.67,,,1806060.0
1590566776.1875,24.75,,,1804769.0
1590566776.203125,20.52,,,1803647.0
1590566776.21875,16.27,,,1802905.0
1590566776.234375,12.12,,,1802782.0
1590566776.25,7.98,,,1801982.0
1590566776.265625,3.69,,,1801805.0
1590566776.28125,-0.88,,,1801593.0
1590566776.296875,-5.8,,,1801817.0
1590566776.3125,-11.15,,,1802334.0
1590566776.328125,-17.1,,,1802725.0
1590566776.34375,-23.87,,,1803089.0
1590566776.359375,-31.5,,,1803715.0
1590566776.375,-39.47,,,1804310.0
1590566776.390625,-46.64,,,1804965.0
1590566776.40625,-51.31,,,1805902.0
1590566776.421875,-51.79,,,1806360.0
1590566776.4375,-47.07,,,1806093.0
1590566776.453125,-37.31,,,1803845.0
1590566776.46875,-23.93,,,1802066.0
1590566776.484375,-9.07,,,1800899.0
1590566776.5,5.06,,,1800213.0
1590566776.515625,16.9,,,1799747.0
1590566776.53125,25.83,,,1799569.0
1590566776.546875,32.07,,,1799342.0
1590566776.5625,36.23,,,1799082.0
1590566776.578125,38.91,,,1799016.0
1590566776.59375,40.46,,,1799409.0
1590566776.609375,40.95,,,1799753.0
1590566776.625,40.33,,,1800470.0
1590566776.640625,38.71,,,1800955.0
1590566776.65625,36.39,,,1801805.0
1590566776.671875,33.86,,,1802750.0
1590566776.6875,31.61,,,1803213.0
1590566776.703125,29.94,,,1803489.0
1590566776.71875,28.85,,,1801798.0
1590566776.734375,28.08,,,1800196.0
1590566776.75,27.31,,,1799097.0
1590566776.765625,26.33,,,1798164.0
1590566776.78125,25.14,,,1797927.0
1590566776.796875,23.83,,,1797815.0
1590566776.8125,22.44,,,1797802.0
1590566776.828125,20.7,,,1797694.0
1590566776.84375,18.09,,,1797559.0
1590566776.859375,14.09,,,1797935.0
1590566776.875,8.49,,,1799080.0
1590566776.890625,1.64,,,1798219.0
1590566776.90625,-5.66,,,1799602.0
1590566776.921875,-12.4,,,1800560.0
1590566776.9375,-17.87,,,1801271.0
1590566776.953125,-21.9,,,1802037.0
1590566776.96875,-25.0,,,1803097.0
1590566776.984375,-28.09,,,1803479.0
1590566777.0,-32.2,,,1802372.0
1590566777.015625,-38.08,,,1799700.0
1590566777.03125,-45.97,,,1797516.0
1590566777.046875,-55.35,,,1795679.0
1590566777.0625,-64.91,,,1794077.0
1590566777.078125,-72.77,,,1793059.0
1590566777.09375,-76.82,,,1792426.0
1590566777.109375,-75.43,,,1792091.0
1590566777.125,-68.06,,,1791779.0
1590566777.140625,-55.54,,,1791362.0
1590566777.15625,-39.92,,,1791268.0
1590566777.171875,-23.78,,,1791614.0
1590566777.1875,-9.37,,,1792067.0
1590566777.203125,2.08,,,1792604.0
1590566777.21875,10.53,,,1793226.0
1590566777.234375,16.82,,,1794010.0
1590566777.25,22.05,,,1794775.0
1590566777.265625,27.02,,,1795503.0
1590566777.28125,31.89,,,1796254.0
1590566777.296875,36.28,,,1796023.0
1590566777.3125,39.63,,,1794020.0
1590566777.328125,41.57,,,1791647.0
1590566777.34375,42.13,,,1789748.0
1590566777.359375,41.74,,,1788030.0
1590566777.375,41.0,,,1786575.0
1590566777.390625,40.44,,,1785661.0
1590566777.40625,40.29,,,1785456.0
1590566777.421875,40.43,,,1785034.0
1590566777.4375,40.57,,,1785193.0
1590566777.453125,40.39,,,1785058.0
1590566777.46875,39.72,,,1785371.0
1590566777.484375,38.58,,,1785974.0
1590566777.5,37.09,,,1786783.0
1590566777.515625,35.31,,,1787396.0
1590566777.53125,33.18,,,1788470.0
1590566777.546875,30.52,,,1789433.0
1590566777.5625,27.14,,,1790114.0
1590566777.578125,22.98,,,1791350.0
1590566777.59375,18.11,,,1792229.0
1590566777.609375,12.8,,,1792128.0
1590566777.625,7.39,,,1790031.0
1590566777.640625,2.25,,,1788247.0
1590566777.65625,-2.36,,,1786491.0
1590566777.671875,-6.33,,,1784987.0
1590566777.6875,-9.79,,,1784209.0
1590566777.703125,-13.01,,,1783630.0
1590566777.71875,-16.34,,,1783531.0
1590566777.734375,-20.13,,,1783687.0
1590566777.75,-24.65,,,1783743.0
1590566777.765625,-30.03,,,1784236.0
1590566777.78125,-36.32,,,1784560.0
1590566777.796875,-43.39,,,1785520.0
1590566777.8125,-50.79,,,1786321.0
1590566777.828125,-57.58,,,1787182.0
1590566777.84375,-62.35,,,1788182.0
1590566777.859375,-63.55,,,1789249.0
1590566777.875,-59.99,,,1790094.0
1590566777.890625,-51.41,,,1791199.0
1590566777.90625,-38.73,,,1792312.0
1590566777.921875,-23.84,,,1793232.0
1590566777.9375,-8.91,,,1791842.0
1590566777.953125,4.33,,,1789859.0
1590566777.96875,15.06,,,1788318.0
1590566777.984375,23.42,,,1787173.0
1590566778.0,30.07,,,1786222.0
1590566778.015625,35.71,,,1785513.0
1590566778.03125,40.72,,,1785969.0
1590566778.046875,45.06,,,1785950.0
1590566778.0625,48.51,,,1785804.0
1590566778.078125,50.86,,,1786021.0
1590566778.09375,52.08,,,1786669.0
1590566778.109375,52.36,,,1787234.0
1590566778.125,51.98,,,1788296.0
1590566778.140625,51.22,,,1789233.0
1590566778.15625,50.33,,,1790316.0
1590566778.171875,49.46,,,1791098.0
1590566778.1875,48.67,,,1792383.0
1590566778.203125,47.97,,,1793378.0
1590566778.21875,47.3,,,1794820.0
1590566778.234375,46.57,,,1795695.0
1590566778.25,45.67,,,1794926.0
1590566778.265625,44.42,,,1793420.0
1590566778.28125,42.64,,,1792281.0
1590566778.296875,40.17,,,1791620.0
1590566778.3125,36.91,,,1791133.0
1590566778.328125,32.95,,,1791298.0
1590566778.34375,28.52,,,1791326.0
1590566778.359375,23.93,,,1791888.0
1590566778.375,19.47,,,1791755.0
1590566778.390625,15.31,,,1792371.0
1590566778.40625,11.35,,,1793025.0
1590566778.421875,7.38,,,1793751.0
1590566778.4375,3.16,,,1794691.0
1590566778.453125,-1.41,,,1795606.0
1590566778.46875,-6.19,,,1796398.0
1590566778.484375,-10.85,,,1797468.0
1590566778.5,-15.07,,,1798792.0
1590566778.515625,-18.67,,,1799621.0
1590566778.53125,-21.75,,,1799372.0
1590566778.546875,-24.71,,,1798344.0
1590566778.5625,-28.15,,,1798132.0
1590566778.578125,-32.64,,,1798153.0
1590566778.59375,-38.5,,,1798841.0
1590566778.609375,-45.42,,,1800048.0
1590566778.625,-52.35,,,1801679.0
1590566778.640625,-57.62,,,1803542.0
1590566778.65625,-59.34,,,1805611.0
1590566778.671875,-56.13,,,1808467.0
1590566778.6875,-47.7,,,1812268.0
1590566778.703125,-35.01,,,1816024.0
1590566778.71875,-20.04,,,1819020.0
1590566778.734375,-5.02,,,1821122.0
1590566778.75,8.31,,,1822665.0
1590566778.765625,19.18,,,1823570.0
1590566778.78125,27.73,,,1823352.0
1590566778.796875,34.67,,,1821772.0
1590566778.8125,40.73,,,1821038.0
1590566778.828125,46.3,,,1820185.0
1590566778.84375,51.44,,,1819958.0
1590566778.859375,55.97,,,1820054.0
1590566778.875,59.75,,,1820093.0
1590566778.890625,62.8,,,1820533.0
1590566778.90625,65.22,,,1820463.0
1590566778.921875,67.21,,,1820829.0
1590566778.9375,68.89,,,1821126.0
1590566778.953125,70.32,,,1821885.0
1590566778.96875,71.51,,,1822525.0
1590566778.984375,72.49,,,1823214.0
1590566779.0,73.36,,,1824350.0
1590566779.015625,74.32,,,1824771.0
1590566779.03125,75.58,,,1823849.0
1590566779.046875,77.3,,,1822755.0
1590566779.0625,79.4,,,1821984.0
1590566779.078125,81.57,,,1821847.0
1590566779.09375,83.34,,,1821632.0
1590566779.109375,84.24,,,1822544.0
1590566779.125,84.05,,,1823093.0
1590566779.140625,82.94,,,1823316.0
1590566779.15625,81.46,,,1823802.0
1590566779.171875,80.34,,,1824077.0
1590566779.1875,80.17,,,1825025.0
1590566779.203125,81.11,,,1825629.0
1590566779.21875,82.74,,,1826676.0
1590566779.234375,84.22,,,1827374.0
1590566779.25,84.57,,,1828464.0
1590566779.265625,83.05,,,1828246.0
1590566779.28125,79.51,,,1827187.0
1590566779.296875,74.34,,,1826285.0
1590566779.3125,68.35,,,1826303.0
1590566779.328125,62.32,,,1826684.0
1590566779.34375,56.65,,,1827471.0
1590566779.359375,51.01,,,1829235.0
1590566779.375,44.48,,,1830794.0
1590566779.390625,35.75,,,1832072.0
1590566779.40625,23.67,,,1834178.0
1590566779.421875,7.84,,,1835882.0
1590566779.4375,-10.97,,,1837294.0
1590566779.453125,-30.7,,,1838020.0
1590566779.46875,-48.49,,,1838881.0
1590566779.484375,-61.52,,,1839430.0
1590566779.5,-68.05,,,1840222.0
1590566779.515625,-68.1,,,1840546.0
1590566779.53125,-63.53,,,1839298.0
1590566779.546875,-57.32,,,1837951.0
1590566779.5625,-52.52,,,1836332.0
1590566779.578125,-51.13,,,1835278.0
1590566779.59375,-53.46,,,1834485.0
1590566779.609375,-58.02,,,1834270.0
1590566779.625,-61.95,,,1834098.0
1590566779.640625,-61.86,,,1834080.0
1590566779.65625,-54.85,,,1834399.0
1590566779.671875,-39.67,,,1834292.0
1590566779.6875,-17.57,,,1834552.0
1590566779.703125,7.5,,,1834987.0
1590566779.71875,29.58,,,1835265.0
1590566779.734375,42.46,,,1835702.0
1590566779.75,41.67,,,1836701.0
1590566779.765625,26.1,,,1837184.0
1590566779.78125,-1.8,,,1837777.0
1590566779.796875,-36.97,,,1837070.0
1590566779.8125,-73.64,,,1835940.0
1590566779.828125,-106.97,,,1834698.0
1590566779.84375,-133.95,,,1834169.0
1590566779.859375,-153.4,,,1833223.0
1590566779.875,-165.25,,,1832936.0
1590566779.890625,-170.05,,,1832984.0
1590566779.90625,-168.66,,,1833222.0
1590566779.921875,-162.36,,,1833344.0
1590566779.9375,-152.83,,,1833781.0
1590566779.953125,-142.0,,,1834330.0
1590566779.96875,-131.53,,,1835045.0
1590566779.984375,-122.44,,,1835911.0
1590566780.0,-114.87,,,1836403.0
1590566780.015625,-108.28,,,1837254.0
1590566780.03125,-101.91,,,1838086.0
1590566780.046875,-95.12,,,1839118.0
1590566780.0625,-87.8,,,1839775.0
1590566780.078125,-80.23,,,1840436.0
1590566780.09375,-72.94,,,1839478.0
1590566780.109375,-66.39,,,1838098.0
1590566780.125,-60.77,,,1837087.0
1590566780.140625,-55.99,,,1836474.0
1590566780.15625,-51.71,,,1836062.0
1590566780.171875,-47.65,,,1835778.0
1590566780.1875,-43.74,,,1836047.0
1590566780.203125,-40.28,,,1836354.0
1590566780.21875,-37.89,,,1836680.0
1590566780.234375,-37.17,,,1837133.0
1590566780.25,-38.27,,,1837550.0
1590566780.265625,-40.51,,,1838007.0
1590566780.28125,-42.26,,,1838726.0
1590566780.296875,-41.43,,,1839579.0
1590566780.3125,-36.14,,,1840243.0
1590566780.328125,-25.59,,,1840843.0
1590566780.34375,-10.5,,,1841539.0
1590566780.359375,7.01,,,1842270.0
1590566780.375,24.24,,,1843330.0
1590566780.390625,38.77,,,1843601.0
1590566780.40625,49.32,,,1842904.0
1590566780.421875,55.85,,,1841838.0
1590566780.4375,59.28,,,1841030.0
1590566780.453125,60.83,,,1840468.0
1590566780.46875,61.47,,,1840223.0
1590566780.484375,61.64,,,1839989.0
1590566780.5,61.33,,,1840135.0
1590566780.515625,60.39,,,1840400.0
1590566780.53125,58.78,,,1840332.0
1590566780.546875,56.62,,,1840745.0
1590566780.5625,54.19,,,1840959.0
1590566780.578125,51.81,,,1841196.0
1590566780.59375,49.73,,,1841568.0
1590566780.609375,48.09,,,1841821.0
1590566780.625,46.86,,,1842166.0
1590566780.640625,45.89,,,1842763.0
1590566780.65625,44.96,,,1843430.0
1590566780.671875,43.78,,,1844132.0
1590566780.6875,42.02,,,1843609.0
1590566780.703125,39.41,,,1842619.0
1590566780.71875,35.8,,,1841982.0
1590566780.734375,31.2,,,1841532.0
1590566780.75,25.86,,,1841563.0
1590566780.765625,20.21,,,1841997.0
1590566780.78125,14.76,,,1842207.0
1590566780.796875,9.96,,,1842560.0
1590566780.8125,6.04,,,1842951.0
1590566780.828125,2.97,,,1843303.0
1590566780.84375,0.44,,,1843845.0
1590566780.859375,-1.96,,,1844489.0
1590566780.875,-4.58,,,1845119.0
1590566780.890625,-7.6,,,1845939.0
1590566780.90625,-10.96,,,1846600.0
1590566780.921875,-14.44,,,1847402.0
1590566780.9375,-17.71,,,1848230.0
1590566780.953125,-20.56,,,1848766.0
1590566780.96875,-22.9,,,1848181.0
1590566780.984375,-24.86,,,1847122.0
1590566781.0,-26.77,,,1846845.0
1590566781.015625,-29.11,,,1846260.0
1590566781.03125,-32.38,,,1846042.0
1590566781.046875,-36.71,,,1846329.0
1590566781.0625,-41.71,,,1846416.0
1590566781.078125,-46.26,,,1846716.0
1590566781.09375,-48.69,,,1847095.0
1590566781.109375,-47.33,,,1847215.0
1590566781.125,-41.13,,,1847581.0
1590566781.140625,-30.21,,,1848056.0
1590566781.15625,-15.96,,,1848831.0
1590566781.171875,-0.6,,,1850282.0
1590566781.1875,13.52,,,1849646.0
1590566781.203125,24.78,,,1852028.0
1590566781.21875,32.68,,,1850941.0
1590566781.234375,37.76,,,1853556.0
1590566781.25,41.19,,,1852216.0
1590566781.265625,44.18,,,1852914.0
1590566781.28125,47.4,,,1853301.0
1590566781.296875,50.96,,,1850794.0
1590566781.3125,54.44,,,1851522.0
1590566781.328125,57.3,,,1850568.0
1590566781.34375,59.22,,,1850281.0
1590566781.359375,60.3,,,1850407.0
1590566781.375,61.04,,,1850637.0
1590566781.390625,62.11,,,1850627.0
1590566781.40625,64.05,,,1850805.0
1590566781.421875,66.94,,,1850890.0
1590566781.4375,70.5,,,1851399.0
1590566781.453125,74.23,,,1851849.0
1590566781.46875,77.74,,,1852873.0
1590566781.484375,80.91,,,1853100.0
1590566781.5,83.86,,,1853972.0
1590566781.515625,86.69,,,1854644.0
1590566781.53125,89.25,,,1855335.0
1590566781.546875,91.08,,,1856323.0
1590566781.5625,91.55,,,1855822.0
1590566781.578125,90.08,,,1855140.0
1590566781.59375,86.42,,,1854010.0
1590566781.609375,80.68,,,1853355.0
1590566781.625,73.32,,,1853110.0
1590566781.640625,65.07,,,1852773.0
1590566781.65625,56.72,,,1853098.0
1590566781.671875,48.97,,,1853406.0
1590566781.6875,42.19,,,1853482.0
1590566781.703125,36.28,,,1854048.0
1590566781.71875,30.68,,,1854104.0
1590566781.734375,24.6,,,1854758.0
1590566781.75,17.36,,,1855254.0
1590566781.765625,8.56,,,1856105.0
1590566781.78125,-1.9,,,1856557.0
1590566781.796875,-13.75,,,1857456.0
1590566781.8125,-26.37,,,1858006.0
1590566781.828125,-38.61,,,1858772.0
1590566781.84375,-48.84,,,1859651.0
1590566781.859375,-55.35,,,1859825.0
1590566781.875,-57.29,,,1858989.0
1590566781.890625,-55.65,,,1858125.0
1590566781.90625,-53.47,,,1857521.0
1590566781.921875,-54.92,,,1857259.0
1590566781.9375,-63.32,,,1857138.0
1590566781.953125,-79.38,,,1857314.0
1590566781.96875,-100.51,,,1857351.0
1590566781.984375,-121.91,,,1857461.0
1590566782.0,-138.77,,,1857858.0
1590566782.015625,-148.46,,,1858169.0
1590566782.03125,-151.27,,,1858384.0
1590566782.046875,-149.67,,,1859632.0
1590566782.0625,-146.41,,,1860890.0
1590566782.078125,-142.98,,,1860150.0
1590566782.09375,-139.1,,,1858825.0
1590566782.109375,-133.45,,,1862001.0
1590566782.125,-124.94,,,1862754.0
1590566782.140625,-113.58,,,1862652.0
1590566782.15625,-100.59,,,1861627.0
1590566782.171875,-87.68,,,1860806.0
1590566782.1875,-76.1,,,1861721.0
1590566782.203125,-66.11,,,1859898.0
1590566782.21875,-57.0,,,1860276.0
1590566782.234375,-47.7,,,1859863.0
1590566782.25,-37.42,,,1859871.0
1590566782.265625,-26.15,,,1860101.0
1590566782.28125,-14.64,,,1860107.0
1590566782.296875,-4.06,,,1860550.0
1590566782.3125,4.6,,,1860450.0
1590566782.328125,10.91,,,1861011.0
1590566782.34375,15.19,,,1861539.0
1590566782.359375,18.26,,,1861830.0
1590566782.375,20.96,,,1862666.0
1590566782.390625,23.8,,,1863277.0
1590566782.40625,26.7,,,1863801.0
1590566782.421875,29.18,,,1864179.0
1590566782.4375,30.59,,,1863499.0
1590566782.453125,30.48,,,1862172.0
1590566782.46875,28.82,,,1860959.0
1590566782.484375,26.0,,,1860083.0
1590566782.5,22.69,,,1859329.0
1590566782.515625,19.61,,,1858936.0
1590566782.53125,17.31,,,1858601.0
1590566782.546875,15.98,,,1858522.0
1590566782.5625,15.39,,,1858937.0
1590566782.578125,15.0,,,1859065.0
1590566782.59375,14.14,,,1859380.0
1590566782.609375,12.3,,,1859915.0
1590566782.625,9.29,,,1858982.0
1590566782.640625,5.4,,,1858785.0
1590566782.65625,1.24,,,1860955.0
1590566782.671875,-2.46,,,1862121.0
1590566782.6875,-5.18,,,1861450.0
1590566782.703125,-6.84,,,1862528.0
1590566782.71875,-7.82,,,1861956.0
1590566782.734375,-8.8,,,1860531.0
1590566782.75,-10.54,,,1860154.0
1590566782.765625,-13.64,,,1858927.0
1590566782.78125,-18.38,,,1857635.0
1590566782.796875,-24.59,,,1856799.0
1590566782.8125,-31.58,,,1855914.0
1590566782.828125,-38.07,,,1855514.0
1590566782.84375,-42.45,,,1855369.0
1590566782.859375,-43.06,,,1855227.0
1590566782.875,-38.88,,,1855240.0
1590566782.890625,-29.97,,,1855075.0
1590566782.90625,-17.65,,,1855314.0
1590566782.921875,-4.11,,,1855580.0
1590566782.9375,8.35,,,1856048.0
1590566782.953125,18.06,,,1856348.0
1590566782.96875,24.5,,,1856988.0
1590566782.984375,28.14,,,1857263.0
1590566783.0,30.04,,,1858097.0
1590566783.015625,31.16,,,1858532.0
1590566783.03125,32.04,,,1859257.0
1590566783.046875,32.79,,,1859652.0
1590566783.0625,33.27,,,1858434.0
1590566783.078125,33.41,,,1856731.0
1590566783.09375,33.24,,,1855163.0
1590566783.109375,32.94,,,1853783.0
1590566783.125,32.64,,,1851683.0
1590566783.140625,32.37,,,1852766.0
1590566783.15625,32.04,,,1851218.0
1590566783.171875,31.54,,,1850651.0
1590566783.1875,30.81,,,1851799.0
1590566783.203125,29.95,,,1850534.0
1590566783.21875,29.15,,,1850765.0
1590566783.234375,28.61,,,1850663.0
1590566783.25,28.43,,,1851226.0
1590566783.265625,28.49,,,1850871.0
1590566783.28125,28.42,,,1851734.0
1590566783.296875,27.74,,,1851952.0
1590566783.3125,26.04,,,1852356.0
1590566783.328125,23.24,,,1852834.0
1590566783.34375,19.65,,,1853472.0
1590566783.359375,15.94,,,1854044.0
1590566783.375,12.79,,,1854768.0
1590566783.390625,10.63,,,1853946.0
1590566783.40625,9.44,,,1852199.0
1590566783.421875,8.7,,,1850825.0
1590566783.4375,7.71,,,1849549.0
1590566783.453125,5.88,,,1848708.0
1590566783.46875,3.11,,,1847930.0
1590566783.484375,-0.27,,,1847720.0
1590566783.5,-3.56,,,1847153.0
1590566783.515625,-6.1,,,1846937.0
1590566783.53125,-7.51,,,1846734.0
1590566783.546875,-7.91,,,1846563.0
1590566783.5625,-7.83,,,1846667.0
1590566783.578125,-8.04,,,1846994.0
1590566783.59375,-9.22,,,1847547.0
1590566783.609375,-11.78,,,1847784.0
1590566783.625,-15.63,,,1848296.0
1590566783.640625,-20.08,,,1848942.0
1590566783.65625,-23.95,,,1849189.0
1590566783.671875,-25.8,,,1849859.0
1590566783.6875,-24.27,,,1849925.0
1590566783.703125,-18.57,,,1848382.0
1590566783.71875,-8.77,,,1846903.0
1590566783.734375,4.16,,,1845826.0
1590566783.75,18.66,,,1845052.0
1590566783.765625,33.04,,,1844465.0
1590566783.78125,45.97,,,1844240.0
1590566783.796875,56.68,,,1844127.0
1590566783.8125,64.96,,,1844020.0
1590566783.828125,70.91,,,1843664.0
1590566783.84375,74.72,,,1843785.0
1590566783.859375,76.61,,,1843867.0
1590566783.875,76.92,,,1844351.0
1590566783.890625,76.2,,,1844745.0
1590566783.90625,75.21,,,1845195.0
1590566783.921875,74.65,,,1846042.0
1590566783.9375,74.83,,,1846188.0
1590566783.953125,75.45,,,1847051.0
1590566783.96875,75.64,,,1847489.0
1590566783.984375,74.26,,,1847604.0
1590566784.0,70.31,,,1846056.0
1590566784.015625,63.25,,,1844433.0
1590566784.03125,53.33,,,1843090.0
1590566784.046875,41.51,,,1842248.0
1590566784.0625,29.42,,,1841211.0
1590566784.078125,19.09,,,1840804.0
1590566784.09375,12.38,,,1840792.0
1590566784.109375,10.38,,,1840740.0
1590566784.125,12.5,,,1840311.0
1590566784.140625,16.19,,,1840446.0
1590566784.15625,17.32,,,1840371.0
1590566784.171875,11.48,,,1840827.0
1590566784.1875,-4.29,,,1841429.0
1590566784.203125,-30.1,,,1841835.0
1590566784.21875,-63.05,,,1842543.0
1590566784.234375,-98.13,,,1843353.0
1590566784.25,-130.16,,,1844256.0
1590566784.265625,-155.44,,,1844848.0
1590566784.28125,-172.67,,,1845668.0
1590566784.296875,-182.56,,,1844877.0
1590566784.3125,-186.94,,,1843054.0
1590566784.328125,-187.58,,,1841152.0
