timestamp,bvp,eda,temp,PPG GREEN
1780134876.640625,-364.58,0.599482,36.49,1997757.0
1780134876.65625,-328.18,0.654563,36.49,2001664.0
1780134876.671875,-293.7,0.616135,36.5,2005464.0
1780134876.6875,-262.83,0.602044,36.5,2009500.0
1780134876.703125,-235.45,0.598201,36.5,2016781.0
1780134876.71875,-210.72,0.616135,36.5,2013312.0
1780134876.734375,-188.08,0.611011,36.47,2020568.0
1780134876.75,-167.59,0.605887,36.47,2025351.0
1780134876.765625,-149.49,0.603325,36.47,2032344.0
1780134876.78125,-133.7,0.604606,36.47,2039703.0
1780134876.796875,-119.57,0.611011,36.49,2046576.0
1780134876.8125,-106.08,0.611011,36.49,2048239.0
1780134876.828125,-92.41,0.60973,36.49,2049747.0
1780134876.84375,-78.28,0.611011,36.49,2053126.0
1780134876.859375,-64.07,0.607168,36.47,2056571.0
1780134876.875,-50.63,0.605887,36.47,2060112.0
1780134876.890625,-38.76,0.605887,36.47,2070942.0
1780134876.90625,-28.83,0.607168,36.47,2064844.0
1780134876.921875,-20.65,0.60973,36.43,2076976.0
1780134876.9375,-13.58,0.60973,36.43,2082421.0
1780134876.953125,-6.75,0.60973,36.43,2088429.0
1780134876.96875,0.52,0.611011,36.43,2093352.0
1780134876.984375,8.53,0.617416,36.45,2097453.0
1780134877.0,17.16,0.607168,36.45,2101805.0
1780134877.015625,25.94,0.607168,36.45,2106136.0
1780134877.03125,34.34,0.612292,36.45,2110773.0
1780134877.046875,41.99,0.608449,36.43,2115411.0
1780134877.0625,48.72,0.607168,36.43,2120122.0
1780134877.078125,54.68,0.607168,36.43,2124619.0
1780134877.09375,60.25,0.604606,36.43,2129860.0
1780134877.109375,65.86,0.604606,36.45,2139589.0
1780134877.125,71.94,0.617416,36.45,2142425.0
1780134877.140625,78.73,0.616135,36.45,2142841.0
1780134877.15625,86.31,0.617416,36.45,2135312.0
1780134877.171875,94.56,0.618697,36.43,2129776.0
1780134877.1875,103.21,0.618697,36.43,2126260.0
1780134877.203125,111.96,0.618697,36.43,2131374.0
1780134877.21875,120.57,0.616135,36.43,2143147.0
1780134877.234375,129.04,0.618697,36.43,2157350.0
1780134877.25,137.67,0.614854,36.43,2176051.0
1780134877.265625,146.96,0.616135,36.43,2195586.0
1780134877.28125,157.61,0.619978,36.43,2211600.0
1780134877.296875,170.12,0.62382,36.41,2221340.0
1780134877.3125,184.69,0.622539,36.41,2226257.0
1780134877.328125,201.13,0.617416,36.41,2226385.0
1780134877.34375,218.89,0.616135,36.41,2224248.0
1780134877.359375,237.31,0.616135,36.41,2221142.0
1780134877.375,255.8,0.616135,36.41,2218809.0
1780134877.390625,274.16,0.619978,36.41,2218323.0
1780134877.40625,292.63,0.619978,36.41,2219082.0
1780134877.421875,312.01,0.617416,36.39,2221894.0
1780134877.4375,333.62,0.614854,36.39,2223836.0
1780134877.453125,358.98,0.618697,36.39,2226077.0
1780134877.46875,389.17,0.617416,36.39,2229547.0
1780134877.484375,423.89,0.616135,36.39,2234944.0
1780134877.5,460.89,0.618697,36.39,2235659.0
1780134877.515625,495.82,0.619978,36.39,2236465.0
1780134877.53125,523.18,0.619978,36.39,2238287.0
1780134877.546875,537.78,0.616135,36.37,2238250.0
1780134877.5625,536.2,0.616135,36.37,2237332.0
1780134877.578125,517.71,0.616135,36.37,2240243.0
1780134877.59375,484.21,0.622539,36.37,2242770.0
1780134877.609375,439.5,0.621258,36.37,2246625.0
1780134877.625,388.09,0.621258,36.37,2251840.0
1780134877.640625,334.45,0.621258,36.37,2255268.0
1780134877.65625,282.33,0.618697,36.37,2258724.0
1780134877.671875,234.6,0.622539,36.37,2261801.0
1780134877.6875,192.98,0.619978,36.37,2263610.0
1780134877.703125,157.89,0.625101,36.37,2264543.0
1780134877.71875,128.5,0.625101,36.37,2265095.0
1780134877.734375,103.23,0.625101,36.34,2265268.0
1780134877.75,80.7,0.625101,36.34,2265958.0
1780134877.765625,60.49,0.622539,36.34,2265263.0
1780134877.78125,43.64,0.621258,36.34,2260945.0
1780134877.796875,32.1,0.619978,36.37,2260934.0
1780134877.8125,27.73,0.621258,36.37,2261712.0
1780134877.828125,31.39,0.62382,36.37,2262697.0
1780134877.84375,42.42,0.626382,36.37,2264370.0
1780134877.859375,58.94,0.626382,36.34,2266951.0
1780134877.875,78.51,0.622539,36.34,2270094.0
1780134877.890625,98.79,0.625101,36.34,2273157.0
1780134877.90625,117.63,0.621258,36.34,2276377.0
1780134877.921875,132.75,0.622539,36.34,2277902.0
1780134877.9375,141.57,0.625101,36.34,2277585.0
1780134877.953125,141.54,0.626382,36.34,2276232.0
1780134877.96875,131.43,0.625101,36.34,2275606.0
1780134877.984375,112.16,0.621258,36.34,2273937.0
1780134878.0,87.11,0.619978,36.34,2276585.0
1780134878.015625,60.82,0.619978,36.34,2274518.0
1780134878.03125,37.04,0.625101,36.34,2272318.0
1780134878.046875,17.11,0.625101,36.33,2270756.0
1780134878.0625,-0.19,0.625101,36.33,2269318.0
1780134878.078125,-17.33,0.626382,36.33,2268204.0
1780134878.09375,-36.03,0.626382,36.33,2266742.0
1780134878.109375,-55.93,0.622539,36.31,2267868.0
1780134878.125,-74.7,0.622539,36.31,2271844.0
1780134878.140625,-89.56,0.627663,36.31,2273852.0
1780134878.15625,-98.85,0.625101,36.31,2274953.0
1780134878.171875,-102.91,0.622539,36.31,2278022.0
1780134878.1875,-103.54,0.622539,36.31,2284315.0
1780134878.203125,-102.72,0.622539,36.31,2293676.0
1780134878.21875,-101.53,0.617416,36.31,2298382.0
1780134878.234375,-99.91,0.616135,36.33,2301970.0
1780134878.25,-97.21,0.616135,36.33,2289647.0
1780134878.265625,-93.12,0.619978,36.33,2305930.0
1780134878.28125,-88.15,0.619978,36.33,2309424.0
1780134878.296875,-83.5,0.619978,36.31,2312777.0
1780134878.3125,-80.54,0.619978,36.31,2319254.0
1780134878.328125,-80.12,0.616135,36.31,2316301.0
1780134878.34375,-82.23,0.614854,36.31,2322371.0
1780134878.359375,-86.03,0.613573,36.31,2328971.0
1780134878.375,-90.16,0.614854,36.31,2326732.0
1780134878.390625,-93.27,0.617416,36.31,2330962.0
1780134878.40625,-94.41,0.617416,36.31,2334032.0
1780134878.421875,-93.35,0.619978,36.29,2335718.0
1780134878.4375,-90.62,0.616135,36.29,2336685.0
1780134878.453125,-87.43,0.614854,36.29,2337214.0
1780134878.46875,-85.36,0.613573,36.29,2338551.0
1780134878.484375,-85.84,0.614854,36.29,2340581.0
1780134878.5,-89.64,0.617416,36.29,2324528.0
1780134878.515625,-96.38,0.618697,36.29,2343991.0
1780134878.53125,-104.4,0.62382,36.29,2345209.0
1780134878.546875,-111.1,0.616135,36.27,2346069.0
1780134878.5625,-113.55,0.616135,36.27,2342542.0
1780134878.578125,-109.31,0.616135,36.27,2346480.0
1780134878.59375,-97.01,0.614854,36.27,2346784.0
1780134878.609375,-76.67,0.618697,36.29,2346372.0
1780134878.625,-49.47,0.619978,36.29,2346625.0
1780134878.640625,-17.46,0.619978,36.29,2347260.0
1780134878.65625,16.95,0.619978,36.29,2349728.0
1780134878.671875,51.34,0.616135,36.25,2348880.0
1780134878.6875,83.53,0.614854,36.25,2349370.0
1780134878.703125,111.78,0.619978,36.25,2350232.0
1780134878.71875,134.88,0.619978,36.25,2347673.0
1780134878.734375,152.13,0.625101,36.25,2347034.0
1780134878.75,163.22,0.621258,36.25,2348073.0
1780134878.765625,168.3,0.617416,36.25,2346737.0
1780134878.78125,167.91,0.619978,36.25,2349087.0
1780134878.796875,163.04,0.616135,36.23,2349896.0
1780134878.8125,155.18,0.614854,36.23,2350493.0
1780134878.828125,146.11,0.619978,36.23,2347606.0
1780134878.84375,137.56,0.618697,36.23,2350803.0
1780134878.859375,130.66,0.619978,36.25,2353278.0
1780134878.875,125.68,0.617416,36.25,2353939.0
1780134878.890625,121.94,0.616135,36.25,2354931.0
1780134878.90625,118.33,0.619978,36.25,2356452.0
1780134878.921875,113.9,0.621258,36.25,2357313.0
1780134878.9375,108.31,0.621258,36.25,2351553.0
1780134878.953125,101.95,0.621258,36.25,2357951.0
1780134878.96875,95.49,0.619978,36.25,2357624.0
1780134878.984375,89.36,0.619978,36.25,2357790.0
1780134879.0,83.34,0.616135,36.25,2358544.0
1780134879.015625,76.61,0.619978,36.25,2359359.0
1780134879.03125,68.26,0.614854,36.25,2361000.0
1780134879.046875,57.77,0.618697,36.23,2363985.0
1780134879.0625,45.38,0.619978,36.23,2362448.0
1780134879.078125,32.03,0.617416,36.23,2365280.0
1780134879.09375,18.92,0.618697,36.23,2357745.0
1780134879.109375,7.04,0.616135,36.23,2366048.0
1780134879.125,-3.19,0.616135,36.23,2367102.0
1780134879.140625,-11.94,0.621258,36.23,2368463.0
1780134879.15625,-19.81,0.619978,36.23,2370761.0
1780134879.171875,-27.47,0.632787,36.23,2371761.0
1780134879.1875,-35.53,0.630225,36.23,2372952.0
1780134879.203125,-44.26,0.632787,36.23,2373319.0
1780134879.21875,-53.6,0.628944,36.23,2371147.0
1780134879.234375,-63.01,0.630225,36.21,2369321.0
1780134879.25,-71.66,0.632787,36.21,2364488.0
1780134879.265625,-78.56,0.631506,36.21,2349412.0
1780134879.28125,-82.91,0.635349,36.21,2333325.0
1780134879.296875,-84.35,0.63663,36.18,2332726.0
1780134879.3125,-83.04,0.634068,36.18,2331622.0
1780134879.328125,-79.56,0.634068,36.18,2328563.0
1780134879.34375,-74.58,0.628944,36.18,2326808.0
1780134879.359375,-68.79,0.627663,36.18,2328705.0
1780134879.375,-62.7,0.628944,36.18,2332255.0
1780134879.390625,-56.84,0.631506,36.18,2337912.0
1780134879.40625,-51.77,0.631506,36.18,2344957.0
1780134879.421875,-48.08,0.631506,36.18,2351090.0
1780134879.4375,-46.2,0.627663,36.18,2355398.0
1780134879.453125,-46.17,0.62382,36.18,2357896.0
1780134879.46875,-47.61,0.627663,36.18,2360364.0
1780134879.484375,-49.77,0.625101,36.18,2362871.0
1780134879.5,-51.82,0.628944,36.18,2365825.0
1780134879.515625,-53.04,0.628944,36.18,2368293.0
1780134879.53125,-53.07,0.630225,36.18,2371408.0
1780134879.546875,-51.89,0.626382,36.16,2375146.0
1780134879.5625,-49.74,0.625101,36.16,2378592.0
1780134879.578125,-47.01,0.625101,36.16,2382100.0
1780134879.59375,-44.03,0.626382,36.16,2385181.0
1780134879.609375,-41.07,0.630225,36.16,2388789.0
1780134879.625,-38.14,0.631506,36.16,2392349.0
1780134879.640625,-35.17,0.631506,36.16,2395994.0
1780134879.65625,-32.06,0.631506,36.16,2400338.0
1780134879.671875,-28.94,0.628944,36.15,2404583.0
1780134879.6875,-26.17,0.627663,36.15,2408354.0
1780134879.703125,-24.2,0.631506,36.15,2412020.0
1780134879.71875,-23.26,0.627663,36.15,2415649.0
1780134879.734375,-23.2,0.628944,36.16,2418953.0
1780134879.75,-23.48,0.631506,36.16,2421675.0
1780134879.765625,-23.52,0.631506,36.16,2424127.0
1780134879.78125,-23.1,0.631506,36.16,2426712.0
1780134879.796875,-22.51,0.631506,36.15,2432280.0
1780134879.8125,-22.58,0.626382,36.15,2429519.0
1780134879.828125,-24.22,0.625101,36.15,2434823.0
1780134879.84375,-27.98,0.630225,36.15,2438380.0
1780134879.859375,-33.72,0.630225,36.15,2441696.0
1780134879.875,-40.55,0.628944,36.15,2444363.0
1780134879.890625,-46.98,0.627663,36.15,2446948.0
1780134879.90625,-51.29,0.625101,36.15,2449333.0
1780134879.921875,-52.0,0.625101,36.15,2451095.0
1780134879.9375,-48.25,0.625101,36.15,2453039.0
1780134879.953125,-40.08,0.625101,36.15,2454900.0
1780134879.96875,-28.45,0.625101,36.15,2459295.0
1780134879.984375,-15.07,0.628944,36.13,2462569.0
1780134880.0,-1.97,0.628944,36.13,2456766.0
1780134880.015625,9.03,0.628944,36.13,2462536.0
1780134880.03125,16.77,0.626382,36.13,2461547.0
1780134880.046875,21.21,0.626382,36.13,2462947.0
1780134880.0625,23.33,0.625101,36.13,2463935.0
1780134880.078125,24.98,0.626382,36.13,2464697.0
1780134880.09375,28.19,0.628944,36.13,2466424.0
1780134880.109375,34.49,0.628944,36.13,2467785.0
1780134880.125,44.34,0.630225,36.13,2469200.0
1780134880.140625,56.82,0.628944,36.13,2470981.0
1780134880.15625,69.94,0.634068,36.13,2472563.0
1780134880.171875,81.26,0.632787,36.13,2473713.0
1780134880.1875,88.67,0.639192,36.13,2475320.0
1780134880.203125,90.87,0.648158,36.13,2476990.0
1780134880.21875,87.64,0.648158,36.13,2478768.0
1780134880.234375,79.65,0.646877,36.13,2480395.0
1780134880.25,68.1,0.641754,36.13,2482156.0
1780134880.265625,54.42,0.637911,36.13,2484238.0
1780134880.28125,39.91,0.637911,36.13,2484748.0
1780134880.296875,25.58,0.643035,36.13,2484992.0
1780134880.3125,12.03,0.644315,36.13,2484714.0
1780134880.328125,-0.63,0.643035,36.13,2485205.0
1780134880.34375,-12.59,0.644315,36.13,2486644.0
1780134880.359375,-24.1,0.644315,36.09,2488718.0
1780134880.375,-35.07,0.639192,36.09,2490148.0
1780134880.390625,-45.18,0.637911,36.09,2492116.0
1780134880.40625,-53.84,0.641754,36.09,2493684.0
1780134880.421875,-60.7,0.637911,36.09,2495277.0
1780134880.4375,-65.75,0.639192,36.09,2496363.0
1780134880.453125,-69.39,0.640473,36.09,2498292.0
1780134880.46875,-72.15,0.640473,36.09,2500196.0
1780134880.484375,-74.43,0.63663,36.11,2502264.0
1780134880.5,-76.38,0.63663,36.11,2504064.0
1780134880.515625,-77.97,0.639192,36.11,2506071.0
1780134880.53125,-79.18,0.63663,36.11,2507585.0
1780134880.546875,-80.06,0.640473,36.09,2508234.0
1780134880.5625,-80.69,0.643035,36.09,2507240.0
1780134880.578125,-80.89,0.648158,36.09,2506911.0
1780134880.59375,-80.05,0.649439,36.09,2507249.0
1780134880.609375,-77.16,0.655844,36.11,2508174.0
1780134880.625,-71.12,0.657125,36.11,2509465.0
1780134880.640625,-61.25,0.658406,36.11,2510852.0
1780134880.65625,-47.63,0.664811,36.11,2512386.0
1780134880.671875,-31.28,0.664811,36.07,2513259.0
1780134880.6875,-13.89,0.66353,36.07,2513658.0
1780134880.703125,2.63,0.659687,36.07,2514481.0
1780134880.71875,16.65,0.657125,36.07,2514269.0
1780134880.734375,27.23,0.658406,36.07,2515369.0
1780134880.75,34.14,0.65072,36.07,2515858.0
1780134880.765625,37.74,0.652001,36.07,2517366.0
1780134880.78125,38.7,0.649439,36.07,2518490.0
1780134880.796875,37.74,0.649439,36.07,2520265.0
1780134880.8125,35.43,0.649439,36.07,2520418.0
1780134880.828125,32.24,0.644315,36.07,2519731.0
1780134880.84375,28.59,0.644315,36.07,2518310.0
1780134880.859375,24.9,0.643035,36.05,2517958.0
1780134880.875,21.64,0.644315,36.05,2517873.0
1780134880.890625,19.19,0.645596,36.05,2517900.0
1780134880.90625,17.78,0.646877,36.05,2518906.0
1780134880.921875,17.39,0.648158,36.07,2518412.0
1780134880.9375,17.74,0.644315,36.07,2518529.0
1780134880.953125,18.47,0.643035,36.07,2519800.0
1780134880.96875,19.24,0.641754,36.07,2516667.0
1780134880.984375,19.8,0.643035,36.07,2498669.0
1780134881.0,20.04,0.646877,36.07,2479953.0
1780134881.015625,19.89,0.645596,36.07,2470723.0
1780134881.03125,19.32,0.645596,36.07,2465811.0
1780134881.046875,18.24,0.648158,36.07,2462842.0
1780134881.0625,16.58,0.641754,36.07,2461539.0
1780134881.078125,14.3,0.641754,36.07,2459038.0
1780134881.09375,11.48,0.641754,36.07,2460064.0
1780134881.109375,8.22,0.643035,36.05,2456126.0
1780134881.125,4.64,0.645596,36.05,2455826.0
1780134881.140625,0.72,0.645596,36.05,2454315.0
1780134881.15625,-3.65,0.645596,36.05,2458414.0
1780134881.171875,-8.69,0.643035,36.05,2463220.0
1780134881.1875,-14.39,0.639192,36.05,2467687.0
1780134881.203125,-20.48,0.640473,36.05,2471944.0
1780134881.21875,-26.17,0.645596,36.05,2475271.0
1780134881.234375,-30.24,0.646877,36.03,2477784.0
1780134881.25,-31.41,0.645596,36.03,2478283.0
1780134881.265625,-28.69,0.645596,36.03,2478798.0
1780134881.28125,-21.83,0.645596,36.03,2479797.0
1780134881.296875,-11.41,0.641754,36.05,2481142.0
1780134881.3125,1.2,0.641754,36.05,2482146.0
1780134881.328125,14.26,0.641754,36.05,2481256.0
1780134881.34375,26.18,0.643035,36.05,2479662.0
1780134881.359375,35.82,0.646877,36.05,2477528.0
1780134881.375,42.76,0.646877,36.05,2476690.0
1780134881.390625,47.13,0.646877,36.05,2475860.0
1780134881.40625,49.46,0.643035,36.05,2476665.0
1780134881.421875,50.34,0.643035,36.05,2477579.0
1780134881.4375,50.33,0.643035,36.05,2478740.0
1780134881.453125,49.76,0.648158,36.05,2479721.0
1780134881.46875,48.79,0.646877,36.05,2480692.0
1780134881.484375,47.44,0.646877,36.05,2481111.0
1780134881.5,45.6,0.646877,36.05,2482499.0
1780134881.515625,43.17,0.65072,36.05,2483312.0
1780134881.53125,40.13,0.644315,36.05,2485158.0
1780134881.546875,36.64,0.643035,36.03,2485294.0
1780134881.5625,32.95,0.641754,36.03,2484164.0
1780134881.578125,29.38,0.643035,36.03,2481666.0
1780134881.59375,26.12,0.645596,36.03,2479423.0
1780134881.609375,23.19,0.646877,36.03,2477417.0
1780134881.625,20.39,0.646877,36.03,2475169.0
1780134881.640625,17.45,0.648158,36.03,2474194.0
1780134881.65625,14.14,0.643035,36.03,2473118.0
1780134881.671875,10.31,0.646877,36.03,2472519.0
1780134881.6875,5.95,0.643035,36.03,2471568.0
1780134881.703125,1.01,0.644315,36.03,2470643.0
1780134881.71875,-4.55,0.648158,36.03,2470679.0
1780134881.734375,-10.77,0.648158,35.99,2471099.0
1780134881.75,-17.6,0.646877,35.99,2471105.0
1780134881.765625,-24.87,0.643035,35.99,2471436.0
1780134881.78125,-32.36,0.643035,35.99,2470393.0
1780134881.796875,-39.82,0.646877,36.0,2466918.0
1780134881.8125,-46.93,0.645596,36.0,2460836.0
1780134881.828125,-53.29,0.648158,36.0,2463599.0
1780134881.84375,-58.29,0.648158,36.0,2459234.0
1780134881.859375,-61.17,0.648158,36.0,2458277.0
1780134881.875,-61.2,0.644315,36.0,2458107.0
1780134881.890625,-58.0,0.644315,36.0,2458387.0
1780134881.90625,-51.78,0.644315,36.0,2458715.0
1780134881.921875,-43.38,0.649439,35.99,2458806.0
1780134881.9375,-34.04,0.649439,35.99,2459265.0
1780134881.953125,-24.95,0.649439,35.99,2459558.0
1780134881.96875,-16.86,0.652001,35.99,2459918.0
1780134881.984375,-10.01,0.653282,36.0,2460869.0
1780134882.0,-4.14,0.657125,36.0,2461601.0
1780134882.015625,1.09,0.660968,36.0,2461915.0
1780134882.03125,5.82,0.66353,36.0,2460250.0
1780134882.046875,9.93,0.668653,35.99,2456497.0
1780134882.0625,13.05,0.671215,35.99,2453277.0
1780134882.078125,14.76,0.671215,35.99,2450833.0
1780134882.09375,14.78,0.669934,35.99,2448898.0
1780134882.109375,13.07,0.668653,36.0,2448004.0
1780134882.125,9.89,0.666092,36.0,2448005.0
1780134882.140625,5.74,0.664811,36.0,2447620.0
1780134882.15625,1.28,0.667373,36.0,2447278.0
1780134882.171875,-2.91,0.666092,35.99,2447712.0
1780134882.1875,-6.41,0.664811,35.99,2447481.0
1780134882.203125,-9.12,0.664811,35.99,2447238.0
1780134882.21875,-11.3,0.660968,35.99,2447250.0
1780134882.234375,-13.45,0.659687,35.99,2447485.0
1780134882.25,-16.07,0.658406,35.99,2447512.0
1780134882.265625,-19.54,0.664811,35.99,2447496.0
1780134882.28125,-23.92,0.66353,35.99,2445230.0
1780134882.296875,-28.97,0.66353,35.99,2441403.0
1780134882.3125,-34.21,0.66353,35.99,2438474.0
1780134882.328125,-39.1,0.667373,35.99,2436206.0
1780134882.34375,-43.22,0.660968,35.99,2434733.0
1780134882.359375,-46.43,0.659687,35.99,2434770.0
1780134882.375,-48.93,0.659687,35.99,2434731.0
1780134882.390625,-51.13,0.659687,35.99,2435445.0
1780134882.40625,-53.5,0.664811,35.99,2435764.0
1780134882.421875,-56.5,0.664811,35.97,2436461.0
1780134882.4375,-60.42,0.666092,35.97,2436784.0
1780134882.453125,-65.36,0.667373,35.97,2439754.0
1780134882.46875,-71.21,0.667373,35.97,2438250.0
1780134882.484375,-77.48,0.667373,35.97,2444210.0
1780134882.5,-83.21,0.660968,35.97,2441876.0
1780134882.515625,-86.96,0.664811,35.97,2443079.0
1780134882.53125,-87.01,0.666092,35.97,2438056.0
1780134882.546875,-81.89,0.664811,35.99,2433386.0
1780134882.5625,-70.93,0.662249,35.99,2429598.0
1780134882.578125,-54.73,0.662249,35.99,2426962.0
1780134882.59375,-35.03,0.664811,35.99,2424987.0
1780134882.609375,-14.29,0.668653,35.99,2425057.0
1780134882.625,5.03,0.675058,35.99,2425659.0
1780134882.640625,21.02,0.524173,35.99,2426173.0
1780134882.65625,32.71,0.507521,35.99,2426552.0
1780134882.671875,39.94,0.507521,35.95,2426100.0
1780134882.6875,43.15,0.503678,35.95,2425517.0
1780134882.703125,43.17,0.50624,35.95,2424947.0
1780134882.71875,41.02,0.503678,35.95,2425639.0
1780134882.734375,37.84,0.50624,35.97,2425930.0
1780134882.75,34.72,0.50624,35.97,2425664.0
1780134882.765625,32.44,0.50624,35.97,2423326.0
1780134882.78125,31.17,0.503678,35.97,2420486.0
1780134882.796875,30.29,0.497274,35.97,2418110.0
1780134882.8125,28.44,0.495993,35.97,2416352.0
1780134882.828125,24.07,0.494712,35.97,2416379.0
1780134882.84375,16.18,0.498555,35.97,2417314.0
1780134882.859375,5.26,0.503678,35.93,2417914.0
1780134882.875,-6.34,0.501116,35.93,2421302.0
1780134882.890625,-14.94,0.501116,35.93,2419776.0
1780134882.90625,-16.72,0.501116,35.93,2420565.0
1780134882.921875,-9.46,0.502397,35.97,2422388.0
1780134882.9375,6.51,0.494712,35.97,2423398.0
1780134882.953125,28.12,0.493431,35.97,2427097.0
1780134882.96875,50.79,0.49215,35.97,2425066.0
1780134882.984375,70.2,0.499835,35.95,2428319.0
1780134883.0,83.69,0.499835,35.95,2428331.0
1780134883.015625,90.88,0.501116,35.95,2426277.0
1780134883.03125,92.92,0.498555,35.95,2423175.0
1780134883.046875,91.41,0.495993,35.93,2424526.0
1780134883.0625,87.28,0.497274,35.93,2422564.0
1780134883.078125,80.49,0.502397,35.93,2422763.0
1780134883.09375,70.52,0.504959,35.93,2423484.0
1780134883.109375,57.14,0.50624,35.93,2424454.0
1780134883.125,41.07,0.504959,35.93,2425062.0
1780134883.140625,24.02,0.502397,35.93,2426579.0
1780134883.15625,8.17,0.503678,35.93,2425960.0
1780134883.171875,-4.61,0.498555,35.93,2428014.0
1780134883.1875,-13.25,0.498555,35.93,2426988.0
1780134883.203125,-17.66,0.497274,35.93,2430258.0
1780134883.21875,-18.36,0.498555,35.93,2428819.0
1780134883.234375,-16.03,0.501116,35.95,2430369.0
1780134883.25,-11.28,0.502397,35.95,2426340.0
1780134883.265625,-4.49,0.503678,35.95,2428731.0
1780134883.28125,3.84,0.503678,35.95,2424502.0
1780134883.296875,13.0,0.498555,35.91,2423570.0
1780134883.3125,22.01,0.498555,35.91,2423292.0
1780134883.328125,29.81,0.497274,35.91,2423607.0
1780134883.34375,35.62,0.497274,35.91,2424170.0
1780134883.359375,39.06,0.501116,35.91,2425141.0
1780134883.375,40.25,0.503678,35.91,2425390.0
1780134883.390625,39.61,0.503678,35.91,2425779.0
1780134883.40625,37.75,0.503678,35.91,2426522.0
1780134883.421875,35.2,0.498555,35.93,2427246.0
1780134883.4375,32.33,0.498555,35.93,2427867.0
1780134883.453125,29.32,0.498555,35.93,2428673.0
1780134883.46875,26.09,0.503678,35.93,2428680.0
1780134883.484375,22.5,0.50624,35.91,2426451.0
1780134883.5,18.46,0.502397,35.91,2424218.0
1780134883.515625,14.09,0.507521,35.91,2422299.0
1780134883.53125,9.78,0.504959,35.91,2421587.0
1780134883.546875,6.07,0.501116,35.91,2421278.0
1780134883.5625,3.36,0.501116,35.91,2421734.0
1780134883.578125,1.75,0.501116,35.91,2422856.0
1780134883.59375,0.98,0.50624,35.91,2424134.0
1780134883.609375,0.59,0.511364,35.91,2425320.0
1780134883.625,0.16,0.511364,35.91,2426322.0
1780134883.640625,-0.57,0.510083,35.91,2427408.0
1780134883.65625,-1.55,0.511364,35.91,2428945.0
1780134883.671875,-2.61,0.50624,35.89,2431002.0
1780134883.6875,-3.56,0.507521,35.89,2432181.0
1780134883.703125,-4.32,0.503678,35.89,2433839.0
1780134883.71875,-4.9,0.508802,35.89,2432590.0
1780134883.734375,-5.41,0.511364,35.91,2431404.0
1780134883.75,-6.02,0.510083,35.91,2430240.0
1780134883.765625,-6.99,0.511364,35.91,2429687.0
1780134883.78125,-8.7,0.516488,35.91,2429900.0
1780134883.796875,-11.56,0.517769,35.89,2430700.0
1780134883.8125,-15.8,0.517769,35.89,2432162.0
1780134883.828125,-21.19,0.525454,35.89,2432998.0
1780134883.84375,-26.83,0.524173,35.89,2434139.0
1780134883.859375,-31.16,0.530578,35.91,2435720.0
1780134883.875,-32.49,0.525454,35.91,2436769.0
1780134883.890625,-29.52,0.525454,35.91,2438629.0
1780134883.90625,-21.95,0.521612,35.91,2439946.0
1780134883.921875,-10.61,0.517769,35.89,2441482.0
1780134883.9375,2.83,0.516488,35.89,2442854.0
1780134883.953125,16.35,0.522892,35.89,2443583.0
1780134883.96875,28.33,0.520331,35.89,2442366.0
1780134883.984375,37.85,0.520331,35.91,2440054.0
1780134884.0,44.66,0.520331,35.91,2438083.0
1780134884.015625,48.96,0.517769,35.91,2437198.0
1780134884.03125,50.95,0.516488,35.91,2437172.0
1780134884.046875,50.72,0.513926,35.89,2437637.0
1780134884.0625,48.22,0.513926,35.89,2438440.0
1780134884.078125,43.45,0.520331,35.89,2439323.0
1780134884.09375,36.71,0.51905,35.89,2440401.0
1780134884.109375,28.59,0.51905,35.91,2441844.0
1780134884.125,19.92,0.521612,35.91,2442680.0
1780134884.140625,11.6,0.516488,35.91,2443710.0
1780134884.15625,4.38,0.512645,35.91,2445304.0
1780134884.171875,-1.32,0.51905,35.87,2446405.0
1780134884.1875,-5.38,0.513926,35.87,2447072.0
1780134884.203125,-7.93,0.517769,35.87,2447312.0
1780134884.21875,-9.25,0.520331,35.87,2445529.0
1780134884.234375,-9.65,0.521612,35.89,2443139.0
1780134884.25,-9.47,0.520331,35.89,2441045.0
1780134884.265625,-9.17,0.51905,35.89,2439770.0
1780134884.28125,-9.2,0.517769,35.89,2439691.0
1780134884.296875,-9.98,0.517769,35.89,2441040.0
1780134884.3125,-11.71,0.51905,35.89,2440091.0
1780134884.328125,-14.3,0.525454,35.89,2441464.0
1780134884.34375,-17.39,0.522892,35.89,2442416.0
1780134884.359375,-20.47,0.524173,35.89,2442959.0
1780134884.375,-23.19,0.524173,35.89,2445338.0
1780134884.390625,-25.59,0.521612,35.89,2439613.0
1780134884.40625,-28.12,0.51905,35.89,2450998.0
1780134884.421875,-31.4,0.51905,35.89,2413605.0
1780134884.4375,-35.87,0.51905,35.89,2390985.0
1780134884.453125,-41.56,0.528016,35.89,2358366.0
1780134884.46875,-47.81,0.526735,35.89,2304145.0
1780134884.484375,-53.52,0.530578,35.89,2286167.0
1780134884.5,-57.35,0.534421,35.89,2273636.0
1780134884.515625,-58.07,0.535702,35.89,2262758.0
1780134884.53125,-54.93,0.530578,35.89,2264294.0
1780134884.546875,-47.75,0.531859,35.87,2273616.0
1780134884.5625,-37.07,0.531859,35.87,2274053.0
1780134884.578125,-24.07,0.536983,35.87,2273348.0
1780134884.59375,-10.37,0.534421,35.87,2271663.0
1780134884.609375,2.4,0.53314,35.87,2265056.0
1780134884.625,12.91,0.53314,35.87,2258141.0
1780134884.640625,20.45,0.529297,35.87,2254144.0
1780134884.65625,25.04,0.53314,35.87,2248162.0
1780134884.671875,27.23,0.529297,35.89,2239346.0
1780134884.6875,27.75,0.525454,35.89,2241041.0
1780134884.703125,27.14,0.528016,35.89,2245624.0
1780134884.71875,25.59,0.531859,35.89,2258901.0
1780134884.734375,23.0,0.531859,35.84,2263413.0
1780134884.75,19.32,0.531859,35.84,2270780.0
1780134884.765625,14.68,0.531859,35.84,2275338.0
1780134884.78125,9.48,0.528016,35.84,2253220.0
1780134884.796875,4.31,0.528016,35.87,2273902.0
1780134884.8125,-0.34,0.528016,35.87,2267365.0
1780134884.828125,-4.24,0.531859,35.87,2261381.0
1780134884.84375,-7.47,0.534421,35.87,2258262.0
1780134884.859375,-10.25,0.53314,35.84,2257205.0
1780134884.875,-12.82,0.535702,35.84,2262513.0
1780134884.890625,-15.27,0.534421,35.84,2271271.0
1780134884.90625,-17.61,0.531859,35.84,2276954.0
1780134884.921875,-19.78,0.530578,35.84,2281780.0
1780134884.9375,-21.8,0.53314,35.84,2273606.0
1780134884.953125,-23.75,0.536983,35.84,2231148.0
1780134884.96875,-25.75,0.539545,35.84,2206247.0
1780134884.984375,-27.95,0.539545,35.84,2194329.0
1780134885.0,-30.34,0.538264,35.84,2184548.0
1780134885.015625,-32.85,0.534421,35.84,2177221.0
1780134885.03125,-35.31,0.536983,35.84,2173046.0
1780134885.046875,-37.6,0.538264,35.84,2178763.0
1780134885.0625,-39.61,0.534421,35.84,2198285.0
1780134885.078125,-41.38,0.539545,35.84,2210821.0
1780134885.09375,-43.05,0.536983,35.84,2174096.0
1780134885.109375,-44.95,0.538264,35.83,2217231.0
1780134885.125,-47.42,0.539545,35.83,2222689.0
1780134885.140625,-50.65,0.534421,35.83,2222156.0
1780134885.15625,-54.41,0.534421,35.83,2220694.0
1780134885.171875,-57.79,0.538264,35.84,2218062.0
1780134885.1875,-59.4,0.535702,35.84,2214196.0
1780134885.203125,-57.62,0.544669,35.84,2207889.0
1780134885.21875,-51.28,0.539545,35.84,2203136.0
1780134885.234375,-40.15,0.542107,35.83,2199958.0
1780134885.25,-25.21,0.539545,35.83,2202669.0
1780134885.265625,-8.34,0.534421,35.83,2209557.0
1780134885.28125,8.16,0.538264,35.83,2215289.0
1780134885.296875,22.26,0.53314,35.84,2210468.0
1780134885.3125,32.64,0.534421,35.84,2217064.0
1780134885.328125,38.63,0.536983,35.84,2201252.0
1780134885.34375,40.22,0.540826,35.84,2192046.0
1780134885.359375,37.85,0.540826,35.83,2194296.0
1780134885.375,32.51,0.535702,35.83,2200550.0
1780134885.390625,25.88,0.53314,35.83,2210843.0
1780134885.40625,20.07,0.534421,35.83,2223216.0
1780134885.421875,17.22,0.53314,35.84,2231846.0
1780134885.4375,18.74,0.53314,35.84,2238035.0
1780134885.453125,24.73,0.534421,35.84,2235176.0
1780134885.46875,33.93,0.539545,35.84,2238271.0
1780134885.484375,44.18,0.540826,35.83,2217165.0
1780134885.5,53.3,0.539545,35.83,2199475.0
1780134885.515625,59.79,0.540826,35.83,2195323.0
1780134885.53125,63.25,0.544669,35.83,2188901.0
1780134885.546875,64.03,0.534421,35.81,2186757.0
1780134885.5625,62.89,0.53314,35.81,2188504.0
1780134885.578125,60.47,0.53314,35.81,2196570.0
1780134885.59375,57.1,0.535702,35.81,2207739.0
1780134885.609375,52.82,0.540826,35.81,2213783.0
1780134885.625,47.59,0.539545,35.81,2214691.0
1780134885.640625,41.41,0.536983,35.81,2213623.0
1780134885.65625,34.37,0.538264,35.81,2213081.0
1780134885.671875,26.7,0.536983,35.83,2210670.0
1780134885.6875,18.71,0.53314,35.83,2204158.0
1780134885.703125,10.74,0.531859,35.83,2198878.0
1780134885.71875,3.02,0.535702,35.83,2193767.0
1780134885.734375,-4.37,0.538264,35.81,2191247.0
1780134885.75,-11.46,0.539545,35.81,2190083.0
1780134885.765625,-18.33,0.539545,35.81,2194085.0
1780134885.78125,-24.95,0.538264,35.81,2201504.0
1780134885.796875,-31.26,0.53314,35.83,2206558.0
1780134885.8125,-37.1,0.530578,35.83,2209748.0
1780134885.828125,-42.48,0.531859,35.83,2206853.0
1780134885.84375,-47.48,0.534421,35.83,2178504.0
1780134885.859375,-52.2,0.536983,35.83,2141821.0
1780134885.875,-56.48,0.539545,35.83,2117903.0
1780134885.890625,-59.64,0.538264,35.83,2103303.0
1780134885.90625,-60.51,0.538264,35.83,2095544.0
1780134885.921875,-57.78,0.534421,35.83,2108945.0
1780134885.9375,-50.62,0.535702,35.83,2095704.0
1780134885.953125,-39.11,0.534421,35.83,2135348.0
1780134885.96875,-24.42,0.534421,35.83,2159740.0
1780134885.984375,-8.48,0.542107,35.81,2171910.0
1780134886.0,6.67,0.538264,35.81,2195872.0
1780134886.015625,19.48,0.538264,35.81,2183434.0
1780134886.03125,29.29,0.539545,35.81,2204071.0
1780134886.046875,36.24,0.534421,35.79,2207045.0
1780134886.0625,40.88,0.534421,35.79,2203354.0
1780134886.078125,43.77,0.535702,35.79,2196473.0
1780134886.09375,45.1,0.543388,35.79,2183430.0
1780134886.109375,44.8,0.539545,35.81,2167286.0
1780134886.125,42.75,0.539545,35.81,2149934.0
1780134886.140625,39.08,0.536983,35.81,2140646.0
1780134886.15625,34.28,0.539545,35.81,2209022.0
1780134886.171875,29.17,0.535702,35.81,2144793.0
1780134886.1875,24.47,0.534421,35.81,2158166.0
1780134886.203125,20.62,0.53314,35.81,2183850.0
1780134886.21875,17.68,0.535702,35.81,2172451.0
1780134886.234375,15.4,0.540826,35.81,2180838.0
1780134886.25,13.5,0.540826,35.81,2169336.0
1780134886.265625,11.83,0.538264,35.81,2154425.0
1780134886.28125,10.42,0.540826,35.81,2180826.0
1780134886.296875,9.3,0.535702,35.77,2149479.0
1780134886.3125,8.38,0.536983,35.77,2143743.0
1780134886.328125,7.31,0.539545,35.77,2135095.0
1780134886.34375,5.55,0.538264,35.77,2122900.0
1780134886.359375,2.66,0.543388,35.81,2110874.0
1780134886.375,-1.55,0.542107,35.81,2102260.0
1780134886.390625,-6.86,0.543388,35.81,2098722.0
1780134886.40625,-12.65,0.542107,35.81,2100537.0
1780134886.421875,-18.16,0.538264,35.77,2102495.0
1780134886.4375,-22.68,0.536983,35.77,2105642.0
1780134886.453125,-25.87,0.536983,35.77,2105450.0
1780134886.46875,-27.83,0.538264,35.77,2103992.0
1780134886.484375,-29.05,0.539545,35.81,2108936.0
1780134886.5,-30.23,0.542107,35.81,2107058.0
1780134886.515625,-31.97,0.543388,35.81,2111479.0
1780134886.53125,-34.58,0.544669,35.81,2113606.0
1780134886.546875,-37.92,0.543388,35.79,2113960.0
1780134886.5625,-41.41,0.542107,35.79,2114849.0
1780134886.578125,-44.06,0.54723,35.79,2114515.0
1780134886.59375,-44.72,0.548511,35.79,2111912.0
1780134886.609375,-42.31,0.552354,35.79,2110022.0
1780134886.625,-36.16,0.551073,35.79,2108344.0
1780134886.640625,-26.31,0.551073,35.79,2107326.0
1780134886.65625,-13.6,0.54723,35.79,2106887.0
1780134886.671875,0.49,0.54723,35.79,2107846.0
1780134886.6875,14.17,0.543388,35.79,2108908.0
1780134886.703125,25.87,0.544669,35.79,2112090.0
1780134886.71875,34.67,0.543388,35.79,2113349.0
1780134886.734375,40.32,0.544669,35.77,2114739.0
1780134886.75,43.21,0.549792,35.77,2117413.0
1780134886.765625,43.95,0.549792,35.77,2119055.0
1780134886.78125,43.02,0.549792,35.77,2119268.0
1780134886.796875,40.76,0.549792,35.79,2110409.0
1780134886.8125,37.37,0.543388,35.79,2119194.0
1780134886.828125,33.13,0.54723,35.79,2119194.0
1780134886.84375,28.5,0.54723,35.79,2119748.0
1780134886.859375,24.06,0.551073,35.75,2120470.0
1780134886.875,20.34,0.548511,35.75,2121814.0
1780134886.890625,17.69,0.548511,35.75,2123468.0
1780134886.90625,16.15,0.548511,35.75,2125466.0
1780134886.921875,15.52,0.543388,35.77,2126905.0
1780134886.9375,15.46,0.543388,35.77,2128706.0
1780134886.953125,15.77,0.542107,35.77,2130876.0
1780134886.96875,16.28,0.54723,35.77,2132984.0
1780134886.984375,16.96,0.54723,35.75,2135275.0
1780134887.0,17.68,0.551073,35.75,2137317.0
1780134887.015625,18.2,0.551073,35.75,2138430.0
1780134887.03125,18.11,0.552354,35.75,2138193.0
1780134887.046875,16.96,0.558759,35.75,2136836.0
1780134887.0625,14.42,0.551073,35.75,2135864.0
1780134887.078125,10.45,0.552354,35.75,2134651.0
1780134887.09375,5.32,0.552354,35.75,2134647.0
1780134887.109375,-0.49,0.552354,35.75,2135427.0
1780134887.125,-6.45,0.556197,35.75,2136533.0
1780134887.140625,-12.13,0.554916,35.75,2137174.0
1780134887.15625,-17.32,0.557478,35.75,2138209.0
1780134887.171875,-22.1,0.557478,35.75,2138972.0
1780134887.1875,-26.75,0.553635,35.75,2139802.0
1780134887.203125,-31.67,0.551073,35.75,2141076.0
1780134887.21875,-37.12,0.553635,35.75,2142941.0
1780134887.234375,-43.0,0.553635,35.77,2145828.0
1780134887.25,-48.73,0.557478,35.77,2149102.0
1780134887.265625,-53.22,0.554916,35.77,2152658.0
1780134887.28125,-55.16,0.554916,35.77,2159240.0
1780134887.296875,-53.47,0.553635,35.73,2173114.0
1780134887.3125,-47.74,0.54595,35.73,2189271.0
1780134887.328125,-38.48,0.552354,35.73,2201678.0
1780134887.34375,-26.97,0.54723,35.73,2211383.0
1780134887.359375,-14.79,0.552354,35.73,2217383.0
1780134887.375,-3.39,0.551073,35.73,2217849.0
1780134887.390625,6.25,0.553635,35.73,2210836.0
1780134887.40625,13.78,0.552354,35.73,2207965.0
1780134887.421875,19.21,0.553635,35.73,2210285.0
1780134887.4375,22.64,0.548511,35.73,2212781.0
1780134887.453125,24.12,0.54723,35.73,2215186.0
1780134887.46875,23.71,0.54595,35.73,2217346.0
1780134887.484375,21.53,0.553635,35.75,2221074.0
1780134887.5,17.98,0.552354,35.75,2223105.0
1780134887.515625,13.69,0.549792,35.75,2221778.0
1780134887.53125,9.28,0.551073,35.75,2221560.0
1780134887.546875,5.25,0.544669,35.73,2222484.0
1780134887.5625,1.7,0.543388,35.73,2218963.0
1780134887.578125,-1.6,0.54595,35.73,2217985.0
1780134887.59375,-4.85,0.54723,35.73,2217985.0
1780134887.609375,-8.15,0.549792,35.75,2218590.0
1780134887.625,-11.21,0.551073,35.75,2221007.0
1780134887.640625,-13.55,0.552354,35.75,2223512.0
1780134887.65625,-14.83,0.548511,35.75,2228024.0
1780134887.671875,-15.09,0.552354,35.73,2233061.0
1780134887.6875,-14.9,0.561321,35.73,2237425.0
1780134887.703125,-15.17,0.576692,35.73,2241075.0
1780134887.71875,-16.82,0.589502,35.73,2243459.0
1780134887.734375,-20.37,0.593345,35.73,2244634.0
1780134887.75,-25.75,0.603592,35.73,2244591.0
1780134887.765625,-32.25,0.616401,35.73,2242455.0
1780134887.78125,-38.84,0.615121,35.73,2240766.0
1780134887.796875,-44.44,0.618963,35.73,2239443.0
1780134887.8125,-48.27,0.611278,35.73,2238795.0
1780134887.828125,-50.19,0.609997,35.73,2239213.0
1780134887.84375,-50.69,0.61384,35.73,2239738.0
1780134887.859375,-50.8,0.611278,35.73,2241260.0
1780134887.875,-51.55,0.611278,35.73,2242206.0
1780134887.890625,-53.51,0.606154,35.73,2242213.0
1780134887.90625,-56.33,0.598468,35.73,2242276.0
1780134887.921875,-58.73,0.595906,35.73,2242750.0
1780134887.9375,-58.79,0.592064,35.73,2243403.0
1780134887.953125,-54.69,0.595906,35.73,2243834.0
1780134887.96875,-45.32,0.598468,35.73,2244354.0
1780134887.984375,-30.79,0.598468,35.73,2242267.0
1780134888.0,-12.58,0.597187,35.73,2237523.0
1780134888.015625,6.71,0.593345,35.73,2233048.0
1780134888.03125,23.8,0.590783,35.73,2229759.0
1780134888.046875,35.5,0.597187,35.73,2227520.0
1780134888.0625,39.81,0.595906,35.73,2225155.0
1780134888.078125,36.78,0.597187,35.73,2223462.0
1780134888.09375,29.01,0.604873,35.73,2221986.0
1780134888.109375,21.02,0.608716,35.73,2221356.0
1780134888.125,17.86,0.608716,35.73,2220195.0
1780134888.140625,23.07,0.604873,35.73,2219561.0
1780134888.15625,37.34,0.60103,35.73,2219487.0
1780134888.171875,58.14,0.598468,35.73,2219467.0
1780134888.1875,80.73,0.598468,35.73,2219669.0
1780134888.203125,100.02,0.594625,35.73,2219814.0
1780134888.21875,112.27,0.599749,35.73,2219805.0
1780134888.234375,116.1,0.599749,35.71,2217819.0
1780134888.25,112.26,0.598468,35.71,2214311.0
1780134888.265625,102.73,0.597187,35.71,2211069.0
1780134888.28125,89.71,0.592064,35.71,2207932.0
1780134888.296875,75.02,0.590783,35.71,2206206.0
1780134888.3125,59.93,0.590783,35.71,2205151.0
1780134888.328125,45.38,0.589502,35.71,2203945.0
1780134888.34375,32.15,0.592064,35.71,2203715.0
1780134888.359375,20.74,0.590783,35.68,2203717.0
1780134888.375,11.42,0.595906,35.68,2203445.0
1780134888.390625,3.9,0.593345,35.68,2203928.0
1780134888.40625,-2.39,0.595906,35.68,2204038.0
1780134888.421875,-8.22,0.588221,35.71,2204565.0
1780134888.4375,-14.22,0.58694,35.71,2203570.0
1780134888.453125,-20.5,0.590783,35.71,2205050.0
1780134888.46875,-26.67,0.589502,35.71,2205561.0
1780134888.484375,-31.96,0.593345,35.71,2204561.0
1780134888.5,-35.71,0.593345,35.71,2201698.0
1780134888.515625,-37.63,0.592064,35.71,2198760.0
1780134888.53125,-38.21,0.589502,35.71,2194113.0
1780134888.546875,-38.49,0.58694,35.71,2193879.0
1780134888.5625,-39.63,0.585659,35.71,2193895.0
1780134888.578125,-42.39,0.583097,35.71,2195282.0
1780134888.59375,-46.51,0.583097,35.71,2194074.0
1780134888.609375,-50.76,0.583097,35.71,2193284.0
1780134888.625,-53.3,0.589502,35.71,2196479.0
1780134888.640625,-52.41,0.589502,35.71,2193338.0
1780134888.65625,-47.24,0.588221,35.71,2192758.0
1780134888.671875,-38.19,0.590783,35.71,2192541.0
1780134888.6875,-26.62,0.584378,35.71,2192392.0
1780134888.703125,-14.26,0.581816,35.71,2192767.0
1780134888.71875,-2.73,0.584378,35.71,2190757.0
1780134888.734375,7.02,0.588221,35.68,2187441.0
1780134888.75,14.65,0.588221,35.68,2183913.0
1780134888.765625,20.23,0.58694,35.68,2181115.0
1780134888.78125,23.96,0.585659,35.68,2178840.0
1780134888.796875,26.0,0.585659,35.71,2177581.0
1780134888.8125,26.44,0.579254,35.71,2176840.0
1780134888.828125,25.42,0.577973,35.71,2176543.0
1780134888.84375,23.22,0.577973,35.71,2176231.0
1780134888.859375,20.16,0.579254,35.68,2175953.0
1780134888.875,16.58,0.580535,35.68,2176063.0
1780134888.890625,12.78,0.583097,35.68,2176129.0
1780134888.90625,8.98,0.581816,35.68,2176379.0
1780134888.921875,5.41,0.581816,35.68,2176712.0
1780134888.9375,2.25,0.575411,35.68,2177627.0
1780134888.953125,-0.36,0.576692,35.68,2176673.0
1780134888.96875,-2.39,0.584378,35.68,2173506.0
1780134888.984375,-3.95,0.57413,35.68,2169879.0
1780134889.0,-5.26,0.575411,35.68,2164972.0
1780134889.015625,-6.52,0.580535,35.68,2166965.0
1780134889.03125,-7.96,0.579254,35.68,2163365.0
1780134889.046875,-9.6,0.576692,35.68,2163321.0
1780134889.0625,-11.43,0.570287,35.68,2162991.0
1780134889.078125,-13.34,0.572849,35.68,2163202.0
1780134889.09375,-15.29,0.570287,35.68,2163310.0
1780134889.109375,-17.26,0.571568,35.68,2163316.0
1780134889.125,-19.39,0.572849,35.68,2163745.0
1780134889.140625,-21.82,0.576692,35.68,2164439.0
1780134889.15625,-24.66,0.57413,35.68,2164737.0
1780134889.171875,-27.94,0.576692,35.71,2165733.0
1780134889.1875,-31.55,0.576692,35.71,2166339.0
1780134889.203125,-35.2,0.57413,35.71,2165561.0
1780134889.21875,-38.36,0.570287,35.71,2162458.0
1780134889.234375,-40.32,0.572849,35.66,2158802.0
1780134889.25,-40.2,0.571568,35.66,2156199.0
1780134889.265625,-37.29,0.575411,35.66,2154415.0
1780134889.28125,-31.23,0.571568,35.66,2153115.0
1780134889.296875,-22.35,0.572849,35.66,2153245.0
1780134889.3125,-11.61,0.57413,35.66,2152890.0
1780134889.328125,-0.33,0.567726,35.66,2152753.0
1780134889.34375,10.2,0.567726,35.66,2153094.0
1780134889.359375,19.09,0.565164,35.66,2153493.0
1780134889.375,26.03,0.566445,35.66,2153518.0
1780134889.390625,31.08,0.570287,35.66,2154086.0
1780134889.40625,34.45,0.571568,35.66,2154845.0
1780134889.421875,36.22,0.571568,35.66,2155790.0
1780134889.4375,36.25,0.571568,35.66,2156730.0
1780134889.453125,34.37,0.567726,35.66,2154419.0
1780134889.46875,30.71,0.566445,35.66,2156681.0
1780134889.484375,25.78,0.570287,35.66,2151506.0
1780134889.5,20.37,0.570287,35.66,2149240.0
1780134889.515625,15.38,0.572849,35.66,2147626.0
1780134889.53125,11.38,0.572849,35.66,2146887.0
1780134889.546875,8.52,0.572849,35.66,2146486.0
1780134889.5625,6.55,0.571568,35.66,2146370.0
1780134889.578125,5.03,0.572849,35.66,2146547.0
1780134889.59375,3.58,0.570287,35.66,2146824.0
1780134889.609375,2.08,0.569007,35.65,2147188.0
1780134889.625,0.63,0.571568,35.65,2148122.0
1780134889.640625,-0.59,0.576692,35.65,2148597.0
1780134889.65625,-1.46,0.576692,35.65,2149542.0
1780134889.671875,-2.06,0.577973,35.66,2150937.0
1780134889.6875,-2.72,0.577973,35.66,2151154.0
1780134889.703125,-3.9,0.572849,35.66,2150458.0
1780134889.71875,-6.1,0.572849,35.66,2147709.0
1780134889.734375,-9.76,0.579254,35.66,2144286.0
1780134889.75,-15.13,0.572849,35.66,2141840.0
1780134889.765625,-22.12,0.576692,35.66,2140252.0
1780134889.78125,-30.2,0.577973,35.66,2139268.0
1780134889.796875,-38.3,0.579254,35.66,2139093.0
1780134889.8125,-45.08,0.572849,35.66,2139403.0
1780134889.828125,-49.15,0.572849,35.66,2139812.0
1780134889.84375,-49.51,0.572849,35.66,2140234.0
1780134889.859375,-45.86,0.571568,35.66,2140942.0
1780134889.875,-38.75,0.57413,35.66,2141712.0
1780134889.890625,-29.37,0.576692,35.66,2142643.0
1780134889.90625,-19.26,0.581816,35.66,2143571.0
1780134889.921875,-9.81,0.576692,35.65,2144833.0
1780134889.9375,-1.95,0.571568,35.65,2146149.0
1780134889.953125,4.02,0.569007,35.65,2146263.0
1780134889.96875,8.17,0.570287,35.65,2143645.0
1780134889.984375,10.74,0.569007,35.66,2140817.0
1780134890.0,11.78,0.572849,35.66,2138827.0
1780134890.015625,11.07,0.571568,35.66,2137466.0
1780134890.03125,8.29,0.576692,35.66,2136585.0
1780134890.046875,3.23,0.575411,35.65,2136321.0
1780134890.0625,-3.88,0.576692,35.65,2136890.0
1780134890.078125,-12.22,0.570287,35.65,2137652.0
1780134890.09375,-20.52,0.569007,35.65,2137926.0
1780134890.109375,-27.44,0.57413,35.63,2138591.0
1780134890.125,-32.0,0.567726,35.63,2140218.0
1780134890.140625,-33.94,0.570287,35.63,2141368.0
1780134890.15625,-33.81,0.575411,35.63,2143175.0
1780134890.171875,-32.82,0.581816,35.65,2139497.0
1780134890.1875,-32.5,0.57413,35.65,2144520.0
1780134890.203125,-34.13,0.575411,35.65,2145705.0
1780134890.21875,-38.22,0.567726,35.65,2144730.0
1780134890.234375,-44.21,0.565164,35.65,2142849.0
1780134890.25,-50.45,0.565164,35.65,2140726.0
1780134890.265625,-54.64,0.571568,35.65,2139205.0
1780134890.28125,-54.72,0.571568,35.65,2138417.0
1780134890.296875,-49.63,0.57413,35.65,2138705.0
1780134890.3125,-39.82,0.57413,35.65,2139129.0
1780134890.328125,-27.21,0.572849,35.65,2140510.0
1780134890.34375,-14.5,0.569007,35.65,2141071.0
1780134890.359375,-4.2,0.566445,35.65,2139931.0
1780134890.375,2.14,0.566445,35.65,2142110.0
1780134890.390625,4.39,0.57413,35.65,2143359.0
1780134890.40625,3.71,0.57413,35.65,2144797.0
1780134890.421875,2.04,0.570287,35.63,2146321.0
1780134890.4375,1.4,0.571568,35.63,2148045.0
1780134890.453125,3.33,0.571568,35.63,2149028.0
1780134890.46875,8.53,0.566445,35.63,2148052.0
1780134890.484375,16.72,0.565164,35.65,2146131.0
1780134890.5,26.89,0.565164,35.65,2144076.0
1780134890.515625,37.65,0.565164,35.65,2142222.0
1780134890.53125,47.68,0.569007,35.65,2141671.0
1780134890.546875,56.0,0.570287,35.65,2141856.0
1780134890.5625,62.08,0.570287,35.65,2142235.0
1780134890.578125,65.75,0.570287,35.65,2143444.0
1780134890.59375,66.99,0.570287,35.65,2144532.0
1780134890.609375,65.9,0.565164,35.65,2145373.0
1780134890.625,62.65,0.565164,35.65,2146357.0
1780134890.640625,57.62,0.563883,35.65,2147577.0
1780134890.65625,51.43,0.563883,35.65,2148698.0
1780134890.671875,44.8,0.566445,35.65,2149800.0
1780134890.6875,38.44,0.569007,35.65,2151192.0
1780134890.703125,32.83,0.570287,35.65,2152969.0
1780134890.71875,28.15,0.570287,35.65,2154415.0
1780134890.734375,24.3,0.566445,35.65,2153697.0
1780134890.75,21.01,0.567726,35.65,2152020.0
1780134890.765625,17.95,0.575411,35.65,2149782.0
1780134890.78125,14.87,0.576692,35.65,2148306.0
1780134890.796875,11.67,0.575411,35.63,2147393.0
1780134890.8125,8.4,0.579254,35.63,2147372.0
1780134890.828125,5.33,0.581816,35.63,2147601.0
1780134890.84375,2.74,0.583097,35.63,2148533.0
1780134890.859375,0.76,0.583097,35.63,2149161.0
1780134890.875,-0.61,0.579254,35.63,2150153.0
1780134890.890625,-1.72,0.577973,35.63,2150833.0
1780134890.90625,-3.0,0.577973,35.63,2151943.0
1780134890.921875,-4.89,0.579254,35.63,2153203.0
1780134890.9375,-7.68,0.583097,35.63,2154658.0
1780134890.953125,-11.46,0.589502,35.63,2156128.0
1780134890.96875,-16.09,0.597187,35.63,2157901.0
1780134890.984375,-21.3,0.607435,35.63,2156198.0
1780134891.0,-26.63,0.616401,35.63,2154634.0
1780134891.015625,-31.36,0.624087,35.63,2153927.0
1780134891.03125,-34.6,0.62793,35.63,2159686.0
1780134891.046875,-35.36,0.622806,35.65,2153820.0
1780134891.0625,-32.88,0.624087,35.65,2159652.0
1780134891.078125,-26.84,0.62793,35.65,2154525.0
1780134891.09375,-17.62,0.622806,35.65,2155184.0
1780134891.109375,-6.18,0.622806,35.63,2158072.0
1780134891.125,6.18,0.616401,35.63,2155696.0
1780134891.140625,18.13,0.612559,35.63,2156272.0
1780134891.15625,28.7,0.612559,35.63,2157261.0
1780134891.171875,37.35,0.606154,35.63,2158283.0
1780134891.1875,43.93,0.604873,35.63,2159068.0
1780134891.203125,48.47,0.606154,35.63,2160545.0
1780134891.21875,51.09,0.611278,35.63,2159293.0
1780134891.234375,51.94,0.608716,35.61,2158265.0
1780134891.25,51.2,0.608716,35.61,2158869.0
1780134891.265625,49.15,0.604873,35.61,2159219.0
1780134891.28125,46.04,0.602311,35.61,2160033.0
1780134891.296875,42.19,0.598468,35.63,2164822.0
1780134891.3125,37.8,0.599749,35.63,2166054.0
1780134891.328125,33.09,0.606154,35.63,2167400.0
1780134891.34375,28.29,0.604873,35.63,2161725.0
1780134891.359375,23.71,0.612559,35.63,2168200.0
1780134891.375,19.66,0.615121,35.63,2167227.0
1780134891.390625,16.43,0.615121,35.63,2166295.0
1780134891.40625,14.11,0.61384,35.63,2163657.0
1780134891.421875,12.46,0.608716,35.63,2159408.0
1780134891.4375,11.1,0.607435,35.63,2161959.0
1780134891.453125,9.57,0.61384,35.63,2162571.0
1780134891.46875,7.57,0.612559,35.63,2162083.0
1780134891.484375,5.05,0.612559,35.63,2139500.0
1780134891.5,2.18,0.609997,35.63,2160784.0
1780134891.515625,-0.79,0.608716,35.63,2131187.0
1780134891.53125,-3.72,0.604873,35.63,2160323.0
1780134891.546875,-6.67,0.61384,35.63,2128561.0
1780134891.5625,-9.85,0.606154,35.63,2163540.0
1780134891.578125,-13.58,0.606154,35.63,2130295.0
1780134891.59375,-18.1,0.612559,35.63,2163492.0
1780134891.609375,-23.48,0.609997,35.61,2137768.0
1780134891.625,-29.52,0.612559,35.61,2149872.0
1780134891.640625,-35.6,0.612559,35.61,2163800.0
1780134891.65625,-40.79,0.608716,35.61,2169355.0
1780134891.671875,-43.92,0.612559,35.63,2174173.0
1780134891.6875,-43.78,0.609997,35.63,2182489.0
1780134891.703125,-39.57,0.608716,35.63,2201350.0
1780134891.71875,-31.12,0.61384,35.63,2194414.0
1780134891.734375,-19.18,0.61384,35.61,2210550.0
1780134891.75,-5.15,0.612559,35.61,2201020.0
1780134891.765625,9.28,0.608716,35.61,2180157.0
1780134891.78125,22.63,0.611278,35.61,2187652.0
1780134891.796875,34.02,0.612559,35.63,2173126.0
1780134891.8125,43.17,0.607435,35.63,2166410.0
1780134891.828125,50.12,0.609997,35.63,2159945.0
1780134891.84375,54.93,0.612559,35.63,2209841.0
1780134891.859375,57.46,0.611278,35.61,2154600.0
1780134891.875,57.49,0.608716,35.61,2150700.0
1780134891.890625,54.95,0.606154,35.61,2150425.0
1780134891.90625,50.15,0.603592,35.61,2151800.0
1780134891.921875,43.89,0.602311,35.63,2155553.0
1780134891.9375,37.12,0.607435,35.63,2162715.0
1780134891.953125,30.75,0.609997,35.63,2172766.0
1780134891.96875,25.31,0.608716,35.63,2182872.0
1780134891.984375,20.86,0.609997,35.63,2190542.0
1780134892.0,17.15,0.604873,35.63,2181885.0
1780134892.015625,13.68,0.602311,35.63,2164632.0
1780134892.03125,10.0,0.608716,35.63,2139418.0
1780134892.046875,5.77,0.604873,35.61,2125970.0
1780134892.0625,0.88,0.609997,35.61,2115768.0
1780134892.078125,-4.53,0.608716,35.61,2107361.0
1780134892.09375,-10.02,0.611278,35.61,2101005.0
1780134892.109375,-15.07,0.608716,35.63,2096381.0
1780134892.125,-19.25,0.606154,35.63,2090727.0
1780134892.140625,-22.47,0.609997,35.63,2083799.0
1780134892.15625,-25.01,0.606154,35.63,2078389.0
1780134892.171875,-27.46,0.61384,35.61,2075215.0
1780134892.1875,-30.42,0.612559,35.61,2073945.0
1780134892.203125,-34.26,0.615121,35.61,2072242.0
1780134892.21875,-38.92,0.616401,35.61,2069997.0
1780134892.234375,-43.92,0.615121,35.63,2068237.0
1780134892.25,-48.51,0.61384,35.63,2065975.0
1780134892.265625,-51.85,0.616401,35.63,2065744.0
1780134892.28125,-53.29,0.62793,35.63,2065724.0
1780134892.296875,-52.46,0.624087,35.61,2065223.0
1780134892.3125,-49.37,0.625368,35.61,2061053.0
1780134892.328125,-44.5,0.62793,35.61,2058585.0
1780134892.34375,-38.57,0.629211,35.61,2063213.0
1780134892.359375,-32.47,0.625368,35.65,2059680.0
1780134892.375,-26.99,0.625368,35.65,2057562.0
1780134892.390625,-22.67,0.625368,35.65,2062475.0
1780134892.40625,-19.69,0.625368,35.65,2065674.0
1780134892.421875,-17.98,0.630492,35.61,2069942.0
1780134892.4375,-17.38,0.631773,35.61,2073848.0
1780134892.453125,-17.79,0.62793,35.61,2077234.0
1780134892.46875,-19.17,0.630492,35.61,2080208.0
1780134892.484375,-21.39,0.625368,35.61,2080410.0
1780134892.5,-24.08,0.621525,35.61,2077922.0
1780134892.515625,-26.55,0.621525,35.61,2074693.0
1780134892.53125,-27.83,0.629211,35.61,2072612.0
1780134892.546875,-26.89,0.629211,35.61,2070976.0
1780134892.5625,-23.12,0.630492,35.61,2070801.0
1780134892.578125,-16.63,0.630492,35.61,2070796.0
1780134892.59375,-8.45,0.625368,35.61,2071231.0
1780134892.609375,-0.42,0.624087,35.63,2071292.0
1780134892.625,5.24,0.625368,35.63,2070865.0
1780134892.640625,6.66,0.62793,35.63,2070368.0
1780134892.65625,3.27,0.630492,35.63,2070836.0
1780134892.671875,-3.72,0.633054,35.59,2072704.0
1780134892.6875,-11.39,0.631773,35.59,2071593.0
1780134892.703125,-15.95,0.630492,35.59,2074623.0
1780134892.71875,-14.19,0.626649,35.59,2074158.0
1780134892.734375,-4.69,0.631773,35.61,2075318.0
1780134892.75,11.51,0.626649,35.61,2071126.0
1780134892.765625,31.43,0.636897,35.61,2067252.0
1780134892.78125,51.18,0.636897,35.61,2061883.0
1780134892.796875,67.27,0.639459,35.61,2061460.0
1780134892.8125,77.44,0.639459,35.61,2061007.0
1780134892.828125,80.8,0.635616,35.61,2064006.0
1780134892.84375,77.66,0.640739,35.61,2062521.0
1780134892.859375,69.09,0.64202,35.61,2063341.0
1780134892.875,56.61,0.640739,35.61,2064233.0
1780134892.890625,42.01,0.64202,35.61,2065766.0
1780134892.90625,27.24,0.644582,35.61,2067525.0
1780134892.921875,14.13,0.644582,35.59,2069501.0
1780134892.9375,4.09,0.640739,35.59,2070781.0
1780134892.953125,-2.21,0.639459,35.59,2072429.0
1780134892.96875,-4.89,0.647144,35.59,2074382.0
1780134892.984375,-4.69,0.644582,35.59,2075784.0
1780134893.0,-2.75,0.652268,35.59,2074048.0
1780134893.015625,-0.31,0.658673,35.59,2070936.0
1780134893.03125,1.53,0.661235,35.59,2070244.0
1780134893.046875,2.13,0.658673,35.59,2075678.0
1780134893.0625,1.42,0.661235,35.59,2071193.0
1780134893.078125,-0.1,0.666358,35.59,2051203.0
1780134893.09375,-1.65,0.665077,35.59,2030175.0
1780134893.109375,-2.57,0.666358,35.61,2018001.0
1780134893.125,-2.62,0.671482,35.61,2026708.0
1780134893.140625,-2.14,0.666358,35.61,2032434.0
1780134893.15625,-1.82,0.659954,35.61,2032546.0
1780134893.171875,-2.2,0.657392,35.61,2030898.0
1780134893.1875,-3.46,0.658673,35.61,2036353.0
1780134893.203125,-5.38,0.659954,35.61,2039243.0
1780134893.21875,-7.39,0.662516,35.61,2046576.0
1780134893.234375,-9.01,0.663796,35.59,2052895.0
1780134893.25,-9.98,0.665077,35.59,2052882.0
1780134893.265625,-10.41,0.670201,35.59,2061402.0
1780134893.28125,-10.61,0.66892,35.59,2078388.0
1780134893.296875,-10.92,0.672763,35.57,2101577.0
1780134893.3125,-11.48,0.674044,35.57,2128268.0
1780134893.328125,-12.21,0.688134,35.57,2118630.0
1780134893.34375,-12.95,0.688134,35.57,2145608.0
1780134893.359375,-13.51,0.688134,35.59,2134549.0
1780134893.375,-13.93,0.686853,35.59,2156074.0
1780134893.390625,-14.4,0.68173,35.59,2167200.0
1780134893.40625,-15.25,0.679168,35.59,2173005.0
1780134893.421875,-16.73,0.679168,35.59,2169758.0
1780134893.4375,-19.01,0.683011,35.59,2157161.0
1780134893.453125,-22.1,0.684292,35.59,2146647.0
1780134893.46875,-25.92,0.688134,35.59,2138796.0
1780134893.484375,-30.35,0.688134,35.59,2131752.0
1780134893.5,-35.11,0.693258,35.59,2125198.0
1780134893.515625,-39.73,0.689415,35.59,2117079.0
1780134893.53125,-43.47,0.685573,35.59,2109067.0
1780134893.546875,-45.35,0.69582,35.61,2102622.0
1780134893.5625,-44.4,0.699663,35.61,2099590.0
1780134893.578125,-40.01,0.709911,35.61,2097857.0
1780134893.59375,-32.18,0.709911,35.61,2096560.0
1780134893.609375,-21.56,0.712472,35.59,2096423.0
1780134893.625,-9.35,0.712472,35.59,2097019.0
1780134893.640625,3.12,0.712472,35.59,2097258.0
1780134893.65625,14.67,0.711191,35.59,2097379.0
1780134893.671875,24.54,0.718877,35.57,2097007.0
1780134893.6875,32.44,0.716315,35.57,2098236.0
1780134893.703125,38.28,0.715034,35.57,2098740.0
1780134893.71875,42.13,0.706068,35.57,2100549.0
1780134893.734375,44.0,0.702225,35.57,2101225.0
1780134893.75,43.97,0.69582,35.57,2103407.0
1780134893.765625,42.15,0.698382,35.57,2104173.0
1780134893.78125,38.9,0.694539,35.57,2103255.0
1780134893.796875,34.68,0.698382,35.61,2100992.0
1780134893.8125,30.01,0.694539,35.61,2098543.0
1780134893.828125,25.34,0.694539,35.61,2097313.0
1780134893.84375,20.95,0.689415,35.61,2096666.0
1780134893.859375,17.0,0.693258,35.59,2096422.0
1780134893.875,13.6,0.694539,35.59,2097199.0
1780134893.890625,10.85,0.69582,35.59,2097745.0
1780134893.90625,8.74,0.69582,35.59,2098144.0
1780134893.921875,7.13,0.691977,35.57,2098396.0
1780134893.9375,5.68,0.697101,35.57,2098823.0
1780134893.953125,4.01,0.702225,35.57,2099374.0
1780134893.96875,1.81,0.713753,35.57,2100272.0
1780134893.984375,-0.99,0.715034,35.57,2101134.0
1780134894.0,-4.21,0.70863,35.57,2102320.0
1780134894.015625,-7.51,0.702225,35.57,2103820.0
1780134894.03125,-10.59,0.706068,35.57,2104607.0
1780134894.046875,-13.35,0.716315,35.57,2103165.0
1780134894.0625,-15.93,0.734248,35.57,2100588.0
1780134894.078125,-18.63,0.761148,35.57,2098923.0
1780134894.09375,-21.81,0.845691,35.57,2097729.0
1780134894.109375,-25.58,0.836724,35.57,2097458.0
1780134894.125,-29.67,0.846972,35.57,2097698.0
1780134894.140625,-33.42,0.84441,35.57,2098783.0
1780134894.15625,-35.78,0.836724,35.57,2099708.0
1780134894.171875,-35.7,0.827757,35.57,2100303.0
1780134894.1875,-32.38,0.822634,35.57,2101082.0
1780134894.203125,-25.56,0.825196,35.57,2101795.0
1780134894.21875,-15.66,0.816229,35.57,2102572.0
1780134894.234375,-3.6,0.812386,35.57,2103874.0
1780134894.25,9.48,0.807262,35.57,2105453.0
1780134894.265625,22.39,0.80342,35.57,2106387.0
1780134894.28125,34.09,0.795734,35.57,2107335.0
1780134894.296875,43.73,0.79061,35.55,2105289.0
1780134894.3125,50.63,0.788048,35.55,2102612.0
1780134894.328125,54.29,0.786767,35.55,2100021.0
1780134894.34375,54.51,0.788048,35.55,2098201.0
1780134894.359375,51.52,0.785486,35.57,2097246.0
1780134894.375,45.98,0.785486,35.57,2096979.0
1780134894.390625,38.89,0.784205,35.57,2096958.0
1780134894.40625,31.34,0.779082,35.57,2097423.0
1780134894.421875,24.21,0.77652,35.55,2097397.0
1780134894.4375,17.96,0.775239,35.55,2097487.0
1780134894.453125,12.61,0.777801,35.55,2094958.0
1780134894.46875,7.87,0.775239,35.55,2094814.0
1780134894.484375,3.33,0.779082,35.57,2095274.0
1780134894.5,-1.29,0.777801,35.57,2095419.0
1780134894.515625,-6.09,0.777801,35.57,2102625.0
1780134894.53125,-10.87,0.771396,35.57,2104595.0
1780134894.546875,-15.31,0.768834,35.53,2103605.0
1780134894.5625,-19.0,0.767553,35.53,2100159.0
1780134894.578125,-21.64,0.768834,35.53,2097338.0
1780134894.59375,-23.15,0.772677,35.53,2094774.0
1780134894.609375,-23.89,0.770115,35.55,2092559.0
1780134894.625,-24.58,0.764991,35.55,2091405.0
1780134894.640625,-26.24,0.772677,35.55,2090465.0
1780134894.65625,-29.88,0.767553,35.55,2090135.0
1780134894.671875,-35.91,0.76371,35.55,2089028.0
1780134894.6875,-43.73,0.76371,35.55,2088631.0
1780134894.703125,-51.71,0.770115,35.55,2087828.0
1780134894.71875,-57.41,0.772677,35.55,2087489.0
1780134894.734375,-58.56,0.779082,35.55,2087180.0
1780134894.75,-53.9,0.784205,35.55,2087224.0
1780134894.765625,-43.71,0.780362,35.55,2086627.0
1780134894.78125,-29.74,0.779082,35.55,2086133.0
1780134894.796875,-14.59,0.772677,35.55,2084157.0
1780134894.8125,-0.64,0.76371,35.55,2080338.0
1780134894.828125,10.62,0.758586,35.55,2075626.0
1780134894.84375,18.83,0.759867,35.55,2072331.0
1780134894.859375,24.53,0.753463,35.53,2069408.0
1780134894.875,28.52,0.764991,35.53,2066973.0
1780134894.890625,31.41,0.766272,35.53,2065755.0
1780134894.90625,33.33,0.770115,35.53,2064747.0
1780134894.921875,34.16,0.753463,35.53,2063469.0
1780134894.9375,33.7,0.758586,35.53,2061856.0
1780134894.953125,31.99,0.766272,35.53,2060742.0
1780134894.96875,29.38,0.762429,35.53,2059602.0
1780134894.984375,26.34,0.764991,35.53,2058925.0
1780134895.0,23.27,0.76371,35.53,2058353.0
1780134895.015625,20.28,0.758586,35.53,2058121.0
1780134895.03125,17.21,0.761148,35.53,2057806.0
1780134895.046875,13.88,0.754744,35.5,2055990.0
1780134895.0625,10.24,0.753463,35.5,2051012.0
1780134895.078125,6.65,0.752182,35.5,2046213.0
1780134895.09375,3.62,0.762429,35.5,2041848.0
1780134895.109375,1.55,0.759867,35.53,2038364.0
1780134895.125,0.46,0.76371,35.53,2035839.0
1780134895.140625,-0.06,0.770115,35.53,2034730.0
1780134895.15625,-0.68,0.775239,35.53,2033687.0
1780134895.171875,-1.93,0.767553,35.53,2032590.0
1780134895.1875,-3.96,0.766272,35.53,2031213.0
1780134895.203125,-6.55,0.758586,35.53,2030600.0
1780134895.21875,-9.16,0.756025,35.53,2030319.0
1780134895.234375,-11.43,0.757306,35.5,2029670.0
1780134895.25,-13.22,0.752182,35.5,2029844.0
1780134895.265625,-14.82,0.757306,35.5,2030588.0
1780134895.28125,-16.58,0.756025,35.5,2031062.0
1780134895.296875,-18.91,0.756025,35.5,2030871.0
1780134895.3125,-21.86,0.757306,35.5,2028436.0
1780134895.328125,-25.16,0.756025,35.5,2024065.0
1780134895.34375,-28.27,0.757306,35.5,2019777.0
1780134895.359375,-30.45,0.76371,35.5,2016418.0
1780134895.375,-30.99,0.76371,35.5,2013908.0
1780134895.390625,-29.38,0.770115,35.5,2012610.0
1780134895.40625,-25.38,0.770115,35.5,2012282.0
1780134895.421875,-19.17,0.764991,35.5,2011947.0
1780134895.4375,-11.24,0.762429,35.5,2011531.0
1780134895.453125,-2.31,0.76371,35.5,2011379.0
1780134895.46875,6.77,0.762429,35.5,2011457.0
1780134895.484375,15.15,0.759867,35.49,2011713.0
1780134895.5,22.18,0.762429,35.49,2012464.0
1780134895.515625,27.47,0.759867,35.49,2013125.0
1780134895.53125,30.91,0.766272,35.49,2014392.0
1780134895.546875,32.63,0.764991,35.49,2016512.0
1780134895.5625,32.87,0.762429,35.49,2015567.0
1780134895.578125,31.95,0.76371,35.49,2015166.0
1780134895.59375,30.1,0.76371,35.49,2011873.0
1780134895.609375,27.5,0.753463,35.49,2008389.0
1780134895.625,24.28,0.74962,35.49,2005762.0
1780134895.640625,20.62,0.750901,35.49,2004124.0
1780134895.65625,16.73,0.74962,35.49,2003449.0
1780134895.671875,12.84,0.752182,35.49,2003310.0
1780134895.6875,9.19,0.752182,35.49,2003843.0
1780134895.703125,5.94,0.752182,35.49,2003695.0
1780134895.71875,3.22,0.748339,35.49,2004010.0
1780134895.734375,1.03,0.744496,35.47,2004383.0
1780134895.75,-0.68,0.74962,35.47,2004468.0
1780134895.765625,-2.12,0.757306,35.47,2005371.0
1780134895.78125,-3.52,0.757306,35.47,2006292.0
1780134895.796875,-5.2,0.756025,35.47,2007545.0
1780134895.8125,-7.33,0.762429,35.47,2008636.0
1780134895.828125,-9.99,0.756025,35.47,2010042.0
1780134895.84375,-13.04,0.757306,35.47,2009981.0
1780134895.859375,-16.27,0.756025,35.47,2007718.0
1780134895.875,-19.48,0.750901,35.47,2004796.0
1780134895.890625,-22.6,0.758586,35.47,2002957.0
1780134895.90625,-25.78,0.756025,35.47,2001658.0
1780134895.921875,-29.27,0.758586,35.45,2001440.0
1780134895.9375,-33.25,0.752182,35.45,2002002.0
1780134895.953125,-37.61,0.74962,35.45,2002294.0
1780134895.96875,-41.9,0.740653,35.45,2002803.0
1780134895.984375,-45.33,0.745777,35.45,2003248.0
1780134896.0,-46.89,0.741934,35.45,2003568.0
1780134896.015625,-45.71,0.740653,35.45,2004122.0
1780134896.03125,-41.19,0.743215,35.45,2004971.0
1780134896.046875,-33.26,0.741934,35.45,2006202.0
1780134896.0625,-22.39,0.745777,35.45,2007367.0
1780134896.078125,-9.42,0.743215,35.45,2008739.0
1780134896.09375,4.56,0.738091,35.45,2009943.0
1780134896.109375,18.42,0.73681,35.47,2011182.0
1780134896.125,31.13,0.73681,35.47,2009885.0
1780134896.140625,41.92,0.741934,35.47,2007625.0
1780134896.15625,50.25,0.743215,35.47,2005671.0
1780134896.171875,55.85,0.745777,35.45,2004474.0
1780134896.1875,58.71,0.750901,35.45,2003595.0
1780134896.203125,59.02,0.747058,35.45,2003890.0
1780134896.21875,57.1,0.739372,35.45,2004741.0
1780134896.234375,53.38,0.739372,35.45,2005453.0
1780134896.25,48.37,0.739372,35.45,2006480.0
1780134896.265625,42.62,0.739372,35.45,2006975.0
1780134896.28125,36.76,0.743215,35.45,2007766.0
1780134896.296875,31.46,0.743215,35.43,2008739.0
1780134896.3125,27.31,0.743215,35.43,2010068.0
1780134896.328125,24.65,0.741934,35.43,2011939.0
1780134896.34375,23.44,0.735529,35.43,2013494.0
1780134896.359375,23.12,0.738091,35.45,2015304.0
1780134896.375,22.85,0.735529,35.45,2017118.0
1780134896.390625,21.76,0.734248,35.45,2018773.0
1780134896.40625,19.31,0.739372,35.45,2018900.0
1780134896.421875,15.34,0.740653,35.41,2017375.0
1780134896.4375,10.17,0.744496,35.41,2015672.0
1780134896.453125,4.38,0.741934,35.41,2014507.0
1780134896.46875,-1.5,0.738091,35.41,2014324.0
1780134896.484375,-7.07,0.735529,35.43,2014197.0
1780134896.5,-12.18,0.735529,35.43,2015103.0
1780134896.515625,-16.88,0.732968,35.43,2015871.0
1780134896.53125,-21.38,0.741934,35.43,2016713.0
1780134896.546875,-26.0,0.734248,35.43,2017615.0
1780134896.5625,-31.06,0.73681,35.43,2018084.0
1780134896.578125,-36.75,0.738091,35.43,2018762.0
1780134896.59375,-42.88,0.738091,35.43,2020157.0
1780134896.609375,-48.83,0.735529,35.43,2021168.0
1780134896.625,-53.47,0.731687,35.43,2022878.0
1780134896.640625,-55.55,0.730406,35.43,2024184.0
1780134896.65625,-54.05,0.730406,35.43,2025758.0
1780134896.671875,-48.67,0.729125,35.43,2027548.0
1780134896.6875,-39.94,0.732968,35.43,2028404.0
1780134896.703125,-29.2,0.743215,35.43,2027248.0
1780134896.71875,-18.29,0.73681,35.43,2026002.0
1780134896.734375,-9.02,0.732968,35.43,2025024.0
1780134896.75,-2.71,0.734248,35.43,2025003.0
1780134896.765625,0.2,0.727844,35.43,2024981.0
1780134896.78125,0.32,0.727844,35.43,2025736.0
1780134896.796875,-0.91,0.725282,35.43,2026979.0
1780134896.8125,-1.75,0.724001,35.43,2027897.0
1780134896.828125,-0.88,0.730406,35.43,2028511.0
1780134896.84375,2.21,0.730406,35.43,2030122.0
1780134896.859375,6.89,0.730406,35.43,2029334.0
1780134896.875,11.85,0.73681,35.43,2031269.0
1780134896.890625,15.68,0.731687,35.43,2032535.0
1780134896.90625,17.47,0.731687,35.43,2033539.0
1780134896.921875,17.08,0.727844,35.43,2035119.0
1780134896.9375,15.0,0.727844,35.43,2036268.0
1780134896.953125,11.99,0.729125,35.43,2037553.0
1780134896.96875,8.55,0.734248,35.43,2037251.0
1780134896.984375,4.86,0.744496,35.43,2034349.0
1780134897.0,0.87,0.744496,35.43,2035567.0
1780134897.015625,-3.41,0.744496,35.43,2033131.0
1780134897.03125,-7.67,0.743215,35.43,2033215.0
1780134897.046875,-11.4,0.738091,35.43,2033415.0
1780134897.0625,-14.18,0.738091,35.43,2033961.0
1780134897.078125,-15.91,0.738091,35.43,2034762.0
1780134897.09375,-16.95,0.738091,35.43,2035330.0
1780134897.109375,-18.07,0.740653,35.43,2035785.0
1780134897.125,-20.02,0.744496,35.43,2036229.0
1780134897.140625,-23.3,0.743215,35.43,2037084.0
1780134897.15625,-27.85,0.741934,35.43,2037964.0
1780134897.171875,-33.13,0.740653,35.43,2039175.0
1780134897.1875,-38.27,0.738091,35.43,2040243.0
1780134897.203125,-42.43,0.734248,35.43,2041481.0
1780134897.21875,-44.99,0.735529,35.43,2042443.0
1780134897.234375,-45.69,0.740653,35.43,2043691.0
1780134897.25,-44.49,0.738091,35.43,2044018.0
1780134897.265625,-41.38,0.739372,35.43,2042805.0
1780134897.28125,-36.24,0.738091,35.43,2041175.0
1780134897.296875,-28.8,0.740653,35.41,2040018.0
1780134897.3125,-18.94,0.738091,35.41,2039164.0
1780134897.328125,-6.83,0.738091,35.41,2039349.0
1780134897.34375,6.74,0.738091,35.41,2039597.0
1780134897.359375,20.56,0.735529,35.43,2040230.0
1780134897.375,33.17,0.739372,35.43,2040968.0
1780134897.390625,43.37,0.740653,35.43,2041251.0
1780134897.40625,50.54,0.740653,35.43,2041833.0
1780134897.421875,54.64,0.740653,35.43,2042380.0
1780134897.4375,56.0,0.739372,35.43,2043054.0
1780134897.453125,55.04,0.735529,35.43,2044017.0
1780134897.46875,52.09,0.738091,35.43,2045513.0
1780134897.484375,47.38,0.741934,35.41,2046629.0
1780134897.5,41.23,0.748339,35.41,2048038.0
1780134897.515625,34.13,0.758586,35.41,2049167.0
1780134897.53125,26.76,0.766272,35.41,2050287.0
1780134897.546875,19.88,0.770115,35.41,2048929.0
1780134897.5625,14.09,0.768834,35.41,2047473.0
1780134897.578125,9.71,0.772677,35.41,2046119.0
1780134897.59375,6.63,0.768834,35.41,2045595.0
1780134897.609375,4.46,0.76371,35.41,2045843.0
1780134897.625,2.7,0.762429,35.41,2046024.0
1780134897.640625,0.86,0.761148,35.41,2046905.0
1780134897.65625,-1.29,0.76371,35.41,2047248.0
1780134897.671875,-3.69,0.761148,35.39,2047863.0
1780134897.6875,-6.11,0.759867,35.39,2048242.0
1780134897.703125,-8.32,0.762429,35.39,2048602.0
1780134897.71875,-10.29,0.767553,35.39,2049222.0
1780134897.734375,-12.23,0.76371,35.39,2050446.0
1780134897.75,-14.6,0.764991,35.39,2051206.0
1780134897.765625,-17.86,0.764991,35.39,2052469.0
1780134897.78125,-22.24,0.767553,35.39,2053290.0
1780134897.796875,-27.55,0.772677,35.39,2053775.0
1780134897.8125,-33.11,0.772677,35.39,2052768.0
1780134897.828125,-37.86,0.773958,35.39,2050697.0
1780134897.84375,-40.6,0.772677,35.39,2048720.0
1780134897.859375,-40.32,0.767553,35.41,2047457.0
1780134897.875,-36.51,0.766272,35.41,2047052.0
1780134897.890625,-29.27,0.767553,35.41,2047058.0
1780134897.90625,-19.32,0.764991,35.41,2047269.0
1780134897.921875,-7.79,0.768834,35.39,2046825.0
1780134897.9375,4.09,0.772677,35.39,2046859.0
1780134897.953125,15.24,0.771396,35.39,2046747.0
1780134897.96875,24.94,0.768834,35.39,2047059.0
1780134897.984375,32.77,0.770115,35.37,2047457.0
1780134898.0,38.61,0.764991,35.37,2047970.0
1780134898.015625,42.47,0.76371,35.37,2048361.0
1780134898.03125,44.42,0.762429,35.37,2049252.0
1780134898.046875,44.55,0.766272,35.37,2049731.0
1780134898.0625,43.05,0.761148,35.37,2049788.0
1780134898.078125,40.19,0.76371,35.37,2048045.0
1780134898.09375,36.38,0.766272,35.37,2044666.0
1780134898.109375,32.07,0.768834,35.34,2042548.0
1780134898.125,27.75,0.768834,35.34,2040459.0
1780134898.140625,23.8,0.766272,35.34,2039036.0
1780134898.15625,20.45,0.766272,35.34,2038347.0
1780134898.171875,17.75,0.762429,35.34,2038184.0
1780134898.1875,15.62,0.758586,35.34,2037880.0
1780134898.203125,13.91,0.759867,35.34,2037688.0
1780134898.21875,12.52,0.758586,35.34,2037633.0
1780134898.234375,11.41,0.76371,35.34,2037518.0
1780134898.25,10.61,0.759867,35.34,2037424.0
1780134898.265625,10.09,0.791891,35.34,2037864.0
1780134898.28125,9.74,0.777801,35.34,2038647.0
1780134898.296875,9.34,0.784205,35.34,2039522.0
1780134898.3125,8.58,0.77652,35.34,2040397.0
1780134898.328125,7.2,0.772677,35.34,2041128.0
1780134898.34375,5.09,0.773958,35.34,2040234.0
1780134898.359375,2.22,0.770115,35.34,2037823.0
1780134898.375,-1.29,0.771396,35.34,2034866.0
1780134898.390625,-5.3,0.771396,35.34,2032234.0
1780134898.40625,-9.58,0.767553,35.34,2030816.0
1780134898.421875,-13.8,0.768834,35.33,2029775.0
1780134898.4375,-17.36,0.76371,35.33,2029148.0
1780134898.453125,-19.48,0.768834,35.33,2028975.0
1780134898.46875,-19.38,0.767553,35.33,2028747.0
1780134898.484375,-16.54,0.764991,35.34,2028382.0
1780134898.5,-11.07,0.767553,35.34,2027894.0
1780134898.515625,-3.67,0.770115,35.34,2027665.0
1780134898.53125,4.51,0.761148,35.34,2027837.0
1780134898.546875,12.31,0.759867,35.34,2028336.0
1780134898.5625,18.83,0.761148,35.34,2028830.0
1780134898.578125,23.7,0.761148,35.34,2029611.0
1780134898.59375,26.89,0.759867,35.34,2030590.0
1780134898.609375,28.55,0.76371,35.33,2030638.0
1780134898.625,28.73,0.76371,35.33,2028529.0
1780134898.640625,27.36,0.76371,35.33,2025842.0
1780134898.65625,24.3,0.761148,35.33,2023545.0
1780134898.671875,19.62,0.759867,35.34,2022238.0
1780134898.6875,13.78,0.758586,35.34,2021134.0
1780134898.703125,7.45,0.761148,35.34,2021172.0
1780134898.71875,1.47,0.756025,35.34,2021296.0
1780134898.734375,-3.55,0.754744,35.34,2021204.0
1780134898.75,-7.38,0.756025,35.34,2020935.0
1780134898.765625,-10.24,0.754744,35.34,2020665.0
1780134898.78125,-12.63,0.757306,35.34,2020980.0
1780134898.796875,-15.1,0.753463,,2021105.0
1780134898.8125,-17.99,0.758586,,2021593.0
1780134898.828125,-21.21,0.759867,,2021947.0
1780134898.84375,-24.34,0.752182,,2023024.0
1780134898.859375,-26.81,0.743215,,2023293.0
1780134898.875,-28.1,0.738091,,2023388.0
1780134898.890625,-28.05,,,2021829.0
1780134898.90625,-26.83,,,2018665.0
1780134898.921875,-25.02,,,2016321.0
1780134898.9375,-23.38,,,2014232.0
1780134898.953125,-22.64,,,2013001.0
1780134898.96875,-23.3,,,2012143.0
1780134898.984375,-25.38,,,2011935.0
1780134899.0,-28.43,,,2011652.0
1780134899.015625,-31.55,,,2011865.0
1780134899.03125,-33.73,,,2012212.0
1780134899.046875,-34.18,,,2012282.0
1780134899.0625,-32.69,,,2012787.0
1780134899.078125,-29.59,,,2013797.0
1780134899.09375,-25.62,,,2014649.0
1780134899.109375,-21.57,,,2015369.0
1780134899.125,-17.94,,,2016518.0
1780134899.140625,-14.85,,,2016993.0
1780134899.15625,-12.09,,,2015373.0
1780134899.171875,-9.29,,,2012437.0
1780134899.1875,-6.19,,,2009920.0
1780134899.203125,-2.7,,,2007925.0
1780134899.21875,1.05,,,2007179.0
1780134899.234375,4.56,,,2006639.0
1780134899.25,7.05,,,2006505.0
1780134899.265625,7.53,,,2006395.0
1780134899.28125,5.15,,,2006098.0
1780134899.296875,-0.29,,,2006442.0
1780134899.3125,-7.98,,,2005806.0
1780134899.328125,-16.13,,,2006111.0
1780134899.34375,-22.42,,,2006549.0
1780134899.359375,-24.85,,,2007370.0
1780134899.375,-22.51,,,2008219.0
1780134899.390625,-15.92,,,2008872.0
1780134899.40625,-6.8,,,2010001.0
1780134899.421875,2.62,,,2010279.0
1780134899.4375,10.46,,,2008439.0
1780134899.453125,15.67,,,2005636.0
1780134899.46875,18.0,,,2003234.0
1780134899.484375,17.84,,,2001212.0
1780134899.5,15.69,,,1999971.0
1780134899.515625,11.87,,,1999703.0
1780134899.53125,6.63,,,1999500.0
1780134899.546875,0.21,,,1999649.0
1780134899.5625,-6.92,,,1999731.0
1780134899.578125,-14.11,,,1999158.0
1780134899.59375,-20.58,,,1999292.0
1780134899.609375,-25.65,,,1999416.0
1780134899.625,-28.74,,,1999960.0
1780134899.640625,-29.5,,,2000840.0
1780134899.65625,-27.7,,,2001843.0
1780134899.671875,-23.3,,,2002823.0
1780134899.6875,-16.49,,,2003555.0
1780134899.703125,-7.8,,,2002105.0
1780134899.71875,1.92,,,1999157.0
1780134899.734375,11.73,,,1996238.0
1780134899.75,20.72,,,1994204.0
1780134899.765625,28.25,,,1992486.0
1780134899.78125,34.03,,,1992009.0
1780134899.796875,38.01,,,1992176.0
1780134899.8125,40.25,,,1991970.0
1780134899.828125,40.75,,,1991961.0
1780134899.84375,39.52,,,1991575.0
1780134899.859375,36.59,,,1991514.0
1780134899.875,32.23,,,1991547.0
1780134899.890625,26.91,,,1992032.0
1780134899.90625,21.29,,,1992610.0
1780134899.921875,15.9,,,1993473.0
1780134899.9375,11.13,,,1994539.0
1780134899.953125,7.08,,,1995434.0
1780134899.96875,3.66,,,1994104.0
1780134899.984375,0.65,,,1991411.0
1780134900.0,-2.07,,,1988340.0
1780134900.015625,-4.55,,,1986139.0
1780134900.03125,-6.72,,,1984407.0
1780134900.046875,-8.5,,,1983518.0
1780134900.0625,-9.91,,,1983196.0
1780134900.078125,-11.09,,,1983145.0
1780134900.09375,-12.29,,,1983114.0
1780134900.109375,-13.76,,,1982704.0
1780134900.125,-15.64,,,1983207.0
1780134900.140625,-17.9,,,1983070.0
1780134900.15625,-20.38,,,1983823.0
1780134900.171875,-22.82,,,1984360.0
1780134900.1875,-24.95,,,1985354.0
1780134900.203125,-26.55,,,1986722.0
1780134900.21875,-27.33,,,1987501.0
1780134900.234375,-26.94,,,1987195.0
1780134900.25,-24.97,,,1984500.0
1780134900.265625,-21.08,,,1981215.0
1780134900.28125,-15.17,,,1978717.0
1780134900.296875,-7.6,,,1976675.0
1780134900.3125,0.95,,,1975547.0
1780134900.328125,9.57,,,1975127.0
1780134900.34375,17.42,,,1975201.0
1780134900.359375,23.97,,,1974903.0
1780134900.375,28.98,,,1974606.0
1780134900.390625,32.49,,,1974412.0
1780134900.40625,34.65,,,1974629.0
1780134900.421875,35.6,,,1974785.0
1780134900.4375,35.39,,,1975457.0
1780134900.453125,34.09,,,1976067.0
1780134900.46875,31.86,,,1976983.0
1780134900.484375,28.97,,,1977726.0
1780134900.5,25.82,,,1976541.0
1780134900.515625,22.77,,,1972837.0
1780134900.53125,20.07,,,1969710.0
1780134900.546875,17.82,,,1967206.0
1780134900.5625,15.89,,,1965628.0
1780134900.578125,14.07,,,1964646.0
1780134900.59375,12.2,,,1964470.0
1780134900.609375,10.25,,,1964189.0
1780134900.625,8.31,,,1963792.0
1780134900.640625,6.49,,,1963848.0
1780134900.65625,4.87,,,1963860.0
1780134900.671875,3.41,,,1964195.0
1780134900.6875,2.13,,,1964784.0
1780134900.703125,0.98,,,1965314.0
1780134900.71875,-0.06,,,1966399.0
1780134900.734375,-1.07,,,1967203.0
1780134900.75,-2.21,,,1967790.0
1780134900.765625,-3.66,,,1965934.0
1780134900.78125,-5.49,,,1962075.0
1780134900.796875,-7.53,,,1958576.0
1780134900.8125,-9.35,,,1956012.0
1780134900.828125,-10.25,,,1953111.0
1780134900.84375,-9.59,,,1954182.0
1780134900.859375,-6.89,,,1953136.0
1780134900.875,-2.07,,,1953126.0
1780134900.890625,4.53,,,1953225.0
1780134900.90625,12.27,,,1953280.0
1780134900.921875,20.3,,,1953190.0
1780134900.9375,27.74,,,1953948.0
1780134900.953125,33.77,,,1954639.0
1780134900.96875,37.8,,,1955730.0
1780134900.984375,39.52,,,1956952.0
1780134901.0,38.97,,,1958078.0
1780134901.015625,36.44,,,1959693.0
1780134901.03125,32.43,,,1960439.0
1780134901.046875,27.5,,,1958497.0
1780134901.0625,22.17,,,1954834.0
1780134901.078125,16.86,,,1951344.0
1780134901.09375,11.91,,,1948785.0
1780134901.109375,7.53,,,1946646.0
1780134901.125,3.93,,,1945855.0
1780134901.140625,1.21,,,1945630.0
1780134901.15625,-0.56,,,1945665.0
1780134901.171875,-1.54,,,1945387.0
1780134901.1875,-2.01,,,1945393.0
1780134901.203125,-2.3,,,1945207.0
1780134901.21875,-2.77,,,1945858.0
1780134901.234375,-3.56,,,1946224.0
1780134901.25,-4.65,,,1947430.0
1780134901.265625,-5.89,,,1948619.0
1780134901.28125,-7.09,,,1949673.0
1780134901.296875,-8.09,,,1951052.0
1780134901.3125,-8.77,,,1952474.0
1780134901.328125,-9.06,,,1953205.0
1780134901.34375,-8.95,,,1951147.0
1780134901.359375,-8.58,,,1947890.0
1780134901.375,-8.21,,,1945238.0
1780134901.390625,-8.24,,,1943479.0
1780134901.40625,-9.15,,,1942258.0
1780134901.421875,-11.22,,,1942125.0
1780134901.4375,-14.31,,,1942225.0
1780134901.453125,-17.79,,,1942008.0
1780134901.46875,-20.64,,,1941987.0
1780134901.484375,-21.76,,,1942229.0
1780134901.5,-20.36,,,1942202.0
1780134901.515625,-16.27,,,1944964.0
1780134901.53125,-9.97,,,1943628.0
1780134901.546875,-2.35,,,1942822.0
1780134901.5625,5.48,,,1946559.0
1780134901.578125,12.54,,,1947844.0
1780134901.59375,18.1,,,1949528.0
1780134901.609375,21.79,,,1950824.0
1780134901.625,23.58,,,1946370.0
1780134901.640625,23.67,,,1944742.0
1780134901.65625,22.49,,,1950955.0
1780134901.671875,20.59,,,1948892.0
1780134901.6875,18.49,,,1943941.0
1780134901.703125,16.46,,,1944237.0
1780134901.71875,14.55,,,1943696.0
1780134901.734375,12.51,,,1945100.0
1780134901.75,10.01,,,1945969.0
1780134901.765625,6.78,,,1946618.0
1780134901.78125,2.74,,,1948229.0
1780134901.796875,-1.94,,,1947356.0
1780134901.8125,-7.01,,,1949317.0
1780134901.828125,-12.14,,,1950884.0
1780134901.84375,-17.03,,,1952482.0
1780134901.859375,-21.45,,,1954091.0
1780134901.875,-25.27,,,1956066.0
1780134901.890625,-28.42,,,1957838.0
1780134901.90625,-31.0,,,1958966.0
1780134901.921875,-33.21,,,1958228.0
1780134901.9375,-35.4,,,1955821.0
1780134901.953125,-37.83,,,1953193.0
1780134901.96875,-40.52,,,1950984.0
1780134901.984375,-43.2,,,1950006.0
1780134902.0,-45.23,,,1949167.0
1780134902.015625,-45.86,,,1949377.0
1780134902.03125,-44.45,,,1949637.0
1780134902.046875,-40.69,,,1949986.0
1780134902.0625,-34.7,,,1950167.0
1780134902.078125,-26.99,,,1950901.0
1780134902.09375,-18.33,,,1951149.0
1780134902.109375,-9.57,,,1951837.0
1780134902.125,-1.45,,,1953090.0
1780134902.140625,5.49,,,1954351.0
1780134902.15625,10.95,,,1955737.0
1780134902.171875,14.89,,,1957201.0
1780134902.1875,17.48,,,1958356.0
1780134902.203125,18.96,,,1959684.0
1780134902.21875,19.55,,,1958867.0
1780134902.234375,19.45,,,1955890.0
1780134902.25,18.73,,,1953091.0
1780134902.265625,17.53,,,1950891.0
1780134902.28125,16.08,,,1949702.0
1780134902.296875,14.71,,,1948765.0
1780134902.3125,13.77,,,1949000.0
1780134902.328125,13.47,,,1949060.0
1780134902.34375,13.78,,,1949060.0
1780134902.359375,14.4,,,1949050.0
1780134902.375,14.84,,,1949435.0
1780134902.390625,14.64,,,1950087.0
1780134902.40625,13.52,,,1950652.0
1780134902.421875,11.58,,,1952264.0
1780134902.4375,9.12,,,1953989.0
1780134902.453125,6.52,,,1955574.0
1780134902.46875,4.06,,,1957384.0
1780134902.484375,1.74,,,1959031.0
1780134902.5,-0.61,,,1959143.0
1780134902.515625,-3.2,,,1956661.0
1780134902.53125,-6.14,,,1954517.0
1780134902.546875,-9.39,,,1952853.0
1780134902.5625,-12.69,,,1952223.0
1780134902.578125,-15.76,,,1952349.0
1780134902.59375,-18.25,,,1952742.0
1780134902.609375,-19.82,,,1953643.0
1780134902.625,-20.06,,,1954063.0
1780134902.640625,-18.56,,,1954375.0
1780134902.65625,-15.05,,,1954889.0
1780134902.671875,-9.57,,,1955841.0
1780134902.6875,-2.53,,,1956897.0
1780134902.703125,5.36,,,1958173.0
1780134902.71875,13.31,,,1959346.0
1780134902.734375,20.7,,,1960895.0
1780134902.75,27.19,,,1962089.0
1780134902.765625,32.71,,,1963642.0
1780134902.78125,37.24,,,1962562.0
1780134902.796875,40.81,,,1959603.0
1780134902.8125,43.33,,,1956546.0
1780134902.828125,44.74,,,1953931.0
1780134902.84375,45.05,,,1952136.0
1780134902.859375,44.37,,,1951028.0
1780134902.875,42.93,,,1950620.0
1780134902.890625,40.95,,,1950610.0
1780134902.90625,38.64,,,1950799.0
1780134902.921875,36.18,,,1950568.0
1780134902.9375,33.74,,,1950701.0
1780134902.953125,31.55,,,1951093.0
1780134902.96875,29.78,,,1951478.0
1780134902.984375,28.6,,,1952374.0
1780134903.0,27.91,,,1952979.0
1780134903.015625,27.45,,,1954316.0
1780134903.03125,26.7,,,1955340.0
1780134903.046875,25.16,,,1956262.0
1780134903.0625,22.5,,,1955037.0
1780134903.078125,18.72,,,1951211.0
1780134903.09375,14.24,,,1947639.0
1780134903.109375,9.62,,,1944551.0
1780134903.125,5.46,,,1942821.0
1780134903.140625,1.98,,,1941456.0
1780134903.15625,-1.0,,,1941278.0
1780134903.171875,-3.88,,,1941382.0
1780134903.1875,-7.15,,,1941212.0
1780134903.203125,-10.8,,,1941076.0
1780134903.21875,-14.31,,,1941370.0
1780134903.234375,-16.68,,,1941503.0
1780134903.25,-16.75,,,1942493.0
1780134903.265625,-13.67,,,1943916.0
1780134903.28125,-7.35,,,1945516.0
1780134903.296875,1.51,,,1946552.0
1780134903.3125,11.49,,,1948115.0
1780134903.328125,20.8,,,1947901.0
1780134903.34375,27.72,,,1945205.0
1780134903.359375,30.95,,,1942167.0
1780134903.375,29.84,,,1939689.0
1780134903.390625,24.52,,,1938440.0
1780134903.40625,15.9,,,1938100.0
1780134903.421875,5.35,,,1938498.0
1780134903.4375,-5.5,,,1938828.0
1780134903.453125,-15.24,,,1939193.0
1780134903.46875,-22.96,,,1939554.0
1780134903.484375,-28.4,,,1939867.0
1780134903.5,-31.87,,,1940236.0
1780134903.515625,-33.99,,,1941127.0
1780134903.53125,-35.43,,,1942484.0
1780134903.546875,-36.74,,,1943469.0
1780134903.5625,-38.24,,,1944753.0
1780134903.578125,-40.01,,,1946251.0
1780134903.59375,-41.92,,,1946819.0
1780134903.609375,-43.83,,,1944195.0
1780134903.625,-45.44,,,1940430.0
1780134903.640625,-46.56,,,1937143.0
1780134903.65625,-47.09,,,1934461.0
1780134903.671875,-47.07,,,1932577.0
1780134903.6875,-46.67,,,1931574.0
1780134903.703125,-46.12,,,1931494.0
1780134903.71875,-45.63,,,1931539.0
1780134903.734375,-45.29,,,1931552.0
1780134903.75,-45.17,,,1931247.0
1780134903.765625,-45.14,,,1931176.0
1780134903.78125,-45.01,,,1931448.0
1780134903.796875,-44.54,,,1933064.0
1780134903.8125,-43.5,,,1932065.0
1780134903.828125,-41.85,,,1934332.0
1780134903.84375,-39.81,,,1935544.0
1780134903.859375,-37.79,,,1936459.0
1780134903.875,-36.02,,,1936001.0
1780134903.890625,-34.4,,,1932868.0
1780134903.90625,-32.26,,,1929409.0
1780134903.921875,-28.58,,,1926091.0
1780134903.9375,-22.51,,,1924049.0
1780134903.953125,-13.79,,,1923060.0
1780134903.96875,-3.11,,,1922805.0
1780134903.984375,8.19,,,1922554.0
1780134904.0,18.49,,,1922641.0
1780134904.015625,26.45,,,1922735.0
1780134904.03125,31.43,,,1922872.0
1780134904.046875,33.43,,,1923530.0
1780134904.0625,32.99,,,1924201.0
1780134904.078125,30.74,,,1925192.0
1780134904.09375,27.29,,,1926562.0
1780134904.109375,23.09,,,1928048.0
1780134904.125,18.53,,,1929721.0
1780134904.140625,13.94,,,1930410.0
1780134904.15625,9.62,,,1928718.0
1780134904.171875,5.73,,,1925778.0
1780134904.1875,2.29,,,1923361.0
1780134904.203125,-0.76,,,1921799.0
1780134904.21875,-3.6,,,1921130.0
1780134904.234375,-6.3,,,1921590.0
1780134904.25,-8.85,,,1922318.0
1780134904.265625,-11.03,,,1923069.0
1780134904.28125,-12.63,,,1923897.0
1780134904.296875,-13.48,,,1924549.0
1780134904.3125,-13.68,,,1925270.0
1780134904.328125,-13.55,,,1926606.0
1780134904.34375,-13.54,,,1928155.0
1780134904.359375,-14.11,,,1929613.0
1780134904.375,-15.54,,,1931457.0
1780134904.390625,-17.94,,,1933324.0
1780134904.40625,-21.19,,,1935523.0
1780134904.421875,-25.02,,,1936042.0
1780134904.4375,-28.91,,,1933767.0
1780134904.453125,-32.12,,,1930827.0
1780134904.46875,-33.78,,,1928449.0
1780134904.484375,-33.02,,,1926775.0
1780134904.5,-29.34,,,1925803.0
1780134904.515625,-22.72,,,1925759.0
1780134904.53125,-13.78,,,1926356.0
1780134904.546875,-3.54,,,1926590.0
1780134904.5625,6.88,,,1926995.0
1780134904.578125,16.61,,,1927634.0
1780134904.59375,25.16,,,1928677.0
1780134904.609375,32.32,,,1929246.0
1780134904.625,38.03,,,1930367.0
1780134904.640625,42.11,,,1931628.0
1780134904.65625,44.37,,,1933308.0
1780134904.671875,44.61,,,1934803.0
1780134904.6875,42.9,,,1936426.0
1780134904.703125,39.51,,,1937352.0
1780134904.71875,34.96,,,1934926.0
1780134904.734375,29.8,,,1932452.0
1780134904.75,24.51,,,1930412.0
1780134904.765625,19.47,,,1929276.0
1780134904.78125,14.91,,,1928693.0
1780134904.796875,11.06,,,1928669.0
1780134904.8125,8.1,,,1929401.0
1780134904.828125,6.17,,,1930111.0
1780134904.84375,5.19,,,1930327.0
1780134904.859375,4.92,,,1930949.0
1780134904.875,4.96,,,1931696.0
1780134904.890625,4.86,,,1933048.0
1780134904.90625,4.31,,,1934226.0
1780134904.921875,3.22,,,1936001.0
1780134904.9375,1.72,,,1937786.0
1780134904.953125,0.02,,,1939961.0
1780134904.96875,-1.68,,,1941514.0
1780134904.984375,-3.37,,,1941249.0
1780134905.0,-5.3,,,1939248.0
1780134905.015625,-7.87,,,1937315.0
1780134905.03125,-11.44,,,1936461.0
1780134905.046875,-16.07,,,1936151.0
1780134905.0625,-21.42,,,1936644.0
1780134905.078125,-26.62,,,1937762.0
1780134905.09375,-30.51,,,1939014.0
1780134905.109375,-31.96,,,1939956.0
1780134905.125,-30.23,,,1941034.0
1780134905.140625,-25.25,,,1942028.0
1780134905.15625,-17.62,,,1943194.0
1780134905.171875,-8.47,,,1944849.0
1780134905.1875,1.02,,,1946416.0
1780134905.203125,9.81,,,1948030.0
1780134905.21875,17.26,,,1949911.0
1780134905.234375,23.12,,,1951866.0
1780134905.25,27.36,,,1951992.0
1780134905.265625,30.08,,,1950161.0
1780134905.28125,31.36,,,1948081.0
1780134905.296875,31.21,,,1946171.0
1780134905.3125,29.64,,,1945360.0
1780134905.328125,26.79,,,1945289.0
1780134905.34375,22.94,,,1945432.0
1780134905.359375,18.65,,,1946322.0
1780134905.375,14.54,,,1946599.0
1780134905.390625,11.08,,,1947500.0
1780134905.40625,8.51,,,1948197.0
1780134905.421875,6.71,,,1949070.0
1780134905.4375,5.33,,,1950257.0
1780134905.453125,3.99,,,1951038.0
1780134905.46875,2.53,,,1952515.0
1780134905.484375,0.95,,,1954049.0
1780134905.5,-0.59,,,1955350.0
1780134905.515625,-2.02,,,1956741.0
1780134905.53125,-3.47,,,1956976.0
1780134905.546875,-5.19,,,1954882.0
1780134905.5625,-7.47,,,1952556.0
1780134905.578125,-10.47,,,1950820.0
1780134905.59375,-14.2,,,1949568.0
1780134905.609375,-18.5,,,1948758.0
1780134905.625,-23.3,,,1948805.0
1780134905.640625,-28.57,,,1949286.0
1780134905.65625,-34.23,,,1949759.0
1780134905.671875,-40.07,,,1949893.0
1780134905.6875,-45.57,,,1950265.0
1780134905.703125,-49.99,,,1951084.0
1780134905.71875,-52.49,,,1951946.0
1780134905.734375,-52.48,,,1952729.0
1780134905.75,-49.78,,,1954094.0
1780134905.765625,-44.67,,,1955739.0
1780134905.78125,-37.76,,,1957366.0
1780134905.796875,-29.71,,,1959247.0
1780134905.8125,-21.07,,,1959674.0
1780134905.828125,-12.21,,,1958071.0
1780134905.84375,-3.42,,,1956959.0
1780134905.859375,4.88,,,1955872.0
1780134905.875,11.97,,,1955733.0
1780134905.890625,17.02,,,1955835.0
1780134905.90625,19.37,,,1956857.0
1780134905.921875,18.85,,,1957901.0
1780134905.9375,16.06,,,1960078.0
1780134905.953125,12.14,,,1958977.0
1780134905.96875,8.5,,,1961011.0
1780134905.984375,6.31,,,1962232.0
1780134906.0,6.23,,,1963495.0
1780134906.015625,8.19,,,1965313.0
1780134906.03125,11.56,,,1967022.0
1780134906.046875,15.21,,,1968811.0
1780134906.0625,17.74,,,1970712.0
1780134906.078125,17.76,,,1972557.0
1780134906.09375,14.35,,,1974231.0
1780134906.109375,7.49,,,1973216.0
1780134906.125,-1.59,,,1971370.0
1780134906.140625,-10.69,,,1970125.0
1780134906.15625,-17.25,,,1969380.0
1780134906.171875,-19.39,,,1968967.0
1780134906.1875,-16.66,,,1969414.0
1780134906.203125,-10.27,,,1970392.0
1780134906.21875,-2.52,,,1971496.0
1780134906.234375,4.03,,,1972015.0
1780134906.25,7.5,,,1972781.0
1780134906.265625,7.2,,,1973812.0
1780134906.28125,3.59,,,1975040.0
1780134906.296875,-2.11,,,1976100.0
1780134906.3125,-8.35,,,1977566.0
1780134906.328125,-13.6,,,1979312.0
1780134906.34375,-16.62,,,1980877.0
1780134906.359375,-16.69,,,1982157.0
1780134906.375,-13.65,,,1983663.0
1780134906.390625,-8.03,,,1983997.0
1780134906.40625,-0.77,,,1982393.0
1780134906.421875,6.94,,,1980843.0
1780134906.4375,14.04,,,1979983.0
1780134906.453125,19.79,,,1979340.0
1780134906.46875,23.9,,,1979282.0
1780134906.484375,26.35,,,1979798.0
1780134906.5,27.31,,,1980662.0
1780134906.515625,27.0,,,1981242.0
1780134906.53125,25.59,,,1981811.0
1780134906.546875,23.29,,,1982281.0
1780134906.5625,20.28,,,1982827.0
1780134906.578125,16.76,,,1983780.0
1780134906.59375,12.97,,,1985047.0
1780134906.609375,9.11,,,1986569.0
1780134906.625,5.32,,,1987936.0
1780134906.640625,1.72,,,1989042.0
1780134906.65625,-1.65,,,1990808.0
1780134906.671875,-4.76,,,1990983.0
1780134906.6875,-7.5,,,1990058.0
1780134906.703125,-9.78,,,1988602.0
1780134906.71875,-11.55,,,1987956.0
1780134906.734375,-12.95,,,1987993.0
1780134906.75,-14.23,,,1988770.0
1780134906.765625,-15.79,,,1989693.0
1780134906.78125,-17.89,,,1990764.0
1780134906.796875,-20.63,,,1991709.0
1780134906.8125,-23.87,,,1992826.0
1780134906.828125,-27.33,,,1993925.0
1780134906.84375,-30.84,,,1994628.0
1780134906.859375,-34.37,,,1995686.0
1780134906.875,-38.12,,,1996991.0
1780134906.890625,-42.2,,,1998640.0
1780134906.90625,-46.49,,,2000344.0
1780134906.921875,-50.41,,,2001702.0
1780134906.9375,-52.91,,,2003578.0
1780134906.953125,-52.85,,,2003986.0
1780134906.96875,-49.28,,,2002646.0
1780134906.984375,-41.88,,,2001172.0
1780134907.0,-31.08,,,1999972.0
1780134907.015625,-17.97,,,1999377.0
1780134907.03125,-3.99,,,1999502.0
1780134907.046875,9.49,,,2000102.0
1780134907.0625,21.44,,,2000828.0
1780134907.078125,31.3,,,2001520.0
1780134907.09375,38.88,,,2002072.0
1780134907.109375,44.23,,,2002738.0
1780134907.125,47.41,,,2003317.0
1780134907.140625,48.53,,,2004229.0
1780134907.15625,47.74,,,2005091.0
1780134907.171875,45.35,,,2006109.0
1780134907.1875,41.83,,,2007482.0
1780134907.203125,37.71,,,2008732.0
1780134907.21875,33.48,,,2009856.0
1780134907.234375,29.46,,,2011078.0
1780134907.25,25.82,,,2010550.0
1780134907.265625,22.53,,,2008749.0
1780134907.28125,19.6,,,2006488.0
1780134907.296875,17.01,,,2005146.0
1780134907.3125,14.75,,,2004238.0
1780134907.328125,12.85,,,2004200.0
1780134907.34375,11.28,,,2004253.0
1780134907.359375,9.97,,,2004379.0
1780134907.375,8.8,,,2004755.0
1780134907.390625,7.62,,,2004966.0
1780134907.40625,6.21,,,2004789.0
1780134907.421875,4.42,,,2005226.0
1780134907.4375,2.09,,,2005701.0
1780134907.453125,-0.85,,,2006670.0
1780134907.46875,-4.36,,,2007372.0
1780134907.484375,-8.34,,,2008319.0
1780134907.5,-12.71,,,2008844.0
1780134907.515625,-17.31,,,2010008.0
1780134907.53125,-22.0,,,2011073.0
1780134907.546875,-26.46,,,2010091.0
1780134907.5625,-30.09,,,2008020.0
1780134907.578125,-31.95,,,2006031.0
1780134907.59375,-31.01,,,2004727.0
1780134907.609375,-26.44,,,2004129.0
1780134907.625,-17.95,,,2004169.0
1780134907.640625,-6.02,,,2004882.0
1780134907.65625,8.16,,,2005455.0
1780134907.671875,23.05,,,2005679.0
1780134907.6875,37.12,,,2006191.0
1780134907.703125,49.29,,,2006286.0
1780134907.71875,59.0,,,2006849.0
1780134907.734375,66.1,,,2007487.0
1780134907.75,70.72,,,2008536.0
1780134907.765625,72.98,,,2009623.0
1780134907.78125,72.94,,,2010757.0
1780134907.796875,70.76,,,2011961.0
1780134907.8125,66.77,,,2012971.0
1780134907.828125,61.58,,,2010512.0
1780134907.84375,55.97,,,2012462.0
1780134907.859375,50.73,,,2008258.0
1780134907.875,46.22,,,2006454.0
1780134907.890625,42.33,,,2005268.0
1780134907.90625,38.33,,,2004734.0
1780134907.921875,33.27,,,2004097.0
1780134907.9375,26.49,,,2004198.0
1780134907.953125,17.98,,,2003962.0
1780134907.96875,8.48,,,2003746.0
1780134907.984375,-0.76,,,2003372.0
1780134908.0,-8.64,,,2003474.0
1780134908.015625,-14.64,,,2003579.0
1780134908.03125,-19.01,,,2004276.0
1780134908.046875,-22.58,,,2004865.0
1780134908.0625,-26.29,,,2005438.0
1780134908.078125,-30.73,,,2006254.0
1780134908.09375,-36.01,,,2007098.0
1780134908.109375,-41.83,,,2006951.0
1780134908.125,-47.7,,,2004581.0
1780134908.140625,-53.05,,,2001289.0
1780134908.15625,-57.28,,,1998470.0
1780134908.171875,-59.73,,,1996374.0
1780134908.1875,-59.69,,,1994800.0
1780134908.203125,-56.64,,,1994169.0
1780134908.21875,-50.37,,,1993629.0
1780134908.234375,-41.16,,,1993071.0
1780134908.25,-29.67,,,1992609.0
1780134908.265625,-16.9,,,1991595.0
1780134908.28125,-3.85,,,1991393.0
1780134908.296875,8.55,,,1991225.0
1780134908.3125,19.65,,,1991093.0
1780134908.328125,29.13,,,1991219.0
1780134908.34375,36.86,,,1991743.0
1780134908.359375,42.7,,,1991942.0
1780134908.375,46.17,,,1992601.0
1780134908.390625,46.48,,,1992392.0
1780134908.40625,42.74,,,1989315.0
1780134908.421875,34.65,,,1985872.0
1780134908.4375,23.03,,,1983193.0
1780134908.453125,10.1,,,1981381.0
1780134908.46875,-1.19,,,1980091.0
1780134908.484375,-8.14,,,1979388.0
1780134908.5,-9.45,,,1979063.0
1780134908.515625,-5.73,,,1978773.0
1780134908.53125,0.86,,,1978256.0
1780134908.546875,7.55,,,1978135.0
1780134908.5625,12.18,,,1978076.0
1780134908.578125,13.81,,,1978080.0
1780134908.59375,12.67,,,1978316.0
1780134908.609375,9.57,,,1979178.0
1780134908.625,5.19,,,1979589.0
1780134908.640625,-0.2,,,1980173.0
1780134908.65625,-6.73,,,1978371.0
1780134908.671875,-14.67,,,1975055.0
1780134908.6875,-24.15,,,1971685.0
1780134908.703125,-35.01,,,1968569.0
1780134908.71875,-46.96,,,1966431.0
1780134908.734375,-59.52,,,1965305.0
1780134908.75,-72.1,,,1964601.0
1780134908.765625,-83.95,,,1964012.0
1780134908.78125,-94.06,,,1963525.0
1780134908.796875,-101.26,,,1962831.0
1780134908.8125,-104.43,,,1962460.0
1780134908.828125,-102.83,,,1962263.0
1780134908.84375,-96.27,,,1962017.0
1780134908.859375,-85.28,,,1962324.0
1780134908.875,-70.92,,,1962731.0
1780134908.890625,-54.56,,,1963112.0
1780134908.90625,-37.57,,,1962680.0
1780134908.921875,-21.16,,,1959472.0
1780134908.9375,-6.28,,,1954885.0
1780134908.953125,6.45,,,1950492.0
1780134908.96875,16.63,,,1946636.0
1780134908.984375,24.13,,,1943862.0
1780134909.0,29.06,,,1941924.0
1780134909.015625,31.7,,,1940230.0
1780134909.03125,32.51,,,1939288.0
1780134909.046875,31.93,,,1938032.0
1780134909.0625,30.4,,,1936776.0
1780134909.078125,28.2,,,1935852.0
1780134909.09375,25.57,,,1934916.0
1780134909.109375,22.72,,,1934561.0
1780134909.125,19.88,,,1934228.0
1780134909.140625,17.26,,,1934250.0
1780134909.15625,15.07,,,1934422.0
1780134909.171875,13.39,,,1934316.0
1780134909.1875,12.18,,,1931812.0
1780134909.203125,11.2,,,1926926.0
1780134909.21875,10.12,,,1921835.0
1780134909.234375,8.6,,,1917647.0
1780134909.25,6.44,,,1914705.0
1780134909.265625,3.65,,,1912549.0
1780134909.28125,0.35,,,1911408.0
1780134909.296875,-3.28,,,1910174.0
1780134909.3125,-7.23,,,1909013.0
1780134909.328125,-11.72,,,1907885.0
1780134909.34375,-17.07,,,1907089.0
1780134909.359375,-23.6,,,1906871.0
1780134909.375,-31.29,,,1906592.0
1780134909.390625,-39.56,,,1906950.0
1780134909.40625,-47.29,,,1907515.0
1780134909.421875,-52.9,,,1908552.0
1780134909.4375,-54.76,,,1908967.0
1780134909.453125,-51.67,,,1907194.0
1780134909.46875,-43.2,,,1902925.0
1780134909.484375,-29.85,,,1899002.0
1780134909.5,-12.97,,,1895634.0
1780134909.515625,5.63,,,1893553.0
1780134909.53125,24.09,,,1892538.0
1780134909.546875,40.9,,,1892254.0
1780134909.5625,55.06,,,1892276.0
1780134909.578125,66.05,,,1892266.0
1780134909.59375,73.69,,,1892110.0
1780134909.609375,78.08,,,1892296.0
1780134909.625,79.46,,,1892952.0
1780134909.640625,78.21,,,1893600.0
1780134909.65625,74.9,,,1894818.0
1780134909.671875,70.08,,,1896138.0
1780134909.6875,64.36,,,1897505.0
1780134909.703125,58.23,,,1898976.0
1780134909.71875,52.04,,,1898496.0
1780134909.734375,46.09,,,1895062.0
1780134909.75,40.53,,,1890873.0
1780134909.765625,35.54,,,1887332.0
1780134909.78125,31.18,,,1884741.0
1780134909.796875,27.43,,,1882970.0
1780134909.8125,24.18,,,1882283.0
1780134909.828125,21.18,,,1882344.0
1780134909.84375,18.17,,,1882155.0
1780134909.859375,14.88,,,1882109.0
1780134909.875,11.14,,,1882050.0
1780134909.890625,6.98,,,1882497.0
1780134909.90625,2.53,,,1883000.0
1780134909.921875,-1.91,,,1884120.0
1780134909.9375,-6.05,,,1885254.0
1780134909.953125,-9.72,,,1886737.0
1780134909.96875,-12.93,,,1888123.0
1780134909.984375,-15.93,,,1889739.0
1780134910.0,-19.15,,,1889589.0
1780134910.015625,-23.02,,,1887082.0
1780134910.03125,-27.71,,,1883104.0
1780134910.046875,-32.78,,,1879655.0
1780134910.0625,-37.15,,,1876846.0
1780134910.078125,-39.24,,,1875362.0
1780134910.09375,-37.59,,,1874850.0
1780134910.109375,-31.37,,,1874397.0
1780134910.125,-20.93,,,1874795.0
1780134910.140625,-7.69,,,1874748.0
1780134910.15625,6.34,,,1875059.0
1780134910.171875,19.19,,,1875474.0
1780134910.1875,29.55,,,1876346.0
1780134910.203125,36.95,,,1877526.0
1780134910.21875,41.52,,,1879235.0
1780134910.234375,43.72,,,1880732.0
1780134910.25,43.91,,,1882909.0
1780134910.265625,42.35,,,1884472.0
1780134910.28125,39.22,,,1886133.0
1780134910.296875,34.81,,,1885064.0
1780134910.3125,29.51,,,1882474.0
1780134910.328125,23.71,,,1880974.0
1780134910.34375,17.83,,,1879820.0
1780134910.359375,12.16,,,1879897.0
1780134910.375,6.94,,,1880672.0
1780134910.390625,2.46,,,1882165.0
1780134910.40625,-1.05,,,1883381.0
1780134910.421875,-3.42,,,1884796.0
1780134910.4375,-4.65,,,1886532.0
1780134910.453125,-5.06,,,1887907.0
1780134910.46875,-5.27,,,1890025.0
1780134910.484375,-5.96,,,1892241.0
1780134910.5,-7.69,,,1894605.0
1780134910.515625,-10.67,,,1897110.0
1780134910.53125,-14.73,,,1899595.0
1780134910.546875,-19.43,,,1902135.0
1780134910.5625,-24.22,,,1903411.0
1780134910.578125,-28.8,,,1902604.0
1780134910.59375,-33.15,,,1901116.0
1780134910.609375,-37.58,,,1899691.0
1780134910.625,-42.49,,,1899343.0
1780134910.640625,-48.14,,,1899304.0
1780134910.65625,-54.3,,,1900008.0
1780134910.671875,-60.15,,,1901343.0
1780134910.6875,-64.44,,,1902753.0
1780134910.703125,-65.66,,,1903958.0
1780134910.71875,-62.63,,,1905427.0
1780134910.734375,-54.84,,,1906752.0
1780134910.75,-42.67,,,1908656.0
1780134910.765625,-27.34,,,1910712.0
1780134910.78125,-10.65,,,1912699.0
1780134910.796875,5.54,,,1914788.0
1780134910.8125,19.73,,,1917119.0
1780134910.828125,31.01,,,1919027.0
1780134910.84375,39.32,,,1921323.0
1780134910.859375,45.17,,,1922662.0
1780134910.875,49.45,,,1921935.0
1780134910.890625,52.94,,,1920463.0
1780134910.90625,56.01,,,1919221.0
1780134910.921875,58.45,,,1918651.0
1780134910.9375,59.63,,,1918616.0
1780134910.953125,58.88,,,1919136.0
1780134910.96875,55.83,,,1920120.0
1780134910.984375,50.66,,,1921305.0
1780134911.0,43.98,,,1922362.0
1780134911.015625,36.6,,,1923267.0
1780134911.03125,29.21,,,1924595.0
1780134911.046875,22.21,,,1926163.0
1780134911.0625,15.77,,,1928140.0
1780134911.078125,9.95,,,1929493.0
1780134911.09375,4.84,,,1931621.0
1780134911.109375,0.48,,,1933769.0
1780134911.125,-3.18,,,1935477.0
1780134911.140625,-6.37,,,1937259.0
1780134911.15625,-9.46,,,1938918.0
1780134911.171875,-12.84,,,1939928.0
1780134911.1875,-16.69,,,1939338.0
1780134911.203125,-20.96,,,1938520.0
1780134911.21875,-25.46,,,1938422.0
1780134911.234375,-29.96,,,1938997.0
1780134911.25,-34.52,,,1939791.0
1780134911.265625,-39.35,,,1941361.0
1780134911.28125,-44.86,,,1943104.0
1780134911.296875,-51.26,,,1944884.0
1780134911.3125,-58.33,,,1946216.0
1780134911.328125,-65.29,,,1948074.0
1780134911.34375,-70.82,,,1950148.0
1780134911.359375,-73.33,,,1952543.0
1780134911.375,-71.41,,,1954585.0
1780134911.390625,-64.23,,,1957108.0
1780134911.40625,-51.92,,,1959744.0
1780134911.421875,-35.55,,,1962059.0
1780134911.4375,-16.92,,,1964542.0
1780134911.453125,1.88,,,1967233.0
1780134911.46875,18.93,,,1968619.0
1780134911.484375,32.89,,,1968374.0
1780134911.5,43.17,,,1967964.0
1780134911.515625,49.9,,,1968081.0
1780134911.53125,53.57,,,1968668.0
1780134911.546875,54.85,,,1969384.0
1780134911.5625,54.3,,,1970550.0
1780134911.578125,52.33,,,1972050.0
1780134911.59375,49.27,,,1973134.0
1780134911.609375,45.47,,,1974465.0
1780134911.625,41.3,,,1975524.0
1780134911.640625,37.11,,,1976923.0
1780134911.65625,33.09,,,1978409.0
1780134911.671875,29.22,,,1980036.0
1780134911.6875,25.34,,,1981980.0
1780134911.703125,21.39,,,1983858.0
1780134911.71875,17.43,,,1985674.0
1780134911.734375,13.76,,,1987380.0
1780134911.75,10.7,,,1989126.0
1780134911.765625,8.42,,,1990034.0
1780134911.78125,6.79,,,1989206.0
1780134911.796875,5.4,,,1988117.0
1780134911.8125,3.73,,,1987511.0
1780134911.828125,1.45,,,1986908.0
1780134911.84375,-1.52,,,1987077.0
1780134911.859375,-4.97,,,1987440.0
1780134911.875,-8.59,,,1987971.0
1780134911.890625,-12.14,,,1988798.0
1780134911.90625,-15.6,,,1989494.0
1780134911.921875,-19.16,,,1990103.0
1780134911.9375,-23.04,,,1990993.0
1780134911.953125,-27.4,,,1991430.0
1780134911.96875,-32.09,,,1992673.0
1780134911.984375,-36.62,,,1994181.0
1780134912.0,-40.17,,,1995717.0
1780134912.015625,-41.74,,,1996955.0
1780134912.03125,-40.41,,,1998466.0
1780134912.046875,-35.55,,,2000306.0
1780134912.0625,-27.14,,,2001296.0
1780134912.078125,-15.77,,,2000851.0
1780134912.09375,-2.54,,,1999961.0
1780134912.109375,11.11,,,1999665.0
1780134912.125,23.81,,,1999728.0
1780134912.140625,34.51,,,1999936.0
1780134912.15625,42.63,,,2000739.0
1780134912.171875,48.05,,,2001769.0
1780134912.1875,50.99,,,2003111.0
1780134912.203125,51.8,,,2004079.0
1780134912.21875,50.87,,,2004802.0
1780134912.234375,48.56,,,2006123.0
1780134912.25,45.18,,,2007268.0
1780134912.265625,41.04,,,2008575.0
1780134912.28125,36.47,,,2010289.0
1780134912.296875,31.77,,,2011742.0
1780134912.3125,27.23,,,2013161.0
1780134912.328125,23.1,,,2015167.0
1780134912.34375,19.59,,,2015602.0
1780134912.359375,16.85,,,2014777.0
1780134912.375,14.83,,,2013448.0
1780134912.390625,13.28,,,2012871.0
1780134912.40625,11.83,,,2012864.0
1780134912.421875,10.05,,,2013029.0
1780134912.4375,7.64,,,2013632.0
1780134912.453125,4.54,,,2014762.0
1780134912.46875,1.02,,,2015439.0
1780134912.484375,-2.6,,,2016309.0
1780134912.5,-6.04,,,2016710.0
1780134912.515625,-9.24,,,2017408.0
1780134912.53125,-12.38,,,2018365.0
1780134912.546875,-15.75,,,2019815.0
1780134912.5625,-19.63,,,2020694.0
1780134912.578125,-24.23,,,2022059.0
1780134912.59375,-29.51,,,2022709.0
1780134912.609375,-35.21,,,2024006.0
1780134912.625,-40.85,,,2024014.0
1780134912.640625,-45.66,,,2022240.0
1780134912.65625,-48.7,,,2020242.0
1780134912.671875,-49.06,,,2018805.0
1780134912.6875,-45.98,,,2017677.0
1780134912.703125,-39.23,,,2016963.0
1780134912.71875,-29.14,,,2016699.0
1780134912.734375,-16.57,,,2016800.0
1780134912.75,-2.77,,,2017068.0
1780134912.765625,10.92,,,2017378.0
1780134912.78125,23.4,,,2017517.0
1780134912.796875,33.79,,,2017647.0
1780134912.8125,41.58,,,2018456.0
1780134912.828125,46.53,,,2019010.0
1780134912.84375,48.62,,,2019967.0
1780134912.859375,48.08,,,2020915.0
1780134912.875,45.38,,,2021912.0
1780134912.890625,41.14,,,2022118.0
1780134912.90625,36.09,,,2016844.0
1780134912.921875,30.98,,,2017955.0
1780134912.9375,26.27,,,2015556.0
1780134912.953125,22.11,,,2015014.0
1780134912.96875,18.33,,,2022995.0
1780134912.984375,14.61,,,2020183.0
1780134913.0,10.67,,,2014850.0
1780134913.015625,6.45,,,2015122.0
1780134913.03125,2.15,,,2015271.0
1780134913.046875,-1.81,,,2016097.0
1780134913.0625,-4.86,,,2015444.0
1780134913.078125,-6.6,,,2017096.0
1780134913.09375,-6.9,,,2015602.0
1780134913.109375,-6.1,,,2015312.0
1780134913.125,-5.02,,,2017933.0
1780134913.140625,-4.71,,,2018898.0
1780134913.15625,-6.11,,,2019943.0
1780134913.171875,-9.68,,,2020145.0
1780134913.1875,-15.11,,,2015954.0
1780134913.203125,-21.4,,,2018017.0
1780134913.21875,-27.16,,,2013298.0
1780134913.234375,-31.21,,,2014205.0
1780134913.25,-32.99,,,2012706.0
1780134913.265625,-32.86,,,2012875.0
1780134913.28125,-31.74,,,2013327.0
1780134913.296875,-30.67,,,2013164.0
1780134913.3125,-30.2,,,2013476.0
1780134913.328125,-30.08,,,2013501.0
1780134913.34375,-29.4,,,2013803.0
1780134913.359375,-27.01,,,2014186.0
1780134913.375,-22.06,,,2014906.0
1780134913.390625,-14.43,,,2015895.0
1780134913.40625,-4.85,,,2016413.0
1780134913.421875,5.44,,,2016828.0
1780134913.4375,15.12,,,2015130.0
1780134913.453125,23.24,,,2012554.0
1780134913.46875,29.42,,,2009874.0
1780134913.484375,33.74,,,2007957.0
1780134913.5,36.52,,,2006843.0
1780134913.515625,37.98,,,2006101.0
1780134913.53125,38.07,,,2006158.0
1780134913.546875,36.63,,,2005817.0
1780134913.5625,33.6,,,2005673.0
1780134913.578125,29.24,,,2005373.0
1780134913.59375,24.2,,,2005192.0
1780134913.609375,19.3,,,2005153.0
1780134913.625,15.24,,,2006006.0
1780134913.640625,12.28,,,2006714.0
1780134913.65625,10.22,,,2007565.0
1780134913.671875,8.53,,,2007993.0
1780134913.6875,6.72,,,2008623.0
1780134913.703125,4.59,,,2006893.0
1780134913.71875,2.36,,,2003768.0
1780134913.734375,0.46,,,2001129.0
1780134913.75,-0.78,,,1998711.0
1780134913.765625,-1.37,,,1997216.0
1780134913.78125,-1.81,,,1995874.0
1780134913.796875,-2.82,,,1995532.0
1780134913.8125,-4.99,,,1994968.0
1780134913.828125,-8.49,,,1994507.0
1780134913.84375,-13.01,,,1994284.0
1780134913.859375,-17.85,,,1993912.0
1780134913.875,-22.33,,,1994114.0
1780134913.890625,-26.01,,,1994514.0
1780134913.90625,-28.81,,,1994992.0
1780134913.921875,-31.05,,,1995510.0
1780134913.9375,-33.26,,,1996296.0
1780134913.953125,-35.99,,,1996678.0
1780134913.96875,-39.59,,,1997129.0
1780134913.984375,-44.05,,,1995462.0
1780134914.0,-48.75,,,1992296.0
1780134914.015625,-52.57,,,1988681.0
1780134914.03125,-53.97,,,1986328.0
1780134914.046875,-51.55,,,1984562.0
1780134914.0625,-44.44,,,1983328.0
1780134914.078125,-32.76,,,1982730.0
1780134914.09375,-17.62,,,1982227.0
1780134914.109375,-0.77,,,1981674.0
1780134914.125,15.86,,,1981412.0
1780134914.140625,30.76,,,1981019.0
1780134914.15625,42.97,,,1981158.0
1780134914.171875,52.19,,,1981124.0
1780134914.1875,58.5,,,1981723.0
1780134914.203125,62.15,,,1982544.0
1780134914.21875,63.42,,,1982898.0
1780134914.234375,62.62,,,1983737.0
1780134914.25,60.13,,,1984537.0
1780134914.265625,56.45,,,1983822.0
1780134914.28125,52.15,,,1980939.0
1780134914.296875,47.7,,,1978505.0
1780134914.3125,43.45,,,1976165.0
1780134914.328125,39.54,,,1974887.0
1780134914.34375,35.9,,,1974160.0
1780134914.359375,32.39,,,1974459.0
1780134914.375,28.77,,,1974560.0
1780134914.390625,24.78,,,1974946.0
1780134914.40625,20.24,,,1974808.0
1780134914.421875,15.05,,,1975122.0
1780134914.4375,9.26,,,1975925.0
1780134914.453125,3.0,,,1976559.0
1780134914.46875,-3.53,,,1977766.0
1780134914.484375,-10.13,,,1978526.0
1780134914.5,-16.7,,,1980130.0
1780134914.515625,-23.22,,,1981224.0
1780134914.53125,-29.7,,,1982001.0
1780134914.546875,-36.22,,,1980109.0
1780134914.5625,-42.86,,,1977118.0
1780134914.578125,-49.77,,,1974875.0
1780134914.59375,-57.06,,,1973198.0
1780134914.609375,-64.75,,,1972216.0
1780134914.625,-72.5,,,1972001.0
1780134914.640625,-79.44,,,1972176.0
1780134914.65625,-84.22,,,1971887.0
1780134914.671875,-85.23,,,1972016.0
1780134914.6875,-81.17,,,1972334.0
1780134914.703125,-71.49,,,1972480.0
1780134914.71875,-56.71,,,1972871.0
1780134914.734375,-38.3,,,1973616.0
1780134914.75,-18.27,,,1974439.0
1780134914.765625,1.38,,,1975241.0
1780134914.78125,19.14,,,1976877.0
1780134914.796875,34.15,,,1977501.0
1780134914.8125,46.16,,,1977046.0
1780134914.828125,55.2,,,1974252.0
1780134914.84375,61.37,,,1971233.0
1780134914.859375,64.73,,,1968460.0
1780134914.875,65.42,,,1966914.0
1780134914.890625,63.72,,,1965570.0
1780134914.90625,60.21,,,1965058.0
1780134914.921875,55.64,,,1965169.0
1780134914.9375,50.9,,,1964611.0
1780134914.953125,46.77,,,1964316.0
1780134914.96875,43.78,,,1964115.0
1780134914.984375,42.08,,,1963858.0
1780134915.0,41.48,,,1964301.0
1780134915.015625,41.51,,,1964536.0
1780134915.03125,41.49,,,1965207.0
1780134915.046875,40.68,,,1966041.0
1780134915.0625,38.44,,,1966782.0
1780134915.078125,34.23,,,1967322.0
1780134915.09375,27.85,,,1965955.0
1780134915.109375,19.49,,,1962981.0
1780134915.125,9.71,,,1959924.0
1780134915.140625,-0.65,,,1958142.0
1780134915.15625,-10.7,,,1956557.0
1780134915.171875,-19.85,,,1956046.0
1780134915.1875,-28.08,,,1955995.0
1780134915.203125,-36.0,,,1956236.0
1780134915.21875,-44.74,,,1956392.0
1780134915.234375,-55.45,,,1956666.0
1780134915.25,-68.7,,,1956890.0
1780134915.265625,-84.01,,,1957285.0
1780134915.28125,-99.69,,,1958137.0
1780134915.296875,-113.11,,,1958961.0
1780134915.3125,-121.4,,,1960314.0
1780134915.328125,-122.26,,,1961322.0
1780134915.34375,-114.79,,,1961980.0
1780134915.359375,-99.82,,,1960204.0
1780134915.375,-79.63,,,1957283.0
1780134915.390625,-57.25,,,1954564.0
1780134915.40625,-35.64,,,1952922.0
1780134915.421875,-16.82,,,1951763.0
1780134915.4375,-1.66,,,1951631.0
1780134915.453125,9.95,,,1951801.0
1780134915.46875,18.68,,,1951869.0
1780134915.484375,25.17,,,1952081.0
1780134915.5,29.91,,,1951903.0
1780134915.515625,33.12,,,1952149.0
1780134915.53125,35.02,,,1952803.0
1780134915.546875,35.86,,,1953434.0
1780134915.5625,35.73,,,1954238.0
1780134915.578125,34.47,,,1955079.0
1780134915.59375,31.61,,,1956089.0
1780134915.609375,26.67,,,1956342.0
1780134915.625,19.51,,,1954082.0
1780134915.640625,10.73,,,1950357.0
1780134915.65625,1.48,,,1946761.0
1780134915.671875,-6.84,,,1944077.0
1780134915.6875,-13.22,,,1942565.0
1780134915.703125,-17.32,,,1941344.0
1780134915.71875,-19.61,,,1940880.0
1780134915.734375,-20.93,,,1940337.0
1780134915.75,-22.14,,,1939746.0
1780134915.765625,-23.78,,,1939103.0
1780134915.78125,-26.06,,,1938939.0
1780134915.796875,-28.96,,,1939263.0
1780134915.8125,-32.49,,,1939309.0
1780134915.828125,-36.78,,,1939666.0
1780134915.84375,-42.05,,,1940452.0
1780134915.859375,-48.49,,,1940978.0
1780134915.875,-56.04,,,1941377.0
1780134915.890625,-64.21,,,1939963.0
1780134915.90625,-72.06,,,1936267.0
1780134915.921875,-78.23,,,1932620.0
1780134915.9375,-81.28,,,1929730.0
1780134915.953125,-80.01,,,1927641.0
1780134915.96875,-73.93,,,1926524.0
1780134915.984375,-63.36,,,1926890.0
1780134916.0,-49.2,,,1926451.0
1780134916.015625,-32.71,,,1926298.0
1780134916.03125,-15.03,,,1926245.0
1780134916.046875,2.95,,,1926214.0
1780134916.0625,20.63,,,1926531.0
1780134916.078125,37.48,,,1927098.0
1780134916.09375,52.83,,,1928079.0
1780134916.109375,65.87,,,1929444.0
1780134916.125,75.69,,,1930817.0
1780134916.140625,81.6,,,1932789.0
1780134916.15625,83.34,,,1932203.0
1780134916.171875,81.23,,,1929731.0
1780134916.1875,76.03,,,1926879.0
1780134916.203125,68.81,,,1924213.0
1780134916.21875,60.67,,,1923074.0
1780134916.234375,52.5,,,1922221.0
1780134916.25,44.94,,,1922501.0
1780134916.265625,38.3,,,1922951.0
1780134916.28125,32.65,,,1923442.0
1780134916.296875,27.83,,,1923610.0
1780134916.3125,23.51,,,1924066.0
1780134916.328125,19.2,,,1924545.0
1780134916.34375,14.14,,,1925690.0
1780134916.359375,7.52,,,1926846.0
1780134916.375,-1.53,,,1928335.0
1780134916.390625,-13.58,,,1929758.0
1780134916.40625,-28.69,,,1931275.0
1780134916.421875,-46.27,,,1932026.0
1780134916.4375,-65.18,,,1930337.0
1780134916.453125,-84.09,,,1927311.0
1780134916.46875,-101.92,,,1923933.0
1780134916.484375,-118.27,,,1921700.0
1780134916.5,-133.4,,,1920100.0
1780134916.515625,-147.88,,,1919827.0
1780134916.53125,-162.04,,,1919907.0
1780134916.546875,-175.33,,,1919862.0
1780134916.5625,-186.2,,,1920100.0
1780134916.578125,-192.45,,,1920339.0
1780134916.59375,-191.98,,,1920376.0
1780134916.609375,-183.56,,,1921147.0
1780134916.625,-167.25,,,1921778.0
1780134916.640625,-144.35,,,1923067.0
1780134916.65625,-116.75,,,1924251.0
1780134916.671875,-86.29,,,1925458.0
1780134916.6875,-54.37,,,1927199.0
1780134916.703125,-21.92,,,1927748.0
1780134916.71875,10.28,,,1925640.0
1780134916.734375,41.15,,,1922662.0
1780134916.75,69.2,,,1920010.0
1780134916.765625,92.66,,,1918722.0
1780134916.78125,109.96,,,1917872.0
1780134916.796875,120.21,,,1917906.0
1780134916.8125,123.58,,,1918435.0
1780134916.828125,121.28,,,1919071.0
1780134916.84375,115.21,,,1919465.0
1780134916.859375,107.31,,,1919958.0
1780134916.875,99.15,,,1920713.0
1780134916.890625,91.62,,,1921995.0
1780134916.90625,84.93,,,1923356.0
1780134916.921875,78.93,,,1924758.0
1780134916.9375,73.36,,,1926402.0
1780134916.953125,68.12,,,1928399.0
1780134916.96875,63.21,,,1929721.0
1780134916.984375,58.7,,,1928674.0
1780134917.0,54.54,,,1926372.0
1780134917.015625,50.5,,,1924321.0
1780134917.03125,46.19,,,1923182.0
1780134917.046875,41.24,,,1922973.0
1780134917.0625,35.39,,,1923273.0
1780134917.078125,28.49,,,1924069.0
1780134917.09375,20.56,,,1924949.0
1780134917.109375,11.56,,,1925999.0
1780134917.125,1.57,,,1926769.0
1780134917.140625,-9.23,,,1927535.0
1780134917.15625,-20.39,,,1928515.0
1780134917.171875,-30.98,,,1929964.0
1780134917.1875,-39.64,,,1931424.0
1780134917.203125,-44.86,,,1933450.0
1780134917.21875,-45.26,,,1934906.0
1780134917.234375,-40.04,,,1936612.0
1780134917.25,-29.29,,,1937227.0
1780134917.265625,-13.99,,,1935888.0
1780134917.28125,4.21,,,1933231.0
1780134917.296875,23.36,,,1931386.0
1780134917.3125,41.55,,,1930402.0
1780134917.328125,57.31,,,1929869.0
1780134917.34375,69.69,,,1930157.0
1780134917.359375,78.26,,,1930607.0
1780134917.375,83.09,,,1930882.0
1780134917.390625,84.43,,,1931359.0
1780134917.40625,82.69,,,1931855.0
1780134917.421875,78.31,,,1932619.0
1780134917.4375,71.8,,,1933243.0
1780134917.453125,63.86,,,1934633.0
1780134917.46875,55.34,,,1935871.0
1780134917.484375,47.19,,,1937050.0
1780134917.5,40.22,,,1938262.0
1780134917.515625,34.77,,,1939298.0
1780134917.53125,30.63,,,1940577.0
1780134917.546875,27.09,,,1939714.0
1780134917.5625,23.28,,,1937533.0
1780134917.578125,18.59,,,1935798.0
1780134917.59375,12.94,,,1934072.0
1780134917.609375,6.74,,,1933613.0
1780134917.625,0.63,,,1933622.0
1780134917.640625,-4.9,,,1934540.0
1780134917.65625,-9.74,,,1935332.0
1780134917.671875,-14.22,,,1935997.0
1780134917.6875,-18.88,,,1936800.0
1780134917.703125,-24.26,,,1937914.0
1780134917.71875,-30.75,,,1938816.0
1780134917.734375,-38.44,,,1940509.0
1780134917.75,-47.16,,,1942292.0
1780134917.765625,-56.42,,,1944312.0
1780134917.78125,-65.37,,,1946278.0
1780134917.796875,-72.75,,,1948199.0
1780134917.8125,-77.08,,,1950449.0
1780134917.828125,-76.98,,,1951767.0
1780134917.84375,-71.57,,,1951098.0
1780134917.859375,-60.7,,,1949917.0
1780134917.875,-44.99,,,1948931.0
1780134917.890625,-25.69,,,1948816.0
1780134917.90625,-4.38,,,1949235.0
1780134917.921875,17.2,,,1950243.0
1780134917.9375,37.35,,,1951188.0
1780134917.953125,54.47,,,1952454.0
1780134917.96875,67.2,,,1953667.0
1780134917.984375,74.65,,,1954723.0
1780134918.0,76.59,,,1955775.0
1780134918.015625,73.54,,,1957223.0
1780134918.03125,66.74,,,1958710.0
1780134918.046875,57.99,,,1960406.0
1780134918.0625,49.2,,,1962239.0
1780134918.078125,42.04,,,1964263.0
1780134918.09375,37.56,,,1965745.0
1780134918.109375,35.94,,,1967680.0
1780134918.125,36.43,,,1967851.0
1780134918.140625,37.59,,,1966468.0
1780134918.15625,37.82,,,1964883.0
1780134918.171875,35.85,,,1963576.0
1780134918.1875,31.33,,,1963012.0
1780134918.203125,24.84,,,1963074.0
1780134918.21875,17.6,,,1963595.0
1780134918.234375,10.86,,,1964002.0
1780134918.25,5.45,,,1964594.0
1780134918.265625,1.48,,,1965200.0
1780134918.28125,-1.61,,,1965606.0
1780134918.296875,-4.77,,,1966393.0
1780134918.3125,-8.98,,,1967261.0
1780134918.328125,-15.06,,,1968289.0
1780134918.34375,-23.53,,,1969576.0
1780134918.359375,-34.69,,,1970701.0
1780134918.375,-48.57,,,1971686.0
1780134918.390625,-64.87,,,1973213.0
1780134918.40625,-82.87,,,1973090.0
1780134918.421875,-101.34,,,1971452.0
1780134918.4375,-118.52,,,1969200.0
1780134918.453125,-132.43,,,1967809.0
1780134918.46875,-141.29,,,1967306.0
1780134918.484375,-143.83,,,1966765.0
1780134918.5,-139.63,,,1967499.0
1780134918.515625,-129.09,,,1968392.0
1780134918.53125,-113.28,,,1969311.0
1780134918.546875,-93.56,,,1970131.0
1780134918.5625,-71.36,,,1970796.0
1780134918.578125,-47.99,,,1971696.0
1780134918.59375,-24.71,,,1972796.0
1780134918.609375,-2.73,,,1974350.0
1780134918.625,16.62,,,1975723.0
1780134918.640625,32.1,,,1976720.0
1780134918.65625,42.7,,,1978385.0
1780134918.671875,47.9,,,1979127.0
1780134918.6875,47.87,,,1977595.0
1780134918.703125,43.45,,,1975660.0
1780134918.71875,36.08,,,1974307.0
1780134918.734375,27.44,,,1973572.0
1780134918.75,19.21,,,1973640.0
1780134918.765625,12.65,,,1973808.0
1780134918.78125,8.47,,,1974210.0
1780134918.796875,6.77,,,1974646.0
1780134918.8125,7.24,,,1975221.0
1780134918.828125,9.46,,,1975701.0
1780134918.84375,12.95,,,1976594.0
1780134918.859375,17.34,,,1977434.0
1780134918.875,22.2,,,1978104.0
1780134918.890625,27.05,,,1979166.0
1780134918.90625,31.33,,,1980274.0
1780134918.921875,34.6,,,1981603.0
1780134918.9375,36.52,,,1982163.0
1780134918.953125,37.02,,,1980987.0
1780134918.96875,36.11,,,1978136.0
1780134918.984375,33.68,,,1975722.0
1780134919.0,29.43,,,1974511.0
1780134919.015625,22.83,,,1972944.0
1780134919.03125,13.35,,,1972463.0
1780134919.046875,0.65,,,1972218.0
1780134919.0625,-15.13,,,1972296.0
1780134919.078125,-33.12,,,1971739.0
1780134919.09375,-51.73,,,1971976.0
1780134919.109375,-68.54,,,1971908.0
1780134919.125,-80.85,,,1972104.0
1780134919.140625,-86.09,,,1973273.0
1780134919.15625,-82.67,,,1974604.0
1780134919.171875,-70.43,,,1972156.0
1780134919.1875,-50.77,,,1973760.0
1780134919.203125,-26.24,,,1972246.0
1780134919.21875,0.23,,,1974445.0
1780134919.234375,25.98,,,1967203.0
1780134919.25,49.13,,,1969538.0
1780134919.265625,68.5,,,1965840.0
1780134919.28125,83.59,,,1963962.0
1780134919.296875,94.12,,,1964652.0
1780134919.3125,100.08,,,1963821.0
1780134919.328125,101.71,,,1963912.0
1780134919.34375,99.54,,,1962805.0
1780134919.359375,94.38,,,1963323.0
1780134919.375,87.16,,,1963026.0
1780134919.390625,78.81,,,1963878.0
1780134919.40625,70.01,,,1963428.0
1780134919.421875,61.31,,,1965550.0
1780134919.4375,53.12,,,1964466.0
1780134919.453125,45.79,,,1966621.0
1780134919.46875,39.71,,,1963551.0
1780134919.484375,35.13,,,1965704.0
1780134919.5,32.07,,,1961732.0
1780134919.515625,30.11,,,1960098.0
1780134919.53125,28.53,,,1959438.0
1780134919.546875,26.39,,,1959249.0
1780134919.5625,23.03,,,1959772.0
1780134919.578125,18.31,,,1960535.0
1780134919.59375,12.68,,,1960463.0
1780134919.609375,6.97,,,1960667.0
1780134919.625,1.97,,,1961225.0
1780134919.640625,-1.98,,,1961609.0
1780134919.65625,-5.11,,,1962545.0
1780134919.671875,-8.12,,,1963506.0
1780134919.6875,-11.88,,,1964721.0
1780134919.703125,-17.13,,,1965851.0
1780134919.71875,-24.26,,,1966798.0
1780134919.734375,-33.14,,,1965431.0
1780134919.75,-42.99,,,1962981.0
1780134919.765625,-52.4,,,1960526.0
1780134919.78125,-59.47,,,1958683.0
1780134919.796875,-62.19,,,1957945.0
1780134919.8125,-58.99,,,1957030.0
1780134919.828125,-49.29,,,1956935.0
1780134919.84375,-33.66,,,1957397.0
1780134919.859375,-13.78,,,1956862.0
1780134919.875,8.18,,,1956818.0
1780134919.890625,30.09,,,1957195.0
1780134919.90625,50.2,,,1957615.0
1780134919.921875,67.25,,,1958087.0
1780134919.9375,80.28,,,1958807.0
1780134919.953125,88.53,,,1959967.0
1780134919.96875,91.44,,,1960775.0
1780134919.984375,88.9,,,1961607.0
1780134920.0,81.44,,,1962289.0
1780134920.015625,70.3,,,1960803.0
1780134920.03125,57.16,,,1958233.0
1780134920.046875,43.84,,,1955901.0
1780134920.0625,31.78,,,1954299.0
1780134920.078125,21.89,,,1952951.0
1780134920.09375,14.43,,,1952370.0
1780134920.109375,9.04,,,1952382.0
1780134920.125,4.97,,,1952004.0
1780134920.140625,1.18,,,1952259.0
1780134920.15625,-3.38,,,1952290.0
1780134920.171875,-9.41,,,1952293.0
1780134920.1875,-16.8,,,1952522.0
1780134920.203125,-24.61,,,1953264.0
1780134920.21875,-31.21,,,1954205.0
1780134920.234375,-34.95,,,1955560.0
1780134920.25,-34.92,,,1956687.0
1780134920.265625,-31.37,,,1957652.0
1780134920.28125,-25.62,,,1959048.0
1780134920.296875,-19.52,,,1959842.0
1780134920.3125,-14.7,,,1959036.0
1780134920.328125,-12.19,,,1957088.0
1780134920.34375,-12.29,,,1956162.0
1780134920.359375,-15.06,,,1955548.0
1780134920.375,-20.56,,,1955719.0
1780134920.390625,-28.98,,,1956294.0
1780134920.40625,-40.3,,,1956733.0
1780134920.421875,-53.84,,,1957577.0
1780134920.4375,-67.93,,,1958467.0
1780134920.453125,-79.98,,,1959177.0
1780134920.46875,-87.17,,,1960308.0
1780134920.484375,-87.23,,,1961495.0
1780134920.5,-79.14,,,1962556.0
1780134920.515625,-63.44,,,1963894.0
1780134920.53125,-41.97,,,1965355.0
1780134920.546875,-17.29,,,1966788.0
1780134920.5625,8.06,,,1968516.0
1780134920.578125,32.03,,,1970322.0
1780134920.59375,53.37,,,1971058.0
1780134920.609375,71.46,,,1969605.0
1780134920.625,86.07,,,1968439.0
1780134920.640625,97.12,,,1967241.0
1780134920.65625,104.48,,,1966641.0
1780134920.671875,108.01,,,1966899.0
1780134920.6875,107.72,,,1967199.0
1780134920.703125,103.82,,,1967951.0
1780134920.71875,96.82,,,1968982.0
1780134920.734375,87.46,,,1969067.0
1780134920.75,76.61,,,1971144.0
1780134920.765625,65.01,,,1969613.0
1780134920.78125,53.16,,,1970392.0
1780134920.796875,41.26,,,1972332.0
1780134920.8125,29.32,,,1974881.0
1780134920.828125,17.43,,,1973830.0
1780134920.84375,5.92,,,1977697.0
1780134920.859375,-4.74,,,1976224.0
1780134920.875,-14.05,,,1979128.0
1780134920.890625,-21.82,,,1980196.0
1780134920.90625,-28.29,,,1979661.0
1780134920.921875,-34.09,,,1978169.0
1780134920.9375,-39.92,,,1976618.0
1780134920.953125,-46.2,,,1975871.0
1780134920.96875,-52.9,,,1975509.0
1780134920.984375,-59.59,,,1975646.0
1780134921.0,-65.83,,,1975992.0
1780134921.015625,-71.42,,,1976347.0
1780134921.03125,-76.61,,,1976564.0
1780134921.046875,-82.06,,,1976918.0
1780134921.0625,-88.6,,,1977427.0
1780134921.078125,-96.94,,,1978008.0
1780134921.09375,-107.45,,,1979126.0
1780134921.109375,-119.73,,,1980110.0
1780134921.125,-132.55,,,1981661.0
1780134921.140625,-143.77,,,1983034.0
1780134921.15625,-150.55,,,1984276.0
1780134921.171875,-150.14,,,1985516.0
1780134921.1875,-140.62,,,1987043.0
1780134921.203125,-121.73,,,1986462.0
1780134921.21875,-95.09,,,1985090.0
1780134921.234375,-63.79,,,1984288.0
1780134921.25,-31.47,,,1984244.0
1780134921.265625,-1.3,,,1984113.0
1780134921.28125,24.65,,,1985024.0
1780134921.296875,45.62,,,1986024.0
1780134921.3125,61.72,,,1986749.0
1780134921.328125,73.4,,,1987698.0
1780134921.34375,80.96,,,1988536.0
1780134921.359375,84.55,,,1989182.0
1780134921.375,84.36,,,1990312.0
1780134921.390625,81.04,,,1991430.0
1780134921.40625,75.75,,,1992634.0
1780134921.421875,70.02,,,1993686.0
1780134921.4375,65.29,,,1995054.0
1780134921.453125,62.4,,,1996188.0
1780134921.46875,61.49,,,1996722.0
1780134921.484375,62.07,,,1995434.0
1780134921.5,63.45,,,1993809.0
1780134921.515625,65.11,,,1992660.0
1780134921.53125,66.77,,,1991793.0
1780134921.546875,68.22,,,1991481.0
1780134921.5625,69.06,,,1991506.0
1780134921.578125,68.62,,,1991652.0
1780134921.59375,66.05,,,1991942.0
1780134921.609375,60.81,,,1992173.0
1780134921.625,52.99,,,1992211.0
1780134921.640625,43.4,,,1993004.0
1780134921.65625,33.28,,,1993880.0
