timestamp,bvp,eda,temp,PPG GREEN
1709208236.09375,-12.52,0.020493,34.71,2412483.0
1709208236.109375,1.96,0.024335,34.71,2413807.0
1709208236.125,14.17,0.020493,34.71,2415220.0
1709208236.140625,23.31,0.019212,34.71,2416411.0
1709208236.15625,29.24,0.019212,34.73,2417797.0
1709208236.171875,32.27,0.017931,34.73,2418714.0
1709208236.1875,33.03,0.021773,34.73,2419743.0
1709208236.203125,32.24,0.021773,34.73,2420474.0
1709208236.21875,30.67,0.021773,34.73,2418485.0
1709208236.234375,28.98,0.021773,34.73,2412939.0
1709208236.25,27.65,0.017931,34.73,2410695.0
1709208236.265625,26.81,0.017931,34.73,2411066.0
1709208236.28125,26.27,0.017931,34.73,2412694.0
1709208236.296875,25.62,0.021773,34.73,2413563.0
1709208236.3125,24.49,0.020493,34.73,2413839.0
1709208236.328125,22.77,0.021773,34.73,2414609.0
1709208236.34375,20.73,0.017931,34.73,2414022.0
1709208236.359375,18.94,0.017931,34.73,2413367.0
1709208236.375,18.01,0.017931,34.73,2411900.0
1709208236.390625,18.33,0.020493,34.73,2412212.0
1709208236.40625,19.77,0.020493,34.73,2412733.0
1709208236.421875,21.78,0.021773,34.73,2412265.0
1709208236.4375,23.52,0.021773,34.73,2414480.0
1709208236.453125,24.24,0.017931,34.73,2415526.0
1709208236.46875,23.54,0.017931,34.73,2416150.0
1709208236.484375,21.45,0.017931,34.73,2415931.0
1709208236.5,18.3,0.021773,34.73,2414829.0
1709208236.515625,14.47,0.020493,34.73,2413487.0
1709208236.53125,10.35,0.020493,34.73,2412940.0
1709208236.546875,6.42,0.017931,34.73,2412744.0
1709208236.5625,3.3,0.019212,34.73,2412686.0
1709208236.578125,1.63,0.017931,34.73,2412656.0
1709208236.59375,1.67,0.019212,34.68,2412875.0
1709208236.609375,2.96,0.017931,34.68,2413316.0
1709208236.625,4.27,0.021773,34.68,2412607.0
1709208236.640625,4.15,0.020493,34.68,2408688.0
1709208236.65625,1.63,0.019212,34.68,2404043.0
1709208236.671875,-3.16,0.017931,34.68,2401559.0
1709208236.6875,-9.11,0.017931,34.68,2400400.0
1709208236.703125,-14.79,0.021773,34.68,2400284.0
1709208236.71875,-19.37,0.021773,34.68,2400408.0
1709208236.734375,-23.14,0.021773,34.68,2401291.0
1709208236.75,-27.22,0.020493,34.68,2401835.0
1709208236.765625,-32.76,0.017931,34.68,2402047.0
1709208236.78125,-40.07,0.017931,34.71,2402677.0
1709208236.796875,-48.33,0.023054,34.71,2403113.0
1709208236.8125,-56.11,0.021773,34.71,2404248.0
1709208236.828125,-62.22,0.021773,34.71,2405607.0
1709208236.84375,-66.35,0.021773,34.66,2406918.0
1709208236.859375,-69.24,0.017931,34.66,2407826.0
1709208236.875,-72.19,0.019212,34.66,2408981.0
1709208236.890625,-76.31,0.019212,34.66,2409782.0
1709208236.90625,-82.07,0.021773,34.68,2410337.0
1709208236.921875,-89.07,0.020493,34.68,2411100.0
1709208236.9375,-96.23,0.021773,34.68,2412010.0
1709208236.953125,-102.3,0.019212,34.68,2412320.0
1709208236.96875,-106.15,0.019212,34.68,2413295.0
1709208236.984375,-107.21,0.019212,34.68,2413937.0
1709208237.0,-105.46,0.021773,34.68,2414172.0
1709208237.015625,-101.38,0.020493,34.68,2414882.0
1709208237.03125,-95.72,0.021773,34.68,2415538.0
1709208237.046875,-89.24,0.020493,34.68,2415756.0
1709208237.0625,-82.45,0.019212,34.68,2413381.0
1709208237.078125,-75.47,0.019212,34.68,2408820.0
1709208237.09375,-67.93,0.017931,34.68,2405182.0
1709208237.109375,-59.07,0.021773,34.68,2404186.0
1709208237.125,-47.89,0.021773,34.68,2404493.0
1709208237.140625,-33.49,0.020493,34.68,2405047.0
1709208237.15625,-15.37,0.019212,34.65,2405611.0
1709208237.171875,6.45,0.019212,34.65,2406173.0
1709208237.1875,31.47,0.019212,34.65,2406830.0
1709208237.203125,58.9,0.021773,34.65,2407446.0
1709208237.21875,87.93,0.023054,34.66,2409113.0
1709208237.234375,117.86,0.021773,34.66,2410626.0
1709208237.25,148.11,0.020493,34.66,2413297.0
1709208237.265625,178.11,0.019212,34.66,2415629.0
1709208237.28125,207.29,0.021773,34.66,2417369.0
1709208237.296875,235.13,0.021773,34.66,2420767.0
1709208237.3125,261.35,0.021773,34.66,2419062.0
1709208237.328125,285.9,0.021773,34.66,2422399.0
1709208237.34375,308.66,0.020493,34.65,2423217.0
1709208237.359375,328.75,0.019212,34.65,2423533.0
1709208237.375,344.23,0.019212,34.65,2423848.0
1709208237.390625,352.05,0.019212,34.65,2425551.0
1709208237.40625,348.86,0.023054,34.65,2427699.0
1709208237.421875,332.2,0.023054,34.65,2429930.0
1709208237.4375,301.38,0.023054,34.65,2431480.0
1709208237.453125,257.64,0.023054,34.65,2433301.0
1709208237.46875,203.83,0.020493,34.65,2434579.0
1709208237.484375,143.71,0.019212,34.65,2436173.0
1709208237.5,81.57,0.024335,34.65,2438659.0
1709208237.515625,22.1,0.021773,34.65,2434594.0
1709208237.53125,-29.76,0.023054,34.65,2422296.0
1709208237.546875,-69.53,0.023054,34.65,2425971.0
1709208237.5625,-94.28,0.020493,34.65,2420419.0
1709208237.578125,-103.74,0.019212,34.65,2419407.0
1709208237.59375,-100.59,0.020493,34.63,2419820.0
1709208237.609375,-89.65,0.023054,34.63,2420834.0
1709208237.625,-76.07,0.021773,34.63,2421706.0
1709208237.640625,-63.64,0.023054,34.63,2421975.0
1709208237.65625,-53.86,0.023054,34.65,2421554.0
1709208237.671875,-46.28,0.020493,34.65,2420966.0
1709208237.6875,-39.61,0.020493,34.65,2420421.0
1709208237.703125,-32.83,0.023054,34.65,2420793.0
1709208237.71875,-25.82,0.023054,34.63,2420871.0
1709208237.734375,-19.15,0.024335,34.63,2421132.0
1709208237.75,-13.56,0.023054,34.63,2421226.0
1709208237.765625,-9.57,0.021773,34.63,2421429.0
1709208237.78125,-7.26,0.020493,34.63,2421887.0
1709208237.796875,-6.37,0.020493,34.63,2421752.0
1709208237.8125,-6.51,0.023054,34.63,2421964.0
1709208237.828125,-7.27,0.023054,34.63,2422126.0
1709208237.84375,-8.38,0.023054,34.63,2422466.0
1709208237.859375,-9.85,0.023054,34.63,2423127.0
1709208237.875,-11.85,0.021773,34.63,2423887.0
1709208237.890625,-14.56,0.020493,34.63,2424939.0
1709208237.90625,-17.94,0.020493,34.63,2424178.0
1709208237.921875,-21.62,0.024335,34.63,2420781.0
1709208237.9375,-24.99,0.024335,34.63,2416674.0
1709208237.953125,-27.49,0.023054,34.63,2414319.0
1709208237.96875,-28.96,0.024335,34.61,2413548.0
1709208237.984375,-29.86,0.021773,34.61,2413966.0
1709208238.0,-31.08,0.021773,34.61,2414989.0
1709208238.015625,-33.61,0.021773,34.61,2417482.0
1709208238.03125,-38.14,0.025616,34.65,2418928.0
1709208238.046875,-44.85,0.024335,34.65,2418935.0
1709208238.0625,-53.41,0.024335,34.65,2418675.0
1709208238.078125,-63.18,0.023054,34.65,2418312.0
1709208238.09375,-73.47,0.021773,34.61,2418867.0
1709208238.109375,-83.7,0.023054,34.61,2419563.0
1709208238.125,-93.46,0.021773,34.61,2420895.0
1709208238.140625,-102.36,0.025616,34.61,2422434.0
1709208238.15625,-109.87,0.025616,34.61,2426859.0
1709208238.171875,-115.15,0.024335,34.61,2424770.0
1709208238.1875,-117.13,0.021773,34.61,2428974.0
1709208238.203125,-114.74,0.021773,34.61,2430376.0
1709208238.21875,-107.41,0.021773,34.61,2433545.0
1709208238.234375,-95.44,0.024335,34.61,2431948.0
1709208238.25,-80.08,0.025616,34.61,2435211.0
1709208238.265625,-63.29,0.024335,34.61,2437475.0
1709208238.28125,-47.12,0.023054,34.61,2439456.0
1709208238.296875,-33.13,0.023054,34.61,2440599.0
1709208238.3125,-22.1,0.021773,34.61,2441222.0
1709208238.328125,-14.03,0.025616,34.61,2437413.0
1709208238.34375,-8.44,0.025616,34.61,2432712.0
1709208238.359375,-4.72,0.024335,34.61,2431461.0
1709208238.375,-2.36,0.024335,34.61,2432191.0
1709208238.390625,-1.0,0.023054,34.61,2433025.0
1709208238.40625,-0.36,0.021773,34.61,2433516.0
1709208238.421875,-0.22,0.021773,34.61,2433644.0
1709208238.4375,-0.38,0.025616,34.61,2432245.0
1709208238.453125,-0.73,0.024335,34.61,2430512.0
1709208238.46875,-1.25,0.023054,34.61,2428158.0
1709208238.484375,-1.93,0.025616,34.61,2427079.0
1709208238.5,-2.74,0.021773,34.61,2426278.0
1709208238.515625,-3.54,0.021773,34.61,2426515.0
1709208238.53125,-4.17,0.021773,34.59,2426082.0
1709208238.546875,-4.44,0.025616,34.59,2425652.0
1709208238.5625,-4.25,0.024335,34.59,2425603.0
1709208238.578125,-3.55,0.025616,34.59,2431309.0
1709208238.59375,-2.38,0.023054,34.59,2440288.0
1709208238.609375,-0.84,0.021773,34.59,2446637.0
1709208238.625,0.95,0.023054,34.59,2450520.0
1709208238.640625,2.83,0.025616,34.59,2453014.0
1709208238.65625,4.63,0.024335,34.59,2454317.0
1709208238.671875,6.15,0.025616,34.59,2454116.0
1709208238.6875,7.29,0.023054,34.59,2453566.0
1709208238.703125,7.96,0.023054,34.59,2453529.0
1709208238.71875,8.18,0.023054,34.61,2454139.0
1709208238.734375,7.92,0.025616,34.61,2454009.0
1709208238.75,7.16,0.024335,34.61,2448981.0
1709208238.765625,5.92,0.026897,34.61,2443036.0
1709208238.78125,4.24,0.023054,34.59,2440755.0
1709208238.796875,2.3,0.023054,34.59,2439503.0
1709208238.8125,0.37,0.023054,34.59,2439117.0
1709208238.828125,-1.25,0.025616,34.59,2438422.0
1709208238.84375,-2.33,0.024335,34.57,2438217.0
1709208238.859375,-2.79,0.026897,34.57,2436852.0
1709208238.875,-2.75,0.025616,34.57,2437850.0
1709208238.890625,-2.45,0.023054,34.57,2435419.0
1709208238.90625,-2.13,0.023054,34.57,2434720.0
1709208238.921875,-2.01,0.025616,34.57,2433844.0
1709208238.9375,-2.18,0.026897,34.57,2433839.0
1709208238.953125,-2.66,0.026897,34.57,2434620.0
1709208238.96875,-3.34,0.025616,34.57,2434290.0
1709208238.984375,-4.05,0.023054,34.57,2436343.0
1709208239.0,-4.65,0.023054,34.57,2435264.0
1709208239.015625,-5.04,0.025616,34.57,2439708.0
1709208239.03125,-5.35,0.026897,34.57,2437336.0
1709208239.046875,-5.83,0.026897,34.57,2444026.0
1709208239.0625,-6.85,0.024335,34.57,2441596.0
1709208239.078125,-8.71,0.023054,34.57,2446858.0
1709208239.09375,-11.46,0.023054,34.55,2445627.0
1709208239.109375,-14.86,0.021773,34.55,2447565.0
1709208239.125,-18.46,0.026897,34.55,2440075.0
1709208239.140625,-21.77,0.023054,34.55,2435457.0
1709208239.15625,-24.47,0.025616,34.57,2431874.0
1709208239.171875,-26.52,0.024335,34.57,2430624.0
1709208239.1875,-28.2,0.023054,34.57,2430230.0
1709208239.203125,-29.98,0.023054,34.57,2445894.0
1709208239.21875,-32.4,0.026897,34.55,2432157.0
1709208239.234375,-35.83,0.026897,34.55,2436656.0
1709208239.25,-40.37,0.026897,34.55,2439170.0
1709208239.265625,-45.64,0.023054,34.55,2439524.0
1709208239.28125,-50.72,0.024335,34.55,2439127.0
1709208239.296875,-54.34,0.023054,34.55,2438794.0
1709208239.3125,-55.13,0.026897,34.55,2438356.0
1709208239.328125,-52.1,0.025616,34.55,2438390.0
1709208239.34375,-45.01,0.025616,34.55,2437388.0
1709208239.359375,-34.57,0.023054,34.55,2438038.0
1709208239.375,-22.2,0.024335,34.55,2436319.0
1709208239.390625,-9.63,0.024335,34.55,2435253.0
1709208239.40625,1.59,0.026897,34.55,2434686.0
1709208239.421875,10.54,0.025616,34.55,2435247.0
1709208239.4375,16.93,0.025616,34.55,2436332.0
1709208239.453125,21.0,0.026897,34.55,2439739.0
1709208239.46875,23.21,0.024335,34.55,2442161.0
1709208239.484375,24.06,0.024335,34.55,2445592.0
1709208239.5,23.92,0.023054,34.55,2446959.0
1709208239.515625,23.09,0.026897,34.55,2442996.0
1709208239.53125,21.81,0.026897,34.53,2440083.0
1709208239.546875,20.29,0.025616,34.53,2440107.0
1709208239.5625,18.75,0.026897,34.53,2443283.0
1709208239.578125,17.33,0.023054,34.53,2446348.0
1709208239.59375,16.11,0.024335,34.53,2448662.0
1709208239.609375,15.14,0.024335,34.53,2451561.0
1709208239.625,14.44,0.026897,34.53,2452503.0
1709208239.640625,14.09,0.026897,34.53,2451527.0
1709208239.65625,14.19,0.023054,34.53,2448929.0
1709208239.671875,14.86,0.024335,34.53,2446023.0
1709208239.6875,16.2,0.024335,34.53,2444562.0
1709208239.703125,18.17,0.024335,34.53,2442662.0
1709208239.71875,20.61,0.028177,34.55,2441277.0
1709208239.734375,23.14,0.025616,34.55,2441356.0
1709208239.75,25.33,0.028177,34.55,2441738.0
1709208239.765625,26.75,0.025616,34.55,2442053.0
1709208239.78125,27.13,0.024335,34.5,2441951.0
1709208239.796875,26.45,0.024335,34.5,2441843.0
1709208239.8125,24.92,0.023054,34.5,2441995.0
1709208239.828125,22.9,0.028177,34.5,2442261.0
1709208239.84375,20.73,0.026897,34.53,2442397.0
1709208239.859375,18.59,0.026897,34.53,2442461.0
1709208239.875,16.51,0.024335,34.53,2442806.0
1709208239.890625,14.38,0.024335,34.53,2443142.0
1709208239.90625,12.08,0.024335,34.5,2441079.0
1709208239.921875,9.58,0.026897,34.5,2434744.0
1709208239.9375,7.02,0.026897,34.5,2427529.0
1709208239.953125,4.61,0.028177,34.5,2422514.0
1709208239.96875,2.57,0.025616,34.53,2419586.0
1709208239.984375,1.04,0.024335,34.53,2417504.0
1709208240.0,0.0,0.024335,34.53,2415830.0
1709208240.015625,-0.7,0.026897,34.53,2414825.0
1709208240.03125,-1.32,0.028177,34.5,2413710.0
1709208240.046875,-2.05,0.026897,34.5,2412169.0
1709208240.0625,-3.01,0.028177,34.5,2411882.0
1709208240.078125,-4.2,0.025616,34.5,2413524.0
1709208240.09375,-5.55,0.025616,34.5,2412905.0
1709208240.109375,-6.97,0.024335,34.5,2415083.0
1709208240.125,-8.38,0.029458,34.5,2416561.0
1709208240.140625,-9.76,0.026897,34.5,2418492.0
1709208240.15625,-11.12,0.028177,34.5,2419631.0
1709208240.171875,-12.54,0.025616,34.5,2420661.0
1709208240.1875,-14.13,0.024335,34.5,2422222.0
1709208240.203125,-16.01,0.024335,34.5,2423197.0
1709208240.21875,-18.2,0.026897,34.5,2423751.0
1709208240.234375,-20.68,0.028177,34.5,2424697.0
1709208240.25,-23.23,0.028177,34.5,2426963.0
1709208240.265625,-25.62,0.028177,34.5,2429724.0
1709208240.28125,-27.65,0.025616,34.49,2431999.0
1709208240.296875,-29.24,0.024335,34.49,2433750.0
1709208240.3125,-30.58,0.024335,34.49,2431828.0
1709208240.328125,-32.06,0.028177,34.49,2426202.0
1709208240.34375,-34.19,0.029458,34.49,2422283.0
1709208240.359375,-37.4,0.028177,34.49,2420283.0
1709208240.375,-41.76,0.026897,34.49,2419466.0
1709208240.390625,-46.85,0.025616,34.49,2419001.0
1709208240.40625,-51.65,0.025616,34.49,2419277.0
1709208240.421875,-54.79,0.029458,34.49,2419589.0
1709208240.4375,-54.84,0.029458,34.49,2418900.0
1709208240.453125,-50.82,0.029458,34.49,2418338.0
1709208240.46875,-42.56,0.028177,34.49,2418160.0
1709208240.484375,-30.84,0.025616,34.49,2418697.0
1709208240.5,-17.15,0.038424,34.49,2421695.0
1709208240.515625,-3.3,0.025616,34.49,2424837.0
1709208240.53125,9.13,0.029458,34.49,2428680.0
1709208240.546875,19.05,0.030739,34.49,2433198.0
1709208240.5625,26.04,0.026897,34.49,2436247.0
1709208240.578125,30.24,0.025616,34.49,2439035.0
1709208240.59375,32.1,0.025616,34.47,2440878.0
1709208240.609375,32.22,0.025616,34.47,2441735.0
1709208240.625,31.17,0.028177,34.47,2441817.0
1709208240.640625,29.44,0.028177,34.47,2440673.0
1709208240.65625,27.39,0.029458,34.45,2437894.0
1709208240.671875,25.32,0.028177,34.45,2434988.0
1709208240.6875,23.44,0.026897,34.45,2430845.0
1709208240.703125,21.96,0.025616,34.45,2424643.0
1709208240.71875,21.01,0.029458,34.45,2420658.0
1709208240.734375,20.64,0.030739,34.45,2418469.0
1709208240.75,20.77,0.030739,34.45,2418060.0
1709208240.765625,21.26,0.029458,34.45,2417594.0
1709208240.78125,22.0,0.028177,34.45,2418430.0
1709208240.796875,22.96,0.026897,34.45,2419808.0
1709208240.8125,24.23,0.026897,34.45,2420599.0
1709208240.828125,25.84,0.029458,34.45,2421315.0
1709208240.84375,27.7,0.029458,34.47,2421183.0
1709208240.859375,29.46,0.030739,34.47,2421629.0
1709208240.875,30.68,0.029458,34.47,2422654.0
1709208240.890625,30.96,0.028177,34.47,2423541.0
1709208240.90625,30.14,0.026897,34.43,2424499.0
1709208240.921875,28.36,0.029458,34.43,2425744.0
1709208240.9375,25.97,0.026897,34.43,2426764.0
1709208240.953125,23.38,0.030739,34.43,2428391.0
1709208240.96875,20.86,0.029458,34.45,2429432.0
1709208240.984375,18.52,0.026897,34.45,2431424.0
1709208241.0,16.34,0.026897,34.45,2433153.0
1709208241.015625,14.27,0.026897,34.45,2434258.0
1709208241.03125,12.26,0.030739,34.43,2434792.0
1709208241.046875,10.29,0.030739,34.43,2435070.0
1709208241.0625,8.33,0.030739,34.43,2435392.0
1709208241.078125,6.35,0.029458,34.43,2435083.0
1709208241.09375,4.28,0.026897,34.45,2430200.0
1709208241.109375,2.15,0.026897,34.45,2423399.0
1709208241.125,0.05,0.026897,34.45,2416824.0
1709208241.140625,-1.86,0.030739,34.45,2412881.0
1709208241.15625,-3.4,0.030739,34.43,2410298.0
1709208241.171875,-4.48,0.030739,34.43,2407962.0
1709208241.1875,-5.17,0.028177,34.43,2406587.0
1709208241.203125,-5.65,0.028177,34.43,2406198.0
1709208241.21875,-6.21,0.026897,34.43,2406813.0
1709208241.234375,-7.17,0.029458,34.43,2407856.0
1709208241.25,-8.72,0.029458,34.43,2409805.0
1709208241.265625,-10.89,0.030739,34.43,2414346.0
1709208241.28125,-13.47,0.029458,34.43,2418319.0
1709208241.296875,-16.09,0.028177,34.43,2420940.0
1709208241.3125,-18.32,0.026897,34.43,2422974.0
1709208241.328125,-19.9,0.026897,34.43,2424460.0
1709208241.34375,-20.86,0.030739,34.43,2425450.0
1709208241.359375,-21.57,0.030739,34.43,2426915.0
1709208241.375,-22.63,0.030739,34.43,2429577.0
1709208241.390625,-24.66,0.030739,34.43,2430475.0
1709208241.40625,-28.07,0.029458,34.43,2430233.0
1709208241.421875,-32.85,0.028177,34.43,2428726.0
1709208241.4375,-38.48,0.028177,34.43,2426162.0
1709208241.453125,-43.93,0.029458,34.43,2424620.0
1709208241.46875,-47.84,0.030739,34.43,2424856.0
1709208241.484375,-48.85,0.029458,34.43,2426355.0
1709208241.5,-45.98,0.030739,34.43,2427417.0
1709208241.515625,-38.91,0.028177,34.43,2423535.0
1709208241.53125,-28.17,0.026897,34.41,2418747.0
1709208241.546875,-15.05,0.026897,34.41,2415466.0
1709208241.5625,-1.26,0.030739,34.41,2414516.0
1709208241.578125,11.48,0.03202,34.41,2414576.0
1709208241.59375,21.85,0.030739,34.41,2415625.0
1709208241.609375,29.19,0.029458,34.41,2416685.0
1709208241.625,33.47,0.028177,34.41,2417553.0
1709208241.640625,35.2,0.028177,34.41,2417441.0
1709208241.65625,35.14,0.026897,34.39,2418152.0
1709208241.671875,34.06,0.030739,34.39,2418424.0
1709208241.6875,32.48,0.030739,34.39,2418257.0
1709208241.703125,30.66,0.030739,34.39,2418011.0
1709208241.71875,28.62,0.030739,34.39,2417958.0
1709208241.734375,26.3,0.028177,34.39,2418044.0
1709208241.75,23.72,0.026897,34.39,2417819.0
1709208241.765625,21.06,0.03202,34.39,2418133.0
1709208241.78125,18.62,0.03202,34.39,2418276.0
1709208241.796875,16.72,0.030739,34.39,2418364.0
1709208241.8125,15.59,0.030739,34.39,2417710.0
1709208241.828125,15.31,0.028177,34.39,2417394.0
1709208241.84375,15.85,0.028177,34.37,2416853.0
1709208241.859375,17.13,0.028177,34.37,2416867.0
1709208241.875,19.04,0.044828,34.37,2417187.0
1709208241.890625,21.43,0.03202,34.37,2417503.0
1709208241.90625,24.06,0.030739,34.39,2415189.0
1709208241.921875,26.54,0.03202,34.39,2410095.0
1709208241.9375,28.44,0.028177,34.39,2405449.0
1709208241.953125,29.4,0.028177,34.39,2403221.0
1709208241.96875,29.26,0.028177,34.39,2402734.0
1709208241.984375,28.07,0.030739,34.39,2402676.0
1709208242.0,26.15,0.03202,34.39,2403136.0
1709208242.015625,23.89,0.030739,34.39,2403183.0
1709208242.03125,21.73,0.028177,34.39,2403149.0
1709208242.046875,19.92,0.028177,34.39,2402998.0
1709208242.0625,18.52,0.028177,34.39,2403630.0
1709208242.078125,17.41,0.03202,34.39,2405506.0
1709208242.09375,16.33,0.03202,34.37,2409623.0
1709208242.109375,15.04,0.03202,34.37,2407508.0
1709208242.125,13.45,0.03202,34.37,2412695.0
1709208242.140625,11.64,0.029458,34.37,2411352.0
1709208242.15625,9.87,0.028177,34.37,2413257.0
1709208242.171875,8.45,0.028177,34.37,2413221.0
1709208242.1875,7.59,0.03202,34.37,2412903.0
1709208242.203125,7.32,0.030739,34.37,2412503.0
1709208242.21875,7.52,0.044828,34.34,2412036.0
1709208242.234375,8.06,0.028177,34.34,2411951.0
1709208242.25,8.82,0.029458,34.34,2411899.0
1709208242.265625,9.79,0.028177,34.34,2411842.0
1709208242.28125,11.0,0.028177,34.34,2411277.0
1709208242.296875,12.52,0.03202,34.34,2407167.0
1709208242.3125,14.51,0.03202,34.34,2399808.0
1709208242.328125,17.1,0.03202,34.34,2392652.0
1709208242.34375,20.34,0.030739,34.34,2388060.0
1709208242.359375,23.9,0.028177,34.34,2385513.0
1709208242.375,26.92,0.029458,34.34,2383448.0
1709208242.390625,28.06,0.028177,34.34,2382120.0
1709208242.40625,25.82,0.03202,34.34,2381845.0
1709208242.421875,19.06,0.03202,34.34,2381397.0
1709208242.4375,7.43,0.03202,34.34,2380903.0
1709208242.453125,-8.51,0.030739,34.34,2380278.0
1709208242.46875,-27.3,0.029458,34.34,2380261.0
1709208242.484375,-46.94,0.029458,34.34,2381378.0
1709208242.5,-65.0,0.03202,34.34,2382377.0
1709208242.515625,-78.89,0.03202,34.34,2383941.0
1709208242.53125,-86.28,0.033301,34.34,2385385.0
1709208242.546875,-85.66,0.03202,34.34,2386389.0
1709208242.5625,-76.91,0.029458,34.34,2387141.0
1709208242.578125,-61.64,0.029458,34.34,2389885.0
1709208242.59375,-42.83,0.029458,34.34,2390402.0
1709208242.609375,-24.05,0.033301,34.34,2391200.0
1709208242.625,-8.27,0.033301,34.34,2388989.0
1709208242.640625,2.85,0.03202,34.34,2388085.0
1709208242.65625,9.12,0.033301,34.33,2392354.0
1709208242.671875,11.39,0.029458,34.33,2393026.0
1709208242.6875,10.85,0.030739,34.33,2394068.0
1709208242.703125,8.58,0.03202,34.33,2391572.0
1709208242.71875,5.42,0.03202,34.34,2386070.0
1709208242.734375,2.06,0.033301,34.34,2380739.0
1709208242.75,-0.85,0.033301,34.34,2378158.0
1709208242.765625,-2.8,0.030739,34.34,2376933.0
1709208242.78125,-3.55,0.030739,34.33,2376631.0
1709208242.796875,-3.28,0.033301,34.33,2376068.0
1709208242.8125,-2.46,0.034581,34.33,2376224.0
1709208242.828125,-1.68,0.033301,34.33,2376365.0
1709208242.84375,-1.3,0.033301,34.31,2375079.0
1709208242.859375,-1.38,0.030739,34.31,2374558.0
1709208242.875,-1.59,0.029458,34.31,2374521.0
1709208242.890625,-1.42,0.029458,34.31,2376346.0
1709208242.90625,-0.46,0.03202,34.33,2374919.0
1709208242.921875,1.44,0.029458,34.33,2377462.0
1709208242.9375,4.07,0.033301,34.33,2378655.0
1709208242.953125,6.91,0.034581,34.33,2379747.0
1709208242.96875,9.39,0.03202,34.31,2375411.0
1709208242.984375,11.01,0.03202,34.31,2381272.0
1709208243.0,11.58,0.030739,34.31,2383268.0
1709208243.015625,11.19,0.033301,34.31,2386167.0
1709208243.03125,10.15,0.034581,34.31,2389038.0
1709208243.046875,8.81,0.033301,34.31,2391434.0
1709208243.0625,7.4,0.03202,34.31,2393874.0
1709208243.078125,5.99,0.030739,34.31,2395918.0
1709208243.09375,4.56,0.030739,34.31,2393808.0
1709208243.109375,3.03,0.029458,34.31,2391587.0
1709208243.125,1.4,0.033301,34.31,2388908.0
1709208243.140625,-0.25,0.033301,34.31,2392891.0
1709208243.15625,-1.79,0.033301,34.31,2393711.0
1709208243.171875,-3.08,0.033301,34.31,2393537.0
1709208243.1875,-4.07,0.030739,34.31,2393494.0
1709208243.203125,-4.77,0.030739,34.31,2387580.0
1709208243.21875,-5.24,0.034581,34.33,2389963.0
1709208243.234375,-5.59,0.033301,34.33,2387497.0
1709208243.25,-5.91,0.034581,34.33,2393689.0
1709208243.265625,-6.26,0.030739,34.33,2390160.0
1709208243.28125,-6.68,0.030739,34.31,2394867.0
1709208243.296875,-7.14,0.03202,34.31,2396082.0
1709208243.3125,-7.66,0.030739,34.31,2397548.0
1709208243.328125,-8.32,0.035862,34.31,2398083.0
1709208243.34375,-9.23,0.034581,34.29,2404429.0
1709208243.359375,-10.53,0.034581,34.29,2412231.0
1709208243.375,-12.35,0.03202,34.29,2417314.0
1709208243.390625,-14.68,0.034581,34.29,2420768.0
1709208243.40625,-17.36,0.03202,34.31,2422343.0
1709208243.421875,-20.17,0.034581,34.31,2422264.0
1709208243.4375,-22.83,0.035862,34.31,2422099.0
1709208243.453125,-25.16,0.034581,34.31,2418592.0
1709208243.46875,-27.08,0.035862,34.29,2410314.0
1709208243.484375,-28.7,0.03202,34.29,2404999.0
1709208243.5,-30.3,0.033301,34.29,2402805.0
1709208243.515625,-32.28,0.030739,34.29,2402066.0
1709208243.53125,-35.05,0.034581,34.29,2401739.0
1709208243.546875,-38.84,0.035862,34.29,2401412.0
1709208243.5625,-43.47,0.033301,34.29,2401525.0
1709208243.578125,-48.17,0.03202,34.29,2400409.0
1709208243.59375,-51.64,0.03202,34.29,2398676.0
1709208243.609375,-52.43,0.03202,34.29,2397035.0
1709208243.625,-49.34,0.034581,34.29,2396295.0
1709208243.640625,-41.99,0.035862,34.29,2395923.0
1709208243.65625,-30.97,0.035862,34.27,2396522.0
1709208243.671875,-17.7,0.033301,34.27,2398215.0
1709208243.6875,-4.01,0.03202,34.27,2399040.0
1709208243.703125,8.44,0.03202,34.27,2399687.0
1709208243.71875,18.51,0.03202,34.27,2400061.0
1709208243.734375,25.73,0.034581,34.27,2397312.0
1709208243.75,30.19,0.033301,34.27,2400468.0
1709208243.765625,32.27,0.034581,34.27,2401002.0
1709208243.78125,32.45,0.030739,34.27,2401556.0
1709208243.796875,31.24,0.03202,34.27,2401702.0
1709208243.8125,29.18,0.03202,34.27,2401612.0
1709208243.828125,26.79,0.034581,34.27,2400151.0
1709208243.84375,24.54,0.034581,34.25,2393308.0
1709208243.859375,22.74,0.033301,34.25,2376372.0
1709208243.875,21.47,0.033301,34.25,2372010.0
1709208243.890625,20.59,0.03202,34.25,2383796.0
1709208243.90625,19.88,0.03202,34.25,2369710.0
1709208243.921875,19.15,0.035862,34.25,2367837.0
1709208243.9375,18.41,0.035862,34.25,2366761.0
1709208243.953125,17.84,0.034581,34.25,2365457.0
1709208243.96875,17.72,0.034581,34.25,2366891.0
1709208243.984375,18.28,0.03202,34.25,2369567.0
1709208244.0,19.56,0.03202,34.25,2372376.0
1709208244.015625,21.4,0.034581,34.25,2374540.0
1709208244.03125,23.43,0.035862,34.25,2365952.0
1709208244.046875,25.17,0.035862,34.25,2377185.0
1709208244.0625,26.2,0.035862,34.25,2379718.0
1709208244.078125,26.24,0.033301,34.25,2383351.0
1709208244.09375,25.22,0.033301,34.25,2385444.0
1709208244.109375,23.28,0.035862,34.25,2386969.0
1709208244.125,20.72,0.035862,34.25,2387290.0
1709208244.140625,17.92,0.037143,34.25,2387129.0
1709208244.15625,15.21,0.035862,34.25,2386460.0
1709208244.171875,12.76,0.033301,34.25,2385488.0
1709208244.1875,10.56,0.033301,34.25,2384864.0
1709208244.203125,8.46,0.033301,34.25,2384779.0
1709208244.21875,6.22,0.037143,34.25,2384402.0
1709208244.234375,3.65,0.037143,34.25,2378600.0
1709208244.25,0.74,0.037143,34.25,2369976.0
1709208244.265625,-2.35,0.033301,34.25,2362945.0
1709208244.28125,-5.32,0.033301,34.25,2358808.0
1709208244.296875,-7.85,0.033301,34.25,2353868.0
1709208244.3125,-9.74,0.037143,34.25,2356001.0
1709208244.328125,-11.0,0.037143,34.25,2352858.0
1709208244.34375,-11.82,0.035862,34.23,2351638.0
1709208244.359375,-12.54,0.033301,34.23,2350044.0
1709208244.375,-13.5,0.033301,34.23,2348263.0
1709208244.390625,-14.87,0.035862,34.23,2346607.0
1709208244.40625,-16.64,0.034581,34.23,2346106.0
1709208244.421875,-18.58,0.034581,34.23,2345779.0
1709208244.4375,-20.38,0.034581,34.23,2346251.0
1709208244.453125,-21.76,0.033301,34.23,2346925.0
1709208244.46875,-22.63,0.03202,34.23,2347764.0
1709208244.484375,-23.19,0.035862,34.23,2348966.0
1709208244.5,-23.84,0.037143,34.23,2350063.0
1709208244.515625,-25.16,0.037143,34.23,2351648.0
1709208244.53125,-27.61,0.037143,34.23,2353571.0
1709208244.546875,-31.37,0.033301,34.23,2355473.0
1709208244.5625,-36.05,0.034581,34.23,2357706.0
1709208244.578125,-40.76,0.035862,34.23,2360019.0
1709208244.59375,-44.14,0.037143,34.23,2361047.0
1709208244.609375,-44.82,0.037143,34.23,2357114.0
1709208244.625,-41.78,0.035862,34.23,2350146.0
1709208244.640625,-34.79,0.034581,34.23,2344099.0
1709208244.65625,-24.48,0.033301,34.21,2341319.0
1709208244.671875,-12.18,0.037143,34.21,2340197.0
1709208244.6875,0.49,0.037143,34.21,2339732.0
1709208244.703125,12.05,0.035862,34.21,2339863.0
1709208244.71875,21.46,0.037143,34.23,2340223.0
1709208244.734375,28.21,0.034581,34.23,2339983.0
1709208244.75,32.28,0.033301,34.23,2338999.0
1709208244.765625,33.94,0.033301,34.23,2338920.0
1709208244.78125,33.63,0.037143,34.23,2339426.0
1709208244.796875,31.95,0.037143,34.23,2340850.0
1709208244.8125,29.49,0.033301,34.23,2342011.0
1709208244.828125,26.84,0.034581,34.23,2343599.0
1709208244.84375,24.49,0.034581,34.21,2345592.0
1709208244.859375,22.7,0.033301,34.21,2347508.0
1709208244.875,21.51,0.037143,34.21,2349425.0
1709208244.890625,20.82,0.035862,34.21,2352008.0
1709208244.90625,20.5,0.037143,34.18,2354892.0
1709208244.921875,20.48,0.034581,34.18,2359417.0
1709208244.9375,20.84,0.035862,34.18,2363993.0
1709208244.953125,21.74,0.033301,34.18,2368083.0
1709208244.96875,23.31,0.037143,34.18,2370790.0
1709208244.984375,25.54,0.035862,34.18,2372511.0
1709208245.0,28.24,0.035862,34.18,2368282.0
1709208245.015625,31.03,0.034581,34.18,2362652.0
1709208245.03125,33.5,0.033301,34.21,2360692.0
1709208245.046875,35.33,0.033301,34.21,2360783.0
1709208245.0625,36.34,0.035862,34.21,2360777.0
1709208245.078125,36.55,0.035862,34.21,2360268.0
1709208245.09375,36.09,0.037143,34.18,2359481.0
1709208245.109375,35.22,0.034581,34.18,2358272.0
1709208245.125,34.27,0.034581,34.18,2355978.0
1709208245.140625,33.64,0.035862,34.18,2358584.0
1709208245.15625,33.68,0.038424,34.18,2368760.0
1709208245.171875,34.49,0.038424,34.18,2376597.0
1709208245.1875,35.72,0.038424,34.18,2381664.0
1709208245.203125,36.55,0.034581,34.18,2383956.0
1709208245.21875,35.94,0.035862,34.16,2383068.0
1709208245.234375,33.05,0.034581,34.16,2381415.0
1709208245.25,27.69,0.037143,34.16,2379844.0
1709208245.265625,20.43,0.037143,34.16,2380135.0
1709208245.28125,12.29,0.038424,34.18,2380192.0
1709208245.296875,4.35,0.035862,34.18,2380072.0
1709208245.3125,-2.75,0.034581,34.18,2380410.0
1709208245.328125,-8.96,0.035862,34.18,2380763.0
1709208245.34375,-14.59,0.033301,34.18,2381442.0
1709208245.359375,-19.97,0.038424,34.18,2382254.0
1709208245.375,-25.23,0.038424,34.18,2382950.0
1709208245.390625,-30.22,0.035862,34.18,2383196.0
1709208245.40625,-34.72,0.035862,34.16,2379801.0
1709208245.421875,-38.73,0.034581,34.16,2371448.0
1709208245.4375,-42.51,0.033301,34.16,2362951.0
1709208245.453125,-46.58,0.037143,34.16,2358105.0
1709208245.46875,-51.46,0.038424,34.16,2355957.0
1709208245.484375,-57.36,0.038424,34.16,2354603.0
1709208245.5,-64.04,0.035862,34.16,2353420.0
1709208245.515625,-70.64,0.038424,34.16,2353113.0
1709208245.53125,-75.84,0.035862,34.16,2352177.0
1709208245.546875,-78.13,0.038424,34.16,2350796.0
1709208245.5625,-76.26,0.039704,34.16,2349567.0
1709208245.578125,-69.64,0.037143,34.16,2348567.0
1709208245.59375,-58.65,0.037143,34.18,2348962.0
1709208245.609375,-44.64,0.034581,34.18,2349900.0
1709208245.625,-29.57,0.034581,34.18,2351120.0
1709208245.640625,-15.43,0.037143,34.18,2352068.0
1709208245.65625,-3.73,0.038424,34.18,2353260.0
1709208245.671875,4.8,0.038424,34.18,2354235.0
1709208245.6875,10.22,0.037143,34.18,2355338.0
1709208245.703125,13.15,0.035862,34.18,2356489.0
1709208245.71875,14.36,0.035862,34.16,2357746.0
1709208245.734375,14.52,0.037143,34.16,2359086.0
1709208245.75,14.09,0.039704,34.16,2361111.0
1709208245.765625,13.34,0.039704,34.16,2363462.0
1709208245.78125,12.47,0.038424,34.15,2364867.0
1709208245.796875,11.63,0.035862,34.15,2362058.0
1709208245.8125,10.99,0.035862,34.15,2359216.0
1709208245.828125,10.57,0.037143,34.15,2358787.0
1709208245.84375,10.27,0.040985,34.15,2359909.0
1709208245.859375,9.92,0.038424,34.15,2361504.0
1709208245.875,9.39,0.038424,34.15,2363228.0
1709208245.890625,8.72,0.035862,34.15,2365594.0
1709208245.90625,8.18,0.034581,34.16,2367219.0
1709208245.921875,8.13,0.034581,34.16,2366888.0
1709208245.9375,8.8,0.038424,34.16,2367575.0
1709208245.953125,10.16,0.037143,34.16,2367876.0
1709208245.96875,11.81,0.038424,34.15,2375948.0
1709208245.984375,13.22,0.038424,34.15,2385117.0
1709208246.0,13.88,0.035862,34.15,2391133.0
1709208246.015625,13.56,0.035862,34.15,2394898.0
1709208246.03125,12.33,0.039704,34.18,2397267.0
1709208246.046875,10.43,0.037143,34.18,2398123.0
1709208246.0625,8.22,0.039704,34.18,2397554.0
1709208246.078125,5.97,0.039704,34.18,2396854.0
1709208246.09375,3.9,0.035862,34.13,2396555.0
1709208246.109375,2.15,0.035862,34.13,2396558.0
1709208246.125,0.83,0.035862,34.13,2396292.0
1709208246.140625,-0.04,0.039704,34.13,2396505.0
1709208246.15625,-0.56,0.038424,34.13,2396910.0
1709208246.171875,-0.92,0.038424,34.13,2397312.0
1709208246.1875,-1.4,0.038424,34.13,2394817.0
1709208246.203125,-2.24,0.035862,34.13,2386124.0
1709208246.21875,-3.54,0.037143,34.15,2379239.0
1709208246.234375,-5.19,0.038424,34.15,2375361.0
1709208246.25,-6.95,0.038424,34.15,2374717.0
1709208246.265625,-8.52,0.039704,34.15,2375247.0
1709208246.28125,-9.7,0.038424,34.15,2375620.0
1709208246.296875,-10.47,0.037143,34.15,2376603.0
1709208246.3125,-10.98,0.035862,34.15,2377076.0
1709208246.328125,-11.53,0.035862,34.15,2377117.0
1709208246.34375,-12.42,0.039704,34.13,2377089.0
1709208246.359375,-13.8,0.038424,34.13,2377101.0
1709208246.375,-15.67,0.038424,34.13,2378146.0
1709208246.390625,-17.84,0.039704,34.13,2379701.0
1709208246.40625,-20.07,0.037143,34.13,2381681.0
1709208246.421875,-22.13,0.037143,34.13,2383525.0
1709208246.4375,-23.92,0.037143,34.13,2385442.0
1709208246.453125,-25.47,0.040985,34.13,2387362.0
1709208246.46875,-26.94,0.040985,34.11,2388795.0
1709208246.484375,-28.6,0.038424,34.11,2390700.0
1709208246.5,-30.86,0.038424,34.11,2391978.0
1709208246.515625,-34.08,0.037143,34.11,2394014.0
1709208246.53125,-38.49,0.037143,34.11,2395887.0
1709208246.546875,-43.91,0.039704,34.11,2397652.0
1709208246.5625,-49.57,0.039704,34.11,2399958.0
1709208246.578125,-54.2,0.039704,34.11,2401764.0
1709208246.59375,-56.27,0.039704,34.13,2403841.0
1709208246.609375,-54.49,0.037143,34.13,2401940.0
1709208246.625,-48.32,0.037143,34.13,2395375.0
1709208246.640625,-38.17,0.038424,34.13,2393217.0
1709208246.65625,-25.35,0.040985,34.13,2392506.0
1709208246.671875,-11.67,0.040985,34.13,2394976.0
1709208246.6875,1.13,0.040985,34.13,2396795.0
1709208246.703125,11.78,0.039704,34.13,2397558.0
1709208246.71875,19.69,0.037143,34.13,2399527.0
1709208246.734375,24.87,0.037143,34.13,2400825.0
1709208246.75,27.73,0.037143,34.13,2401391.0
1709208246.765625,28.86,0.042266,34.13,2401949.0
1709208246.78125,28.82,0.040985,34.11,2402127.0
1709208246.796875,28.14,0.039704,34.11,2403994.0
1709208246.8125,27.24,0.038424,34.11,2405827.0
1709208246.828125,26.42,0.037143,34.11,2407271.0
1709208246.84375,25.82,0.037143,34.11,2409278.0
1709208246.859375,25.48,0.038424,34.11,2411967.0
1709208246.875,25.35,0.039704,34.11,2415373.0
1709208246.890625,25.33,0.038424,34.11,2418507.0
1709208246.90625,25.35,0.039704,34.13,2421303.0
1709208246.921875,25.39,0.037143,34.13,2422967.0
1709208246.9375,25.47,0.037143,34.13,2422628.0
1709208246.953125,25.71,0.037143,34.13,2423345.0
1709208246.96875,26.22,0.039704,34.11,2422896.0
1709208246.984375,27.17,0.040985,34.11,2421687.0
1709208247.0,28.56,0.038424,34.11,2415582.0
1709208247.015625,30.29,0.037143,34.11,2406615.0
1709208247.03125,32.01,0.037143,34.09,2402538.0
1709208247.046875,33.32,0.037143,34.09,2402335.0
1709208247.0625,33.79,0.039704,34.09,2402929.0
1709208247.078125,33.19,0.040985,34.09,2403019.0
1709208247.09375,31.55,0.040985,34.09,2403295.0
1709208247.109375,29.14,0.040985,34.09,2403043.0
1709208247.125,26.36,0.038424,34.09,2402779.0
1709208247.140625,23.57,0.037143,34.09,2401912.0
1709208247.15625,20.97,0.038424,34.09,2401146.0
1709208247.171875,18.61,0.039704,34.09,2401760.0
1709208247.1875,16.44,0.040985,34.09,2402700.0
1709208247.203125,14.38,0.040985,34.09,2403661.0
1709208247.21875,12.36,0.040985,34.11,2404564.0
1709208247.234375,10.39,0.038424,34.11,2405380.0
1709208247.25,8.44,0.039704,34.11,2408379.0
1709208247.265625,6.52,0.042266,34.11,2409988.0
1709208247.28125,4.64,0.042266,34.09,2406828.0
1709208247.296875,2.88,0.042266,34.09,2411810.0
1709208247.3125,1.34,0.040985,34.09,2413091.0
1709208247.328125,0.09,0.039704,34.09,2411061.0
1709208247.34375,-0.89,0.039704,34.09,2404498.0
1709208247.359375,-1.81,0.038424,34.09,2398534.0
1709208247.375,-3.01,0.040985,34.09,2396002.0
1709208247.390625,-4.84,0.039704,34.09,2395299.0
1709208247.40625,-7.46,0.042266,34.11,2395306.0
1709208247.421875,-10.77,0.040985,34.11,2396335.0
1709208247.4375,-14.37,0.039704,34.11,2397415.0
1709208247.453125,-17.73,0.039704,34.11,2398303.0
1709208247.46875,-20.43,0.042266,34.07,2397927.0
1709208247.484375,-22.29,0.043547,34.07,2397854.0
1709208247.5,-23.47,0.042266,34.07,2398691.0
1709208247.515625,-24.42,0.042266,34.07,2399780.0
1709208247.53125,-25.74,0.039704,34.09,2404614.0
1709208247.546875,-27.97,0.038424,34.09,2408507.0
1709208247.5625,-31.45,0.038424,34.09,2401984.0
1709208247.578125,-36.16,0.042266,34.09,2412030.0
1709208247.59375,-41.56,0.042266,34.09,2414575.0
1709208247.609375,-46.64,0.042266,34.09,2417763.0
1709208247.625,-50.05,0.040985,34.09,2411595.0
1709208247.640625,-50.42,0.038424,34.09,2403926.0
1709208247.65625,-46.77,0.038424,34.09,2399885.0
1709208247.671875,-38.89,0.040985,34.09,2399111.0
1709208247.6875,-27.37,0.042266,34.09,2416420.0
1709208247.703125,-13.57,0.042266,34.09,2400186.0
1709208247.71875,0.76,0.042266,34.07,2400784.0
1709208247.734375,13.92,0.039704,34.07,2402471.0
1709208247.75,24.66,0.038424,34.07,2403171.0
1709208247.765625,32.42,0.039704,34.07,2403071.0
1709208247.78125,37.44,0.042266,34.09,2402094.0
1709208247.796875,40.57,0.043547,34.09,2401505.0
1709208247.8125,42.87,0.043547,34.09,2401877.0
1709208247.828125,45.18,0.042266,34.09,2402831.0
1709208247.84375,47.81,0.040985,34.05,2403768.0
1709208247.859375,50.53,0.039704,34.05,2404795.0
1709208247.875,52.78,0.039704,34.05,2405649.0
1709208247.890625,54.1,0.057636,34.05,2406467.0
1709208247.90625,54.42,0.040985,34.07,2407392.0
1709208247.921875,54.0,0.040985,34.07,2408010.0
1709208247.9375,53.25,0.042266,34.07,2408699.0
1709208247.953125,52.36,0.039704,34.07,2408574.0
1709208247.96875,51.21,0.039704,34.07,2402597.0
1709208247.984375,49.43,0.039704,34.07,2394505.0
1709208248.0,46.72,0.042266,34.07,2388322.0
1709208248.015625,43.06,0.040985,34.07,2385529.0
1709208248.03125,38.77,0.042266,34.03,2384586.0
1709208248.046875,34.28,0.040985,34.03,2384727.0
1709208248.0625,29.92,0.053793,34.03,2385920.0
1709208248.078125,25.72,0.039704,34.03,2387371.0
1709208248.09375,21.49,0.040985,34.05,2387872.0
1709208248.109375,17.03,0.042266,34.05,2387337.0
1709208248.125,12.27,0.042266,34.05,2386617.0
1709208248.140625,7.38,0.042266,34.05,2386200.0
1709208248.15625,2.72,0.040985,34.03,2385611.0
1709208248.171875,-1.4,0.039704,34.03,2385709.0
1709208248.1875,-4.76,0.040985,34.03,2387211.0
1709208248.203125,-7.33,0.043547,34.03,2386145.0
1709208248.21875,-9.26,0.042266,34.05,2388718.0
1709208248.234375,-10.78,0.043547,34.05,2389352.0
1709208248.25,-12.08,0.043547,34.05,2390954.0
1709208248.265625,-13.36,0.039704,34.05,2392182.0
1709208248.28125,-14.65,0.039704,34.05,2393592.0
1709208248.296875,-15.96,0.039704,34.05,2396304.0
1709208248.3125,-17.25,0.044828,34.05,2398971.0
1709208248.328125,-18.54,0.043547,34.05,2390299.0
1709208248.34375,-19.86,0.043547,34.03,2388100.0
1709208248.359375,-21.26,0.040985,34.03,2385993.0
1709208248.375,-22.77,0.042266,34.03,2394432.0
1709208248.390625,-24.32,0.039704,34.03,2382069.0
1709208248.40625,-25.81,0.044828,34.07,2387326.0
1709208248.421875,-27.08,0.042266,34.07,2379304.0
1709208248.4375,-28.1,0.043547,34.07,2380267.0
1709208248.453125,-28.97,0.043547,34.07,2379941.0
1709208248.46875,-30.02,0.040985,34.03,2379588.0
1709208248.484375,-31.82,0.039704,34.03,2381765.0
1709208248.5,-35.01,0.039704,34.03,2382291.0
1709208248.515625,-40.07,0.043547,34.03,2382091.0
1709208248.53125,-47.02,0.043547,34.03,2382273.0
1709208248.546875,-55.11,0.044828,34.03,2383595.0
1709208248.5625,-62.91,0.043547,34.03,2385621.0
1709208248.578125,-68.5,0.040985,34.03,2387624.0
1709208248.59375,-70.11,0.042266,34.05,2389960.0
1709208248.609375,-66.67,0.040985,34.05,2392014.0
1709208248.625,-58.22,0.044828,34.05,2393138.0
1709208248.640625,-45.91,0.040985,34.05,2394105.0
1709208248.65625,-31.63,0.046108,34.03,2395001.0
1709208248.671875,-17.4,0.044828,34.03,2395986.0
1709208248.6875,-4.8,0.042266,34.03,2396966.0
1709208248.703125,5.24,0.042266,34.03,2397909.0
1709208248.71875,12.5,0.042266,34.05,2399139.0
1709208248.734375,17.21,0.042266,34.05,2399781.0
1709208248.75,19.79,0.044828,34.05,2400364.0
1709208248.765625,20.74,0.043547,34.05,2396146.0
1709208248.78125,20.52,0.043547,34.0,2386766.0
1709208248.796875,19.6,0.042266,34.0,2376413.0
1709208248.8125,18.41,0.040985,34.0,2370630.0
1709208248.828125,17.31,0.040985,34.0,2367306.0
1709208248.84375,16.51,0.044828,34.0,2366387.0
1709208248.859375,16.05,0.046108,34.0,2365538.0
1709208248.875,15.86,0.043547,34.0,2365290.0
1709208248.890625,15.84,0.043547,34.0,2363759.0
1709208248.90625,15.99,0.040985,34.03,2361748.0
1709208248.921875,16.38,0.040985,34.03,2360811.0
1709208248.9375,17.12,0.039704,34.03,2360180.0
1709208248.953125,18.27,0.043547,34.03,2361809.0
1709208248.96875,19.78,0.044828,34.0,2360584.0
1709208248.984375,21.47,0.043547,34.0,2363012.0
1709208249.0,23.1,0.044828,34.0,2364672.0
1709208249.015625,24.49,0.043547,34.0,2366084.0
1709208249.03125,25.51,0.040985,34.0,2369630.0
1709208249.046875,26.07,0.040985,34.0,2367956.0
1709208249.0625,26.08,0.043547,34.0,2373407.0
1709208249.078125,25.42,0.046108,34.0,2371545.0
1709208249.09375,24.05,0.046108,34.03,2375227.0
1709208249.109375,22.01,0.044828,34.03,2377567.0
1709208249.125,19.54,0.043547,34.03,2379864.0
1709208249.140625,17.02,0.043547,34.03,2382283.0
1709208249.15625,14.77,0.042266,33.99,2384714.0
1709208249.171875,12.98,0.046108,33.99,2387289.0
1709208249.1875,11.55,0.046108,33.99,2387298.0
1709208249.203125,10.2,0.046108,33.99,2380500.0
1709208249.21875,8.61,0.044828,34.0,2374617.0
1709208249.234375,6.61,0.042266,34.0,2371416.0
1709208249.25,4.28,0.043547,34.0,2370960.0
1709208249.265625,1.87,0.042266,34.0,2371627.0
1709208249.28125,-0.33,0.044828,33.99,2371929.0
1709208249.296875,-2.12,0.044828,33.99,2372645.0
1709208249.3125,-3.52,0.046108,33.99,2373599.0
1709208249.328125,-4.71,0.043547,33.99,2374040.0
1709208249.34375,-5.94,0.042266,33.99,2374303.0
1709208249.359375,-7.44,0.042266,33.99,2374953.0
1709208249.375,-9.38,0.040985,33.99,2376045.0
1709208249.390625,-11.79,0.043547,33.99,2377396.0
1709208249.40625,-14.61,0.046108,33.99,2379075.0
1709208249.421875,-17.72,0.046108,33.99,2380766.0
1709208249.4375,-20.93,0.046108,33.99,2382540.0
1709208249.453125,-24.0,0.042266,33.99,2384192.0
1709208249.46875,-26.76,0.042266,33.99,2385849.0
1709208249.484375,-29.16,0.042266,33.99,2387233.0
1709208249.5,-31.3,0.042266,33.99,2388806.0
1709208249.515625,-33.47,0.046108,33.99,2390575.0
1709208249.53125,-36.08,0.044828,33.99,2391774.0
1709208249.546875,-39.5,0.046108,33.99,2393093.0
1709208249.5625,-43.92,0.044828,33.99,2394307.0
1709208249.578125,-49.11,0.042266,33.99,2395245.0
1709208249.59375,-54.32,0.043547,33.99,2396112.0
1709208249.609375,-58.31,0.042266,33.99,2397001.0
1709208249.625,-59.65,0.046108,33.99,2397777.0
1709208249.640625,-57.14,0.046108,33.99,2394494.0
1709208249.65625,-50.2,0.047389,33.99,2386831.0
1709208249.671875,-39.29,0.046108,33.99,2378724.0
1709208249.6875,-25.71,0.044828,33.99,2374229.0
1709208249.703125,-11.35,0.043547,33.99,2372901.0
1709208249.71875,1.93,0.042266,33.99,2372455.0
1709208249.734375,12.74,0.046108,33.99,2372303.0
1709208249.75,20.52,0.044828,33.99,2372361.0
1709208249.765625,25.38,0.046108,33.99,2371985.0
1709208249.78125,27.91,0.046108,33.97,2370855.0
1709208249.796875,28.87,0.043547,33.97,2369587.0
1709208249.8125,28.9,0.043547,33.97,2368671.0
1709208249.828125,28.42,0.042266,33.97,2368837.0
1709208249.84375,27.69,0.046108,33.97,2369279.0
1709208249.859375,26.83,0.047389,33.97,2370224.0
1709208249.875,25.85,0.046108,33.97,2371483.0
1709208249.890625,24.79,0.044828,33.97,2372949.0
1709208249.90625,23.67,0.042266,33.97,2374258.0
1709208249.921875,22.6,0.042266,33.97,2375302.0
1709208249.9375,21.71,0.042266,33.97,2376523.0
1709208249.953125,21.2,0.044828,33.97,2377925.0
1709208249.96875,21.2,0.044828,33.97,2379156.0
1709208249.984375,21.79,0.046108,33.97,2380590.0
1709208250.0,22.94,0.044828,33.97,2382046.0
1709208250.015625,24.54,0.043547,33.97,2383971.0
1709208250.03125,26.42,0.043547,33.97,2385480.0
1709208250.046875,28.36,0.042266,33.97,2387435.0
1709208250.0625,30.12,0.046108,33.97,2389295.0
1709208250.078125,31.47,0.047389,33.97,2390773.0
1709208250.09375,32.21,0.046108,33.95,2386237.0
1709208250.109375,32.18,0.047389,33.95,2379714.0
1709208250.125,31.35,0.043547,33.95,2375741.0
1709208250.140625,29.78,0.042266,33.95,2374860.0
1709208250.15625,27.6,0.043547,33.95,2375898.0
1709208250.171875,25.0,0.047389,33.95,2376828.0
1709208250.1875,22.18,0.047389,33.95,2378494.0
1709208250.203125,19.31,0.04867,33.95,2380090.0
1709208250.21875,16.51,0.046108,33.95,2382242.0
1709208250.234375,13.87,0.043547,33.95,2383440.0
1709208250.25,11.43,0.044828,33.95,2384372.0
1709208250.265625,9.18,0.044828,33.95,2386559.0
1709208250.28125,7.01,0.046108,33.97,2388552.0
1709208250.296875,4.82,0.049951,33.97,2390067.0
1709208250.3125,2.49,0.051232,33.97,2391298.0
1709208250.328125,0.07,0.051232,33.97,2392668.0
1709208250.34375,-2.31,0.049951,33.95,2396760.0
1709208250.359375,-4.44,0.04867,33.95,2401253.0
1709208250.375,-6.18,0.047389,33.95,2404456.0
1709208250.390625,-7.56,0.051232,33.95,2406025.0
1709208250.40625,-8.77,0.052512,33.95,2406504.0
1709208250.421875,-10.13,0.052512,33.95,2406722.0
1709208250.4375,-11.91,0.051232,33.95,2406387.0
1709208250.453125,-14.22,0.049951,33.95,2405676.0
1709208250.46875,-16.98,0.049951,33.91,2404839.0
1709208250.484375,-19.95,0.049951,33.91,2404708.0
1709208250.5,-22.9,0.053793,33.91,2397177.0
1709208250.515625,-25.66,0.053793,33.91,2404107.0
1709208250.53125,-28.17,0.053793,33.91,2382269.0
1709208250.546875,-30.5,0.051232,33.91,2388961.0
1709208250.5625,-32.79,0.049951,33.91,2379313.0
1709208250.578125,-35.27,0.049951,33.91,2377751.0
1709208250.59375,-38.23,0.04867,33.91,2377113.0
1709208250.609375,-42.0,0.052512,33.91,2377196.0
1709208250.625,-46.75,0.052512,33.91,2377194.0
1709208250.640625,-52.35,0.052512,33.91,2375981.0
1709208250.65625,-58.13,0.052512,33.91,2374234.0
1709208250.671875,-62.93,0.049951,33.91,2372583.0
1709208250.6875,-65.26,0.049951,33.91,2371710.0
1709208250.703125,-63.81,0.049951,33.91,2371594.0
1709208250.71875,-57.88,0.053793,33.89,2371690.0
1709208250.734375,-47.69,0.053793,33.89,2372106.0
1709208250.75,-34.41,0.052512,33.89,2372438.0
1709208250.765625,-19.74,0.052512,33.89,2372644.0
1709208250.78125,-5.46,0.049951,33.87,2373163.0
1709208250.796875,7.01,0.052512,33.87,2373446.0
1709208250.8125,16.88,0.04867,33.87,2373708.0
1709208250.828125,23.94,0.051232,33.87,2374299.0
1709208250.84375,28.42,0.052512,33.87,2374818.0
1709208250.859375,30.79,0.053793,33.87,2375473.0
1709208250.875,31.57,0.051232,33.87,2376258.0
1709208250.890625,31.3,0.049951,33.87,2377272.0
1709208250.90625,30.43,0.049951,33.89,2378449.0
1709208250.921875,29.33,0.049951,33.89,2379924.0
1709208250.9375,28.23,0.04867,33.89,2378823.0
1709208250.953125,27.23,0.052512,33.89,2372096.0
1709208250.96875,26.34,0.053793,33.87,2363820.0
1709208250.984375,25.55,0.052512,33.87,2358216.0
1709208251.0,24.81,0.04867,33.87,2355605.0
1709208251.015625,24.15,0.049951,33.87,2354853.0
1709208251.03125,23.61,0.04867,33.87,2355974.0
1709208251.046875,23.33,0.049951,33.87,2357968.0
1709208251.0625,23.47,0.052512,33.87,2359779.0
1709208251.078125,24.21,0.053793,33.87,2360775.0
1709208251.09375,25.61,0.053793,33.84,2362674.0
1709208251.109375,27.56,0.052512,33.84,2367085.0
1709208251.125,29.75,0.051232,33.84,2372914.0
1709208251.140625,31.7,0.049951,33.84,2377764.0
1709208251.15625,32.95,0.049951,33.84,2380348.0
1709208251.171875,33.15,0.051232,33.84,2381434.0
1709208251.1875,32.21,0.053793,33.84,2381253.0
1709208251.203125,30.29,0.053793,33.84,2378748.0
1709208251.21875,27.72,0.052512,33.84,2375532.0
1709208251.234375,24.9,0.049951,33.84,2372938.0
1709208251.25,22.11,0.049951,33.84,2371478.0
1709208251.265625,19.52,0.049951,33.84,2370711.0
1709208251.28125,17.08,0.052512,33.84,2370356.0
1709208251.296875,14.65,0.053793,33.84,2370424.0
1709208251.3125,12.08,0.051232,33.84,2370695.0
1709208251.328125,9.27,0.052512,33.84,2371428.0
1709208251.34375,6.25,0.053793,33.83,2372749.0
1709208251.359375,3.17,0.049951,33.83,2374368.0
1709208251.375,0.22,0.049951,33.83,2372648.0
1709208251.390625,-2.42,0.049951,33.83,2361092.0
1709208251.40625,-4.65,0.053793,33.84,2366935.0
1709208251.421875,-6.47,0.053793,33.84,2357723.0
1709208251.4375,-7.96,0.053793,33.84,2358454.0
1709208251.453125,-9.26,0.053793,33.84,2359283.0
1709208251.46875,-10.55,0.051232,33.84,2358546.0
1709208251.484375,-11.98,0.049951,33.84,2360822.0
1709208251.5,-13.63,0.051232,33.84,2361346.0
1709208251.515625,-15.51,0.053793,33.84,2360961.0
1709208251.53125,-17.51,0.055074,33.83,2360536.0
1709208251.546875,-19.48,0.053793,33.83,2360841.0
1709208251.5625,-21.3,0.053793,33.83,2360967.0
1709208251.578125,-22.99,0.051232,33.83,2360838.0
1709208251.59375,-24.76,0.049951,33.83,2359926.0
1709208251.609375,-26.99,0.049951,33.83,2359433.0
1709208251.625,-30.06,0.052512,33.83,2358770.0
1709208251.640625,-34.21,0.053793,33.83,2357725.0
1709208251.65625,-39.26,0.055074,33.79,2357609.0
1709208251.671875,-44.55,0.053793,33.79,2357842.0
1709208251.6875,-48.98,0.053793,33.79,2358756.0
1709208251.703125,-51.26,0.051232,33.79,2359544.0
1709208251.71875,-50.26,0.049951,33.81,2360506.0
1709208251.734375,-45.35,0.049951,33.81,2361896.0
1709208251.75,-36.64,0.051232,33.81,2363197.0
1709208251.765625,-24.95,0.052512,33.81,2361801.0
1709208251.78125,-11.61,0.053793,33.79,2355246.0
1709208251.796875,1.89,0.053793,33.79,2347343.0
1709208251.8125,14.27,0.053793,33.79,2342637.0
1709208251.828125,24.65,0.051232,33.79,2341003.0
1709208251.84375,32.57,0.051232,33.79,2340558.0
1709208251.859375,38.0,0.049951,33.79,2342908.0
1709208251.875,41.11,0.053793,33.79,2345630.0
1709208251.890625,42.25,0.053793,33.79,2348064.0
1709208251.90625,41.85,0.053793,33.79,2349627.0
1709208251.921875,40.41,0.051232,33.79,2350537.0
1709208251.9375,38.51,0.051232,33.79,2350904.0
1709208251.953125,36.66,0.052512,33.79,2351236.0
1709208251.96875,35.24,0.055074,33.79,2351012.0
1709208251.984375,34.39,0.055074,33.79,2350003.0
1709208252.0,34.01,0.055074,33.79,2349266.0
1709208252.015625,33.87,0.055074,33.79,2348842.0
1709208252.03125,33.77,0.052512,33.77,2348832.0
1709208252.046875,33.77,0.052512,33.77,2349306.0
1709208252.0625,34.17,0.051232,33.77,2350186.0
1709208252.078125,35.44,0.055074,33.77,2351734.0
1709208252.09375,37.93,0.055074,33.75,2353706.0
1709208252.109375,41.62,0.053793,33.75,2355849.0
1709208252.125,46.09,0.053793,33.75,2358113.0
1709208252.140625,50.6,0.051232,33.75,2360653.0
1709208252.15625,54.42,0.049951,33.77,2360222.0
1709208252.171875,57.12,0.049951,33.77,2344275.0
1709208252.1875,58.71,0.055074,33.77,2353216.0
1709208252.203125,59.62,0.053793,33.77,2337931.0
1709208252.21875,60.47,0.055074,33.77,2333936.0
1709208252.234375,61.78,0.053793,33.77,2331016.0
1709208252.25,63.81,0.051232,33.77,2328103.0
1709208252.265625,66.52,0.052512,33.77,2326492.0
1709208252.28125,69.58,0.051232,33.75,2324903.0
1709208252.296875,72.36,0.055074,33.75,2319397.0
1709208252.3125,74.06,0.055074,33.75,2317535.0
1709208252.328125,73.73,0.055074,33.75,2322528.0
1709208252.34375,70.61,0.053793,33.77,2316517.0
1709208252.359375,64.39,0.052512,33.77,2316157.0
1709208252.375,55.45,0.052512,33.77,2317351.0
1709208252.390625,44.75,0.052512,33.77,2316902.0
1709208252.40625,33.5,0.055074,33.75,2317989.0
1709208252.421875,22.64,0.055074,33.75,2318755.0
1709208252.4375,12.52,0.053793,33.75,2319573.0
1709208252.453125,2.94,0.053793,33.75,2320264.0
1709208252.46875,-6.56,0.051232,33.73,2321270.0
1709208252.484375,-16.17,0.049951,33.73,2322343.0
1709208252.5,-25.58,0.049951,33.73,2324077.0
1709208252.515625,-34.11,0.055074,33.73,2329555.0
1709208252.53125,-41.08,0.069163,33.71,2331889.0
1709208252.546875,-46.24,0.053793,33.71,2335052.0
1709208252.5625,-50.06,0.052512,33.71,2327057.0
1709208252.578125,-53.53,0.051232,33.71,2323321.0
1709208252.59375,-57.81,0.051232,33.65,2331943.0
1709208252.609375,-63.79,0.055074,33.65,2326209.0
1709208252.625,-71.68,0.053793,33.65,2336991.0
1709208252.640625,-80.78,0.055074,33.65,2327866.0
1709208252.65625,-89.5,0.055074,33.59,2340308.0
1709208252.671875,-95.7,0.053793,33.59,2325636.0
1709208252.6875,-97.23,0.052512,33.59,2341630.0
1709208252.703125,-92.65,0.051232,33.59,2334486.0
1709208252.71875,-81.93,0.051232,33.61,2341555.0
1709208252.734375,-66.67,0.053793,33.61,2336389.0
1709208252.75,-49.83,0.055074,33.61,2335807.0
1709208252.765625,-34.86,0.053793,33.61,2345536.0
1709208252.78125,-24.65,0.055074,33.61,2353157.0
1709208252.796875,-20.71,0.051232,33.61,2336952.0
1709208252.8125,-22.82,0.051232,33.61,2359510.0
1709208252.828125,-29.41,0.053793,33.61,2357602.0
1709208252.84375,-38.26,0.055074,33.57,2359621.0
1709208252.859375,-47.28,0.055074,33.57,2359759.0
1709208252.875,-54.99,0.055074,33.57,2359244.0
1709208252.890625,-60.59,0.052512,33.57,2358498.0
1709208252.90625,-63.78,0.052512,33.55,2358094.0
1709208252.921875,-64.45,0.052512,33.55,2357769.0
1709208252.9375,-62.56,0.055074,33.55,2357509.0
1709208252.953125,-58.22,0.055074,33.55,2357498.0
1709208252.96875,-51.87,0.055074,33.57,2357761.0
1709208252.984375,-44.31,0.055074,33.57,2357649.0
1709208253.0,-36.63,0.052512,33.57,2357423.0
1709208253.015625,-29.84,0.052512,33.57,2358044.0
1709208253.03125,-24.49,0.051232,33.55,2358688.0
1709208253.046875,-20.43,0.053793,33.55,2359434.0
1709208253.0625,-16.93,0.04867,33.55,2360220.0
1709208253.078125,-12.98,0.055074,33.55,2358075.0
1709208253.09375,-7.83,0.053793,33.55,2349485.0
1709208253.109375,-1.35,0.052512,33.55,2338847.0
1709208253.125,5.88,0.051232,33.55,2332237.0
1709208253.140625,12.85,0.049951,33.55,2328516.0
1709208253.15625,18.52,0.055074,33.55,2326503.0
1709208253.171875,22.28,0.053793,33.55,2325409.0
1709208253.1875,24.09,0.053793,33.55,2324412.0
1709208253.203125,24.39,0.055074,33.55,2322772.0
1709208253.21875,23.87,,,2320873.0
1709208253.234375,23.09,,,2318596.0
1709208253.25,22.33,,,2317542.0
1709208253.265625,21.56,,,2317054.0
1709208253.28125,20.58,,,2317681.0
1709208253.296875,19.18,,,2318549.0
1709208253.3125,17.28,,,2319581.0
1709208253.328125,14.93,,,2320794.0
1709208253.34375,12.31,,,2322238.0
1709208253.359375,9.59,,,2323639.0
1709208253.375,6.84,,,2324872.0
1709208253.390625,4.08,,,2326298.0
1709208253.40625,1.25,,,2327680.0
1709208253.421875,-1.6,,,2329305.0
1709208253.4375,-4.32,,,2330989.0
1709208253.453125,-6.68,,,2332762.0
1709208253.46875,-8.46,,,2334791.0
1709208253.484375,-9.63,,,2336736.0
1709208253.5,-10.42,,,2339086.0
1709208253.515625,-11.26,,,2340150.0
1709208253.53125,-12.6,,,2334875.0
1709208253.546875,-14.63,,,2325690.0
1709208253.5625,-17.17,,,2318766.0
1709208253.578125,-19.8,,,2315425.0
1709208253.59375,-22.03,,,2313721.0
1709208253.609375,-23.66,,,2312141.0
1709208253.625,-24.9,,,2311461.0
1709208253.640625,-26.33,,,2310914.0
1709208253.65625,-28.65,,,2310301.0
1709208253.671875,-32.44,,,2309130.0
1709208253.6875,-37.83,,,2308608.0
1709208253.703125,-44.4,,,2308193.0
1709208253.71875,-51.16,,,2309006.0
1709208253.734375,-56.71,,,2310287.0
1709208253.75,-59.55,,,2312202.0
1709208253.765625,-58.45,,,2313993.0
1709208253.78125,-52.82,,,2315973.0
1709208253.796875,-42.9,,,2317985.0
1709208253.8125,-29.77,,,2319812.0
1709208253.828125,-15.04,,,2321647.0
1709208253.84375,-0.49,,,2323294.0
1709208253.859375,12.37,,,2325148.0
1709208253.875,22.59,,,2327009.0
1709208253.890625,29.82,,,2329102.0
1709208253.90625,34.26,,,2331191.0
1709208253.921875,36.45,,,2333340.0
1709208253.9375,37.06,,,2335462.0
1709208253.953125,36.76,,,2337563.0
1709208253.96875,36.06,,,2337563.0
1709208253.984375,35.27,,,2339301.0
1709208254.0,34.48,,,2341499.0
1709208254.015625,33.68,,,2342705.0
1709208254.03125,32.8,,,2337573.0
1709208254.046875,31.81,,,2328813.0
1709208254.0625,30.75,,,2321873.0
1709208254.078125,29.72,,,2318714.0
1709208254.09375,28.88,,,2317855.0
1709208254.109375,28.41,,,2317237.0
1709208254.125,28.52,,,2316773.0
1709208254.140625,29.3,,,2316820.0
1709208254.15625,30.74,,,2316566.0
1709208254.171875,32.58,,,2315554.0
1709208254.1875,34.4,,,2314968.0
1709208254.203125,35.65,,,2316224.0
1709208254.21875,35.94,,,2322407.0
1709208254.234375,35.14,,,2330153.0
1709208254.25,33.44,,,2336116.0
1709208254.265625,31.24,,,2339986.0
1709208254.28125,28.96,,,2342448.0
1709208254.296875,26.87,,,2344692.0
1709208254.3125,24.99,,,2346768.0
1709208254.328125,23.13,,,2348927.0
1709208254.34375,21.07,,,2351186.0
1709208254.359375,18.7,,,2353969.0
1709208254.375,16.03,,,2356557.0
1709208254.390625,13.22,,,2359665.0
1709208254.40625,10.44,,,2361904.0
1709208254.421875,7.89,,,2363312.0
1709208254.4375,5.65,,,2364261.0
1709208254.453125,3.75,,,2364025.0
1709208254.46875,2.12,,,2362240.0
1709208254.484375,0.63,,,2364004.0
1709208254.5,-0.85,,,2371062.0
1709208254.515625,-2.43,,,2374290.0
1709208254.53125,-4.14,,,2371851.0
1709208254.546875,-5.89,,,2367774.0
1709208254.5625,-7.46,,,2365928.0
1709208254.578125,-8.63,,,2364092.0
1709208254.59375,-9.27,,,2362780.0
1709208254.609375,-9.45,,,2361964.0
1709208254.625,-9.47,,,2361075.0
1709208254.640625,-9.78,,,2359399.0
1709208254.65625,-10.85,,,2357409.0
1709208254.671875,-12.9,,,2355683.0
1709208254.6875,-15.74,,,2354884.0
1709208254.703125,-18.58,,,2354945.0
1709208254.71875,-20.16,,,2355516.0
1709208254.734375,-18.98,,,2356315.0
1709208254.75,-13.8,,,2357383.0
1709208254.765625,-4.06,,,2358104.0
1709208254.78125,9.67,,,2358956.0
1709208254.796875,25.79,,,2359619.0
1709208254.8125,41.98,,,2360292.0
1709208254.828125,55.81,,,2360986.0
1709208254.84375,65.37,,,2361772.0
1709208254.859375,69.77,,,2362450.0
1709208254.875,69.13,,,2363170.0
1709208254.890625,64.37,,,2363788.0
1709208254.90625,56.76,,,2365087.0
1709208254.921875,47.5,,,2366576.0
1709208254.9375,37.53,,,2367531.0
1709208254.953125,27.46,,,2363573.0
1709208254.96875,17.7,,,2355594.0
1709208254.984375,8.55,,,2348320.0
1709208255.0,0.29,,,2344696.0
1709208255.015625,-6.84,,,2343316.0
1709208255.03125,-12.62,,,2343064.0
1709208255.046875,-16.99,,,2343164.0
1709208255.0625,-19.95,,,2343574.0
1709208255.078125,-21.6,,,2343589.0
1709208255.09375,-22.03,,,2343159.0
1709208255.109375,-21.42,,,2344321.0
1709208255.125,-19.92,,,2349233.0
1709208255.140625,-17.85,,,2355097.0
1709208255.15625,-15.6,,,2359666.0
1709208255.171875,-13.66,,,2363430.0
1709208255.1875,-12.44,,,2367379.0
1709208255.203125,-12.16,,,2370574.0
1709208255.21875,-12.79,,,2373669.0
1709208255.234375,-14.05,,,2376558.0
1709208255.25,-15.62,,,2378540.0
1709208255.265625,-17.26,,,2379848.0
1709208255.28125,-18.93,,,2381123.0
1709208255.296875,-20.76,,,2382240.0
1709208255.3125,-22.91,,,2383215.0
1709208255.328125,-25.4,,,2383679.0
1709208255.34375,-28.1,,,2384126.0
1709208255.359375,-30.71,,,2384311.0
1709208255.375,-33.0,,,2384836.0
1709208255.390625,-34.86,,,2382725.0
1709208255.40625,-36.37,,,2372292.0
1709208255.421875,-37.76,,,2362451.0
1709208255.4375,-39.24,,,2356019.0
1709208255.453125,-40.98,,,2353306.0
1709208255.46875,-42.98,,,2351933.0
1709208255.484375,-45.13,,,2350812.0
1709208255.5,-47.29,,,2350041.0
1709208255.515625,-49.37,,,2349328.0
1709208255.53125,-51.4,,,2347749.0
1709208255.546875,-53.55,,,2345510.0
1709208255.5625,-56.14,,,2343657.0
1709208255.578125,-59.53,,,2342833.0
1709208255.59375,-63.99,,,2342456.0
1709208255.609375,-69.59,,,2342803.0
1709208255.625,-75.92,,,2343395.0
1709208255.640625,-82.07,,,2344413.0
1709208255.65625,-86.61,,,2345244.0
1709208255.671875,-87.97,,,2346403.0
1709208255.6875,-84.88,,,2347596.0
1709208255.703125,-76.78,,,2348832.0
1709208255.71875,-64.14,,,2350408.0
1709208255.734375,-48.28,,,2352090.0
1709208255.75,-31.07,,,2355769.0
1709208255.765625,-14.4,,,2353847.0
1709208255.78125,0.24,,,2357399.0
1709208255.796875,11.93,,,2359068.0
1709208255.8125,20.38,,,2360893.0
1709208255.828125,25.75,,,2363072.0
1709208255.84375,28.53,,,2365208.0
1709208255.859375,29.43,,,2361383.0
1709208255.875,29.14,,,2353550.0
1709208255.890625,28.24,,,2347051.0
1709208255.90625,27.11,,,2344578.0
1709208255.921875,25.93,,,2344412.0
1709208255.9375,24.71,,,2344453.0
1709208255.953125,23.48,,,2344848.0
1709208255.96875,22.3,,,2346327.0
1709208255.984375,21.31,,,2349475.0
1709208256.0,20.68,,,2352588.0
1709208256.015625,20.54,,,2354189.0
1709208256.03125,21.02,,,2355441.0
1709208256.046875,22.19,,,2356161.0
1709208256.0625,24.1,,,2357517.0
1709208256.078125,26.67,,,2359033.0
1709208256.09375,29.7,,,2360867.0
1709208256.109375,32.77,,,2363506.0
1709208256.125,35.36,,,2362458.0
1709208256.140625,37.01,,,2364372.0
1709208256.15625,37.42,,,2365708.0
1709208256.171875,36.59,,,2367495.0
1709208256.1875,34.77,,,2375935.0
1709208256.203125,32.33,,,2383322.0
1709208256.21875,29.64,,,2387504.0
1709208256.234375,26.88,,,2389939.0
1709208256.25,24.09,,,2390982.0
1709208256.265625,21.15,,,2391072.0
1709208256.28125,17.88,,,2360928.0
1709208256.296875,14.2,,,2355074.0
1709208256.3125,10.18,,,2384503.0
1709208256.328125,6.04,,,2371256.0
1709208256.34375,2.05,,,2348951.0
1709208256.359375,-1.59,,,2351694.0
1709208256.375,-4.87,,,2346798.0
1709208256.390625,-7.95,,,2344891.0
1709208256.40625,-11.15,,,2342622.0
1709208256.421875,-14.75,,,2339377.0
1709208256.4375,-18.85,,,2336032.0
1709208256.453125,-23.29,,,2333536.0
1709208256.46875,-27.77,,,2330621.0
1709208256.484375,-31.94,,,2331637.0
1709208256.5,-35.59,,,2329567.0
1709208256.515625,-38.72,,,2329944.0
1709208256.53125,-41.62,,,2329805.0
1709208256.546875,-44.75,,,2329514.0
1709208256.5625,-48.71,,,2329604.0
1709208256.578125,-54.02,,,2330100.0
1709208256.59375,-60.9,,,2330350.0
1709208256.609375,-68.99,,,2331008.0
1709208256.625,-77.22,,,2331812.0
1709208256.640625,-83.86,,,2333111.0
1709208256.65625,-86.85,,,2334007.0
1709208256.671875,-84.52,,,2336824.0
1709208256.6875,-76.08,,,2338432.0
1709208256.703125,-62.04,,,2340376.0
1709208256.71875,-44.06,,,2335654.0
1709208256.734375,-24.5,,,2341415.0
1709208256.75,-5.64,,,2326531.0
1709208256.765625,10.81,,,2317835.0
1709208256.78125,23.97,,,2313228.0
1709208256.796875,33.75,,,2311912.0
1709208256.8125,40.56,,,2313184.0
1709208256.828125,45.03,,,2316081.0
1709208256.84375,47.82,,,2336359.0
1709208256.859375,49.51,,,2316081.0
1709208256.875,50.51,,,2318197.0
1709208256.890625,51.09,,,2318317.0
1709208256.90625,51.39,,,2317036.0
1709208256.921875,51.45,,,2315357.0
1709208256.9375,51.31,,,2315379.0
1709208256.953125,51.06,,,2316113.0
1709208256.96875,50.92,,,2316869.0
1709208256.984375,51.11,,,2322072.0
1709208257.0,51.88,,,2321240.0
1709208257.015625,53.36,,,2320404.0
1709208257.03125,55.54,,,2319646.0
1709208257.046875,58.3,,,2318814.0
1709208257.0625,61.45,,,2323227.0
1709208257.078125,64.76,,,2324324.0
1709208257.09375,68.0,,,2317821.0
1709208257.109375,70.97,,,2325499.0
1709208257.125,73.46,,,2326594.0
1709208257.140625,75.26,,,2328254.0
1709208257.15625,76.27,,,2330021.0
1709208257.171875,76.46,,,2331482.0
1709208257.1875,75.93,,,2332540.0
1709208257.203125,74.86,,,2334873.0
1709208257.21875,73.47,,,2333509.0
1709208257.234375,71.92,,,2335169.0
1709208257.25,70.4,,,2328880.0
1709208257.265625,69.17,,,2317273.0
1709208257.28125,68.69,,,2306078.0
1709208257.296875,69.47,,,2298239.0
1709208257.3125,71.75,,,2293421.0
1709208257.328125,75.17,,,2288844.0
1709208257.34375,78.64,,,2285311.0
1709208257.359375,80.51,,,2283113.0
1709208257.375,79.23,,,2280247.0
1709208257.390625,73.91,,,2277210.0
1709208257.40625,64.73,,,2274363.0
1709208257.421875,52.82,,,2272654.0
1709208257.4375,39.77,,,2270461.0
1709208257.453125,27.01,,,2270359.0
1709208257.46875,15.36,,,2270383.0
1709208257.484375,4.98,,,2270835.0
1709208257.5,-4.45,,,2271516.0
1709208257.515625,-13.49,,,2271133.0
1709208257.53125,-22.67,,,2271473.0
1709208257.546875,-32.5,,,2270905.0
1709208257.5625,-43.34,,,2271584.0
1709208257.578125,-55.32,,,2272127.0
1709208257.59375,-68.18,,,2273055.0
1709208257.609375,-81.03,,,2274480.0
1709208257.625,-92.32,,,2276390.0
1709208257.640625,-100.11,,,2278286.0
1709208257.65625,-102.55,,,2281159.0
1709208257.671875,-98.58,,,2284425.0
1709208257.6875,-88.54,,,2280202.0
1709208257.703125,-74.31,,,2274485.0
1709208257.71875,-58.94,,,2270059.0
1709208257.734375,-45.8,,,2271597.0
1709208257.75,-37.55,,,2269784.0
1709208257.765625,-35.34,,,2270803.0
1709208257.78125,-38.6,,,2285409.0
1709208257.796875,-45.39,,,2269800.0
1709208257.8125,-53.16,,,2268920.0
1709208257.828125,-59.58,,,2267072.0
1709208257.84375,-63.12,,,2265180.0
1709208257.859375,-63.22,,,2264279.0
1709208257.875,-60.2,,,2264274.0
1709208257.890625,-54.88,,,2265189.0
1709208257.90625,-48.29,,,2266769.0
1709208257.921875,-41.4,,,2268470.0
1709208257.9375,-34.93,,,2272996.0
1709208257.953125,-29.27,,,2270695.0
1709208257.96875,-24.51,,,2275370.0
1709208257.984375,-20.48,,,2277287.0
1709208258.0,-16.76,,,2279358.0
1709208258.015625,-12.91,,,2281028.0
1709208258.03125,-8.52,,,2282808.0
1709208258.046875,-3.41,,,2284724.0
1709208258.0625,2.29,,,2286645.0
1709208258.078125,8.16,,,2288109.0
1709208258.09375,13.57,,,2289144.0
1709208258.109375,17.93,,,2290264.0
1709208258.125,20.8,,,2290931.0
1709208258.140625,22.1,,,2290717.0
1709208258.15625,22.04,,,2284705.0
1709208258.171875,21.05,,,2269987.0
1709208258.1875,19.57,,,2250746.0
1709208258.203125,17.95,,,2237072.0
1709208258.21875,16.32,,,2227631.0
1709208258.234375,14.62,,,2219401.0
1709208258.25,12.66,,,2212149.0
1709208258.265625,10.29,,,2206925.0
1709208258.28125,7.46,,,2201869.0
1709208258.296875,4.32,,,2195910.0
1709208258.3125,1.16,,,2189835.0
1709208258.328125,-1.73,,,2185661.0
1709208258.34375,-4.21,,,2182713.0
1709208258.359375,-6.33,,,2181126.0
1709208258.375,-8.39,,,2181140.0
1709208258.390625,-10.73,,,2181559.0
1709208258.40625,-13.62,,,2182984.0
1709208258.421875,-17.05,,,2184541.0
1709208258.4375,-20.78,,,2186783.0
1709208258.453125,-24.38,,,2189719.0
1709208258.46875,-27.48,,,2193166.0
1709208258.484375,-29.97,,,2198892.0
1709208258.5,-32.09,,,2203722.0
1709208258.515625,-34.42,,,2209183.0
1709208258.53125,-37.63,,,2213602.0
1709208258.546875,-42.32,,,2217425.0
1709208258.5625,-48.63,,,2220684.0
1709208258.578125,-56.18,,,2223096.0
1709208258.59375,-63.88,,,2225668.0
1709208258.609375,-70.17,,,2227397.0
1709208258.625,-73.23,,,2228678.0
1709208258.640625,-71.53,,,2229874.0
1709208258.65625,-64.3,,,2228420.0
1709208258.671875,-51.89,,,2229822.0
1709208258.6875,-35.75,,,2234727.0
1709208258.703125,-18.09,,,2238387.0
1709208258.71875,-1.21,,,2240229.0
1709208258.734375,13.18,,,2240402.0
1709208258.75,24.25,,,2240665.0
1709208258.765625,32.14,,,2240962.0
1709208258.78125,37.52,,,2240716.0
1709208258.796875,41.13,,,2239893.0
1709208258.8125,43.5,,,2238819.0
1709208258.828125,44.84,,,2239233.0
1709208258.84375,45.25,,,2239972.0
1709208258.859375,44.84,,,2241012.0
1709208258.875,43.89,,,2242076.0
1709208258.890625,42.72,,,2243096.0
1709208258.90625,41.6,,,2243722.0
1709208258.921875,40.63,,,2244356.0
1709208258.9375,39.78,,,2244854.0
1709208258.953125,39.06,,,2245596.0
1709208258.96875,38.57,,,2246037.0
1709208258.984375,38.6,,,2246669.0
1709208259.0,39.49,,,2247471.0
1709208259.015625,41.44,,,2248160.0
1709208259.03125,44.38,,,2249268.0
1709208259.046875,47.85,,,2250414.0
1709208259.0625,51.14,,,2251619.0
1709208259.078125,53.53,,,2252967.0
1709208259.09375,54.48,,,2254432.0
1709208259.109375,53.94,,,2256134.0
1709208259.125,52.23,,,2254678.0
1709208259.140625,49.89,,,2247583.0
1709208259.15625,47.44,,,2237070.0
1709208259.171875,45.13,,,2229542.0
1709208259.1875,42.91,,,2225471.0
1709208259.203125,40.5,,,2223375.0
1709208259.21875,37.66,,,2222315.0
1709208259.234375,34.28,,,2221953.0
1709208259.25,30.48,,,2221276.0
1709208259.265625,26.52,,,2219760.0
1709208259.28125,22.72,,,2218514.0
1709208259.296875,19.31,,,2218492.0
1709208259.3125,16.39,,,2219589.0
1709208259.328125,13.93,,,2220822.0
1709208259.34375,11.75,,,2222597.0
1709208259.359375,9.58,,,2224408.0
1709208259.375,7.14,,,2226104.0
1709208259.390625,4.23,,,2228081.0
1709208259.40625,0.84,,,2230126.0
1709208259.421875,-2.86,,,2234438.0
1709208259.4375,-6.54,,,2238133.0
1709208259.453125,-9.9,,,2241546.0
1709208259.46875,-12.77,,,2244701.0
1709208259.484375,-15.19,,,2246223.0
1709208259.5,-17.39,,,2247596.0
1709208259.515625,-19.71,,,2248510.0
1709208259.53125,-22.47,,,2248156.0
1709208259.546875,-25.81,,,2248307.0
1709208259.5625,-29.54,,,2249515.0
1709208259.578125,-33.08,,,2251135.0
1709208259.59375,-35.44,,,2248674.0
1709208259.609375,-35.45,,,2241380.0
1709208259.625,-32.15,,,2230372.0
1709208259.640625,-25.12,,,2221710.0
1709208259.65625,-14.78,,,2217156.0
1709208259.671875,-2.3,,,2213697.0
1709208259.6875,10.62,,,2210153.0
1709208259.703125,22.34,,,2207721.0
1709208259.71875,31.67,,,2205671.0
1709208259.734375,38.09,,,2203051.0
1709208259.75,41.73,,,2200013.0
1709208259.765625,43.12,,,2197680.0
1709208259.78125,42.87,,,2196436.0
1709208259.796875,41.52,,,2196132.0
1709208259.8125,39.48,,,2196081.0
1709208259.828125,37.05,,,2196762.0
1709208259.84375,34.52,,,2197498.0
1709208259.859375,32.16,,,2198441.0
1709208259.875,30.12,,,2199435.0
1709208259.890625,28.44,,,2200629.0
1709208259.90625,26.98,,,2202037.0
1709208259.921875,25.53,,,2203744.0
1709208259.9375,23.97,,,2205814.0
1709208259.953125,22.33,,,2207818.0
1709208259.96875,20.85,,,2209923.0
1709208259.984375,19.87,,,2212373.0
1709208260.0,19.66,,,2214790.0
1709208260.015625,20.27,,,2217173.0
1709208260.03125,21.43,,,2219783.0
1709208260.046875,22.69,,,2222322.0
1709208260.0625,23.53,,,2225151.0
1709208260.078125,23.59,,,2224218.0
1709208260.09375,22.73,,,2218845.0
1709208260.109375,20.98,,,2211350.0
1709208260.125,18.47,,,2206276.0
1709208260.140625,15.29,,,2204283.0
1709208260.15625,11.52,,,2203111.0
1709208260.171875,7.25,,,2202189.0
1709208260.1875,2.73,,,2202175.0
1709208260.203125,-1.66,,,2202270.0
1709208260.21875,-5.5,,,2201868.0
1709208260.234375,-8.52,,,2200813.0
1709208260.25,-10.74,,,2200586.0
1709208260.265625,-12.49,,,2200970.0
1709208260.28125,-14.23,,,2201726.0
1709208260.296875,-16.35,,,2203042.0
1709208260.3125,-18.92,,,2204311.0
1709208260.328125,-21.7,,,2205520.0
1709208260.34375,-24.27,,,2206912.0
1709208260.359375,-26.26,,,2208597.0
1709208260.375,-27.53,,,2210409.0
1709208260.390625,-28.25,,,2212530.0
1709208260.40625,-28.77,,,2214517.0
1709208260.421875,-29.47,,,2216716.0
1709208260.4375,-30.58,,,2218975.0
1709208260.453125,-32.14,,,2221547.0
1709208260.46875,-34.0,,,2223627.0
1709208260.484375,-35.94,,,2226250.0
1709208260.5,-37.75,,,2228695.0
1709208260.515625,-39.34,,,2231248.0
1709208260.53125,-40.75,,,2231091.0
1709208260.546875,-42.14,,,2225847.0
1709208260.5625,-43.78,,,2219040.0
1709208260.578125,-46.05,,,2213943.0
1709208260.59375,-49.37,,,2212126.0
1709208260.609375,-54.08,,,2211298.0
1709208260.625,-60.2,,,2210474.0
1709208260.640625,-67.21,,,2210457.0
1709208260.65625,-73.9,,,2210402.0
1709208260.671875,-78.57,,,2209787.0
1709208260.6875,-79.41,,,2209046.0
1709208260.703125,-75.14,,,2208988.0
1709208260.71875,-65.44,,,2209592.0
1709208260.734375,-51.19,,,2210412.0
1709208260.75,-34.23,,,2211561.0
1709208260.765625,-16.77,,,2213146.0
1709208260.78125,-0.78,,,2214724.0
1709208260.796875,12.43,,,2216113.0
1709208260.8125,22.42,,,2217475.0
1709208260.828125,29.38,,,2219135.0
1709208260.84375,33.88,,,2220813.0
1709208260.859375,36.51,,,2222620.0
1709208260.875,37.75,,,2224389.0
1709208260.890625,37.93,,,2226397.0
1709208260.90625,37.33,,,2228701.0
1709208260.921875,36.2,,,2230661.0
1709208260.9375,34.78,,,2232952.0
1709208260.953125,33.28,,,2235220.0
1709208260.96875,31.81,,,2237695.0
1709208260.984375,30.39,,,2240207.0
1709208261.0,29.07,,,2242412.0
1709208261.015625,27.96,,,2244435.0
1709208261.03125,27.32,,,2241269.0
1709208261.046875,27.49,,,2234838.0
1709208261.0625,28.73,,,2227501.0
1709208261.078125,31.08,,,2222340.0
1709208261.09375,34.23,,,2220060.0
1709208261.109375,37.59,,,2218301.0
1709208261.125,40.43,,,2216723.0
1709208261.140625,42.14,,,2216149.0
1709208261.15625,42.39,,,2215281.0
1709208261.171875,41.17,,,2214106.0
1709208261.1875,38.79,,,2213131.0
1709208261.203125,35.69,,,2212434.0
1709208261.21875,32.32,,,2212691.0
1709208261.234375,28.98,,,2213135.0
1709208261.25,25.82,,,2214156.0
1709208261.265625,22.8,,,2215007.0
1709208261.28125,19.79,,,2216434.0
1709208261.296875,16.68,,,2217491.0
1709208261.3125,13.45,,,2218952.0
1709208261.328125,10.15,,,2219985.0
1709208261.34375,6.9,,,2221340.0
1709208261.359375,3.81,,,2223220.0
1709208261.375,0.94,,,2224838.0
1709208261.390625,-1.74,,,2226505.0
1709208261.40625,-4.29,,,2228370.0
1709208261.421875,-6.81,,,2230176.0
1709208261.4375,-9.4,,,2232192.0
1709208261.453125,-12.08,,,2234005.0
1709208261.46875,-14.82,,,2235874.0
1709208261.484375,-17.5,,,2237714.0
1709208261.5,-19.99,,,2239820.0
1709208261.515625,-22.22,,,2241838.0
1709208261.53125,-24.32,,,2238992.0
1709208261.546875,-26.6,,,2232441.0
1709208261.5625,-29.56,,,2224365.0
1709208261.578125,-33.65,,,2219323.0
1709208261.59375,-39.05,,,2216901.0
1709208261.609375,-45.43,,,2215110.0
1709208261.625,-51.9,,,2214163.0
1709208261.640625,-57.02,,,2213495.0
1709208261.65625,-59.21,,,2212275.0
1709208261.671875,-57.17,,,2210626.0
1709208261.6875,-50.31,,,2209354.0
1709208261.703125,-38.99,,,2209187.0
1709208261.71875,-24.47,,,2209725.0
1709208261.734375,-8.6,,,2210272.0
1709208261.75,6.73,,,2211838.0
1709208261.765625,19.98,,,2213157.0
1709208261.78125,30.26,,,2214908.0
1709208261.796875,37.28,,,2216476.0
1709208261.8125,41.32,,,2218289.0
1709208261.828125,42.87,,,2220178.0
1709208261.84375,42.58,,,2222365.0
1709208261.859375,41.04,,,2223990.0
1709208261.875,38.78,,,2225552.0
1709208261.890625,36.2,,,2226815.0
1709208261.90625,33.54,,,2227388.0
1709208261.921875,30.88,,,2228769.0
1709208261.9375,28.27,,,2231809.0
1709208261.953125,25.84,,,2241934.0
1709208261.96875,23.79,,,2251060.0
1709208261.984375,22.43,,,2254088.0
1709208262.0,22.01,,,2247937.0
1709208262.015625,22.6,,,2243991.0
1709208262.03125,24.04,,,2241416.0
1709208262.046875,25.95,,,2238956.0
1709208262.0625,27.86,,,2235783.0
1709208262.078125,29.35,,,2232924.0
1709208262.09375,30.13,,,2230489.0
1709208262.109375,30.09,,,2227971.0
1709208262.125,29.22,,,2224727.0
1709208262.140625,27.61,,,2221686.0
1709208262.15625,25.32,,,2221686.0
1709208262.171875,22.48,,,2219564.0
1709208262.1875,19.23,,,2218494.0
1709208262.203125,15.81,,,2217807.0
1709208262.21875,12.46,,,2217731.0
1709208262.234375,9.39,,,2218102.0
1709208262.25,6.64,,,2218591.0
1709208262.265625,4.08,,,2218856.0
1709208262.28125,1.48,,,2219604.0
1709208262.296875,-1.43,,,2220606.0
1709208262.3125,-4.75,,,2221504.0
1709208262.328125,-8.37,,,2222826.0
1709208262.34375,-11.97,,,2224465.0
1709208262.359375,-15.21,,,2225852.0
1709208262.375,-17.9,,,2227648.0
1709208262.390625,-20.05,,,2229540.0
1709208262.40625,-21.91,,,2231098.0
1709208262.421875,-23.81,,,2232836.0
1709208262.4375,-26.03,,,2234781.0
1709208262.453125,-28.71,,,2236884.0
1709208262.46875,-31.79,,,2236680.0
1709208262.484375,-35.1,,,2231491.0
1709208262.5,-38.39,,,2223196.0
1709208262.515625,-41.41,,,2216349.0
1709208262.53125,-43.99,,,2212431.0
1709208262.546875,-46.09,,,2209956.0
1709208262.5625,-47.87,,,2207258.0
1709208262.578125,-49.71,,,2205921.0
1709208262.59375,-52.13,,,2204978.0
1709208262.609375,-55.64,,,2203677.0
1709208262.625,-60.49,,,2201948.0
1709208262.640625,-66.39,,,2200056.0
1709208262.65625,-72.39,,,2198796.0
1709208262.671875,-76.93,,,2198016.0
1709208262.6875,-78.24,,,2197804.0
1709208262.703125,-74.87,,,2198262.0
1709208262.71875,-66.25,,,2199416.0
1709208262.734375,-52.89,,,2200208.0
1709208262.75,-36.38,,,2201043.0
1709208262.765625,-18.79,,,2201951.0
1709208262.78125,-2.18,,,2202896.0
1709208262.796875,12.02,,,2203614.0
1709208262.8125,23.16,,,2204490.0
1709208262.828125,31.23,,,2205460.0
1709208262.84375,36.61,,,2205832.0
1709208262.859375,39.78,,,2206477.0
1709208262.875,41.18,,,2206927.0
1709208262.890625,41.23,,,2207473.0
1709208262.90625,40.37,,,2208392.0
1709208262.921875,39.04,,,2209494.0
1709208262.9375,37.58,,,2211448.0
1709208262.953125,36.12,,,2213148.0
1709208262.96875,34.63,,,2210325.0
1709208262.984375,32.95,,,2202936.0
1709208263.0,31.04,,,2192463.0
1709208263.015625,29.03,,,2185566.0
1709208263.03125,27.22,,,2181850.0
1709208263.046875,25.99,,,2178573.0
1709208263.0625,25.57,,,2176513.0
1709208263.078125,26.03,,,2175276.0
1709208263.09375,27.2,,,2173450.0
1709208263.109375,28.84,,,2171232.0
1709208263.125,30.69,,,2169298.0
1709208263.140625,32.48,,,2168052.0
1709208263.15625,33.94,,,2167437.0
1709208263.171875,34.77,,,2167364.0
1709208263.1875,34.7,,,2167843.0
1709208263.203125,33.58,,,2168733.0
1709208263.21875,31.46,,,2169774.0
1709208263.234375,28.6,,,2170921.0
1709208263.25,25.34,,,2172397.0
1709208263.265625,22.01,,,2173755.0
1709208263.28125,18.8,,,2175442.0
1709208263.296875,15.75,,,2177215.0
1709208263.3125,12.81,,,2179149.0
1709208263.328125,9.91,,,2181149.0
1709208263.34375,7.03,,,2183449.0
1709208263.359375,4.18,,,2185804.0
1709208263.375,1.38,,,2188184.0
1709208263.390625,-1.32,,,2190369.0
1709208263.40625,-3.89,,,2192734.0
1709208263.421875,-6.27,,,2195250.0
1709208263.4375,-8.4,,,2197718.0
1709208263.453125,-10.23,,,2196436.0
1709208263.46875,-11.77,,,2191470.0
1709208263.484375,-13.12,,,2183734.0
1709208263.5,-14.47,,,2178465.0
1709208263.515625,-16.06,,,2175898.0
1709208263.53125,-18.06,,,2174271.0
1709208263.546875,-20.54,,,2172927.0
1709208263.5625,-23.39,,,2172627.0
1709208263.578125,-26.39,,,2172599.0
1709208263.59375,-29.31,,,2172530.0
1709208263.609375,-32.0,,,2172639.0
1709208263.625,-34.45,,,2174041.0
1709208263.640625,-36.8,,,2175168.0
1709208263.65625,-39.35,,,2177397.0
1709208263.671875,-42.45,,,2179445.0
1709208263.6875,-46.45,,,2181763.0
1709208263.703125,-51.48,,,2184103.0
1709208263.71875,-57.27,,,2186305.0
1709208263.734375,-62.94,,,2188112.0
1709208263.75,-67.11,,,2190089.0
1709208263.765625,-68.22,,,2192161.0
1709208263.78125,-65.08,,,2194223.0
1709208263.796875,-57.27,,,2196833.0
1709208263.8125,-45.43,,,2199419.0
1709208263.828125,-31.02,,,2201617.0
1709208263.84375,-15.85,,,2203689.0
1709208263.859375,-1.55,,,2205498.0
1709208263.875,10.76,,,2207152.0
1709208263.890625,20.52,,,2208698.0
1709208263.90625,27.62,,,2210283.0
1709208263.921875,32.19,,,2212295.0
1709208263.9375,34.52,,,2214941.0
1709208263.953125,34.97,,,2217395.0
1709208263.96875,34.08,,,2215032.0
1709208263.984375,32.44,,,2210253.0
1709208264.0,30.64,,,2205260.0
1709208264.015625,29.08,,,2202600.0
1709208264.03125,27.87,,,2201886.0
1709208264.046875,26.92,,,2201153.0
1709208264.0625,26.01,,,2200053.0
1709208264.078125,24.97,,,2199662.0
1709208264.09375,23.8,,,2198622.0
1709208264.109375,22.71,,,2196933.0
1709208264.125,21.96,,,2194697.0
1709208264.140625,21.82,,,2192963.0
1709208264.15625,22.39,,,2191280.0
1709208264.171875,23.61,,,2190511.0
1709208264.1875,25.22,,,2190187.0
1709208264.203125,26.89,,,2189982.0
1709208264.21875,28.26,,,2189951.0
1709208264.234375,29.11,,,2190101.0
1709208264.25,29.26,,,2190372.0
1709208264.265625,28.68,,,2191060.0
1709208264.28125,27.37,,,2191961.0
1709208264.296875,25.39,,,2193037.0
1709208264.3125,22.87,,,2194347.0
1709208264.328125,19.91,,,2195869.0
1709208264.34375,16.59,,,2197621.0
1709208264.359375,13.01,,,2199388.0
1709208264.375,9.25,,,2201117.0
1709208264.390625,5.42,,,2202859.0
1709208264.40625,1.66,,,2204932.0
1709208264.421875,-1.85,,,2206473.0
1709208264.4375,-5.01,,,2208601.0
1709208264.453125,-7.81,,,2210615.0
1709208264.46875,-10.4,,,2209136.0
1709208264.484375,-12.98,,,2204019.0
1709208264.5,-15.75,,,2195836.0
1709208264.515625,-18.81,,,2189836.0
1709208264.53125,-22.09,,,2187208.0
1709208264.546875,-25.4,,,2185817.0
1709208264.5625,-28.53,,,2184853.0
1709208264.578125,-31.31,,,2184727.0
1709208264.59375,-33.71,,,2183939.0
1709208264.609375,-35.83,,,2183163.0
1709208264.625,-37.86,,,2182350.0
1709208264.640625,-40.14,,,2182243.0
1709208264.65625,-43.03,,,2186803.0
1709208264.671875,-46.88,,,2192131.0
1709208264.6875,-51.86,,,2197297.0
1709208264.703125,-57.7,,,2199821.0
1709208264.71875,-63.54,,,2200813.0
1709208264.734375,-68.05,,,2201266.0
1709208264.75,-69.66,,,2200917.0
1709208264.765625,-67.12,,,2200319.0
1709208264.78125,-59.99,,,2200567.0
1709208264.796875,-48.83,,,2201536.0
1709208264.8125,-35.03,,,2203461.0
1709208264.828125,-20.41,,,2205461.0
1709208264.84375,-6.65,,,2207299.0
1709208264.859375,5.1,,,2209272.0
1709208264.875,14.3,,,2211266.0
1709208264.890625,20.87,,,2213149.0
1709208264.90625,25.04,,,2212570.0
1709208264.921875,27.11,,,2206753.0
1709208264.9375,27.51,,,2195765.0
1709208264.953125,26.73,,,2185490.0
1709208264.96875,25.33,,,2176059.0
1709208264.984375,23.86,,,2179670.0
1709208265.0,22.67,,,2173354.0
1709208265.015625,21.86,,,2171512.0
1709208265.03125,21.28,,,2169608.0
1709208265.046875,20.65,,,2166887.0
1709208265.0625,19.77,,,2164417.0
1709208265.078125,18.59,,,2162517.0
1709208265.09375,17.31,,,2162015.0
1709208265.109375,16.29,,,2162208.0
1709208265.125,15.94,,,2163213.0
1709208265.140625,16.52,,,2164630.0
1709208265.15625,18.04,,,2166097.0
1709208265.171875,20.25,,,2167679.0
1709208265.1875,22.69,,,2169284.0
1709208265.203125,24.76,,,2171343.0
1709208265.21875,25.92,,,2173160.0
1709208265.234375,25.84,,,2175095.0
1709208265.25,24.44,,,2177061.0
1709208265.265625,21.97,,,2179152.0
1709208265.28125,18.89,,,2181110.0
1709208265.296875,15.67,,,2183297.0
1709208265.3125,12.6,,,2185815.0
1709208265.328125,9.75,,,2188669.0
1709208265.34375,6.9,,,2191736.0
1709208265.359375,3.73,,,2194341.0
1709208265.375,0.01,,,2193074.0
1709208265.390625,-4.26,,,2187951.0
1709208265.40625,-8.88,,,2181371.0
1709208265.421875,-13.48,,,2177307.0
1709208265.4375,-17.73,,,2175676.0
1709208265.453125,-21.48,,,2174616.0
1709208265.46875,-24.75,,,2173343.0
1709208265.484375,-27.74,,,2172566.0
1709208265.5,-30.77,,,2171662.0
1709208265.515625,-34.16,,,2170225.0
1709208265.53125,-38.19,,,2170225.0
1709208265.546875,-43.02,,,2169208.0
1709208265.5625,-48.45,,,2168486.0
1709208265.578125,-53.89,,,2168850.0
1709208265.59375,-58.28,,,2169891.0
1709208265.609375,-60.32,,,2171145.0
1709208265.625,-58.82,,,2172611.0
1709208265.640625,-53.1,,,2174186.0
1709208265.65625,-43.38,,,2175716.0
1709208265.671875,-30.7,,,2177393.0
1709208265.6875,-16.72,,,2179054.0
1709208265.703125,-3.15,,,2180636.0
1709208265.71875,8.64,,,2182751.0
1709208265.734375,17.91,,,2184736.0
1709208265.75,24.52,,,2186892.0
1709208265.765625,28.73,,,2188737.0
1709208265.78125,30.89,,,2191157.0
1709208265.796875,31.37,,,2193041.0
1709208265.8125,30.47,,,2194615.0
1709208265.828125,28.54,,,2196757.0
1709208265.84375,26.01,,,2198834.0
1709208265.859375,23.28,,,2200741.0
1709208265.875,20.7,,,2199169.0
1709208265.890625,18.41,,,2192657.0
1709208265.90625,16.42,,,2181855.0
1709208265.921875,14.68,,,2173292.0
1709208265.9375,13.26,,,2168513.0
1709208265.953125,12.36,,,2165073.0
1709208265.96875,12.24,,,2161535.0
1709208265.984375,13.12,,,2159418.0
1709208266.0,14.94,,,2157801.0
1709208266.015625,17.38,,,2154924.0
1709208266.03125,19.92,,,2152752.0
1709208266.046875,22.05,,,2150718.0
1709208266.0625,23.42,,,2149717.0
1709208266.078125,23.92,,,2149796.0
1709208266.09375,23.66,,,2150270.0
1709208266.109375,22.75,,,2151203.0
1709208266.125,21.26,,,2152486.0
1709208266.140625,19.13,,,2153860.0
1709208266.15625,16.23,,,2155407.0
1709208266.171875,12.55,,,2157388.0
1709208266.1875,8.22,,,2159939.0
1709208266.203125,3.58,,,2163497.0
1709208266.21875,-0.91,,,2168089.0
1709208266.234375,-4.84,,,2172005.0
1709208266.25,-8.01,,,2174847.0
1709208266.265625,-10.53,,,2177253.0
1709208266.28125,-12.82,,,2179438.0
1709208266.296875,-15.47,,,2181714.0
1709208266.3125,-19.03,,,2184043.0
1709208266.328125,-23.78,,,2186284.0
1709208266.34375,-29.44,,,2185775.0
1709208266.359375,-35.13,,,2181112.0
1709208266.375,-39.37,,,2175688.0
1709208266.390625,-40.46,,,2172006.0
1709208266.40625,-36.97,,,2170972.0
1709208266.421875,-28.24,,,2170510.0
1709208266.4375,-14.66,,,2170774.0
1709208266.453125,2.33,,,2171254.0
1709208266.46875,20.62,,,2171239.0
1709208266.484375,37.97,,,2170704.0
1709208266.5,52.52,,,2170487.0
1709208266.515625,63.05,,,2171116.0
1709208266.53125,69.14,,,2172440.0
1709208266.546875,71.04,,,2174376.0
1709208266.5625,69.49,,,2176108.0
1709208266.578125,65.52,,,2178208.0
1709208266.59375,60.19,,,2180206.0
1709208266.609375,54.44,,,2181862.0
1709208266.625,48.91,,,2183697.0
1709208266.640625,43.96,,,2185417.0
1709208266.65625,39.75,,,2187321.0
1709208266.671875,36.37,,,2189045.0
1709208266.6875,33.88,,,2191184.0
1709208266.703125,32.33,,,2193195.0
1709208266.71875,31.62,,,2195439.0
1709208266.734375,31.55,,,2197475.0
1709208266.75,31.77,,,2199391.0
1709208266.765625,31.96,,,2201147.0
1709208266.78125,31.86,,,2202737.0
1709208266.796875,31.26,,,2204729.0
1709208266.8125,29.92,,,2205816.0
1709208266.828125,27.49,,,2201976.0
1709208266.84375,23.62,,,2193845.0
1709208266.859375,18.12,,,2184009.0
1709208266.875,11.09,,,2178400.0
1709208266.890625,2.97,,,2175159.0
1709208266.90625,-5.61,,,2172421.0
1709208266.921875,-14.09,,,2170527.0
1709208266.9375,-22.17,,,2168458.0
1709208266.953125,-29.83,,,2169509.0
1709208266.96875,-37.27,,,2167169.0
1709208266.984375,-44.68,,,2166324.0
1709208267.0,-52.14,,,2166789.0
1709208267.015625,-59.5,,,2167333.0
1709208267.03125,-66.45,,,2168670.0
1709208267.046875,-72.65,,,2170085.0
1709208267.0625,-77.79,,,2171321.0
1709208267.078125,-81.71,,,2172675.0
1709208267.09375,-84.47,,,2173967.0
1709208267.109375,-86.35,,,2174966.0
1709208267.125,-87.87,,,2177329.0
1709208267.140625,-89.64,,,2182030.0
1709208267.15625,-92.25,,,2192131.0
1709208267.171875,-95.89,,,2201308.0
1709208267.1875,-100.2,,,2206574.0
1709208267.203125,-104.11,,,2210292.0
1709208267.21875,-105.99,,,2211492.0
1709208267.234375,-104.16,,,2210811.0
1709208267.25,-97.38,,,2209914.0
1709208267.265625,-85.42,,,2209880.0
1709208267.28125,-69.2,,,2209954.0
1709208267.296875,-50.54,,,2210896.0
1709208267.3125,-31.67,,,2210449.0
1709208267.328125,-14.54,,,2205356.0
1709208267.34375,-0.38,,,2193445.0
1709208267.359375,10.42,,,2179351.0
1709208267.375,18.16,,,2169930.0
1709208267.390625,23.49,,,2163118.0
1709208267.40625,27.06,,,2156227.0
1709208267.421875,29.32,,,2150466.0
1709208267.4375,30.53,,,2145446.0
1709208267.453125,30.84,,,2140178.0
1709208267.46875,30.44,,,2134285.0
1709208267.484375,29.62,,,2128982.0
1709208267.5,28.69,,,2125309.0
1709208267.515625,27.93,,,2122552.0
1709208267.53125,27.44,,,2121162.0
1709208267.546875,27.25,,,2120413.0
1709208267.5625,27.29,,,2120128.0
1709208267.578125,27.58,,,2120082.0
1709208267.59375,28.19,,,2120258.0
1709208267.609375,29.25,,,2120815.0
1709208267.625,30.84,,,2121389.0
1709208267.640625,32.86,,,2122357.0
1709208267.65625,35.05,,,2123454.0
1709208267.671875,37.05,,,2124998.0
1709208267.6875,38.52,,,2126696.0
1709208267.703125,39.17,,,2128663.0
1709208267.71875,38.89,,,2130795.0
1709208267.734375,37.65,,,2133090.0
1709208267.75,35.5,,,2135183.0
1709208267.765625,32.52,,,2137723.0
1709208267.78125,28.91,,,2140245.0
1709208267.796875,24.89,,,2142759.0
1709208267.8125,20.76,,,2144975.0
1709208267.828125,16.81,,,2143979.0
1709208267.84375,13.23,,,2136975.0
1709208267.859375,10.1,,,2125394.0
1709208267.875,7.35,,,2117250.0
1709208267.890625,4.85,,,2115923.0
1709208267.90625,2.45,,,2117580.0
1709208267.921875,0.08,,,2118402.0
1709208267.9375,-2.24,,,2119101.0
1709208267.953125,-4.4,,,2119652.0
1709208267.96875,-6.31,,,2120552.0
1709208267.984375,-7.98,,,2121224.0
1709208268.0,-9.56,,,2121568.0
1709208268.015625,-11.32,,,2122530.0
1709208268.03125,-13.55,,,2123764.0
1709208268.046875,-16.46,,,2125500.0
1709208268.0625,-20.05,,,2127394.0
1709208268.078125,-24.04,,,2129334.0
1709208268.09375,-28.01,,,2131136.0
1709208268.109375,-31.54,,,2132931.0
1709208268.125,-34.38,,,2134910.0
1709208268.140625,-36.65,,,2136825.0
1709208268.15625,-38.76,,,2138663.0
1709208268.171875,-41.31,,,2140024.0
1709208268.1875,-44.88,,,2141925.0
1709208268.203125,-49.76,,,2143548.0
1709208268.21875,-55.77,,,2145112.0
1709208268.234375,-62.16,,,2146755.0
1709208268.25,-67.72,,,2148262.0
1709208268.265625,-70.98,,,2150265.0
1709208268.28125,-70.59,,,2152081.0
1709208268.296875,-65.74,,,2153364.0
1709208268.3125,-56.35,,,2149987.0
1709208268.328125,-43.22,,,2138635.0
1709208268.34375,-27.73,,,2124411.0
1709208268.359375,-11.54,,,2115305.0
1709208268.375,3.85,,,2109822.0
1709208268.390625,17.32,,,2104884.0
1709208268.40625,28.19,,,2100272.0
1709208268.421875,36.22,,,2100272.0
1709208268.4375,41.46,,,2096786.0
1709208268.453125,44.23,,,2092521.0
1709208268.46875,45.05,,,2086860.0
1709208268.484375,44.53,,,2082085.0
1709208268.5,43.34,,,2078707.0
1709208268.515625,42.05,,,2076929.0
1709208268.53125,41.07,,,2075934.0
1709208268.546875,40.67,,,2075929.0
1709208268.5625,41.0,,,2076398.0
1709208268.578125,42.11,,,2077209.0
1709208268.59375,43.94,,,2078022.0
1709208268.609375,46.32,,,2079228.0
1709208268.625,48.96,,,2080390.0
1709208268.640625,51.65,,,2081776.0
1709208268.65625,54.47,,,2083491.0
1709208268.671875,57.81,,,2085589.0
1709208268.6875,62.31,,,2087686.0
1709208268.703125,68.39,,,2089770.0
1709208268.71875,75.85,,,2092158.0
1709208268.734375,83.66,,,2094679.0
1709208268.75,90.21,,,2096889.0
1709208268.765625,93.87,,,2099307.0
1709208268.78125,93.63,,,2101759.0
1709208268.796875,89.52,,,2104424.0
1709208268.8125,82.51,,,2105671.0
1709208268.828125,73.98,,,2100856.0
1709208268.84375,65.25,,,2088099.0
1709208268.859375,57.06,,,2077201.0
1709208268.875,49.54,,,2072493.0
1709208268.890625,42.41,,,2071122.0
1709208268.90625,35.29,,,2071207.0
1709208268.921875,27.93,,,2074725.0
1709208268.9375,20.31,,,2080367.0
1709208268.953125,12.59,,,2084626.0
1709208268.96875,5.03,,,2087542.0
1709208268.984375,-2.06,,,2090149.0
1709208269.0,-8.25,,,2093414.0
1709208269.015625,-12.89,,,2096501.0
1709208269.03125,-15.19,,,2099670.0
1709208269.046875,-14.44,,,2102483.0
1709208269.0625,-10.5,,,2105165.0
1709208269.078125,-4.19,,,2107911.0
1709208269.09375,2.57,,,2110547.0
1709208269.109375,7.3,,,2113073.0
1709208269.125,7.77,,,2115084.0
1709208269.140625,2.87,,,2117148.0
1709208269.15625,-7.0,,,2119449.0
1709208269.171875,-20.3,,,2121550.0
1709208269.1875,-35.17,,,2123606.0
1709208269.203125,-50.3,,,2125633.0
1709208269.21875,-65.18,,,2127496.0
1709208269.234375,-79.79,,,2129484.0
1709208269.25,-93.82,,,2131322.0
1709208269.265625,-106.19,,,2133424.0
1709208269.28125,-115.07,,,2135457.0
1709208269.296875,-118.52,,,2137623.0
1709208269.3125,-115.43,,,2139786.0
1709208269.328125,-106.07,,,2143064.0
1709208269.34375,-92.03,,,2142614.0
1709208269.359375,-75.64,,,2137835.0
1709208269.375,-59.22,,,2129423.0
1709208269.390625,-44.34,,,2124001.0
1709208269.40625,-31.65,,,2122512.0
1709208269.421875,-21.06,,,2122912.0
1709208269.4375,-12.26,,,2124251.0
1709208269.453125,-5.04,,,2126215.0
1709208269.46875,0.53,,,2127936.0
1709208269.484375,4.27,,,2128787.0
1709208269.5,6.07,,,2129229.0
1709208269.515625,6.17,,,2129883.0
1709208269.53125,5.21,,,2131017.0
1709208269.546875,3.99,,,2132098.0
1709208269.5625,3.27,,,2133437.0
1709208269.578125,3.48,,,2134517.0
1709208269.59375,4.69,,,2135327.0
1709208269.609375,6.62,,,2136258.0
1709208269.625,8.94,,,2137060.0
1709208269.640625,11.39,,,2137781.0
1709208269.65625,13.96,,,2139020.0
1709208269.671875,16.82,,,2140007.0
1709208269.6875,20.12,,,2141257.0
1709208269.703125,23.81,,,2142714.0
1709208269.71875,27.54,,,2143706.0
1709208269.734375,30.76,,,2145397.0
1709208269.75,32.92,,,2147083.0
1709208269.765625,33.72,,,2148845.0
1709208269.78125,33.24,,,2150771.0
1709208269.796875,31.83,,,2151985.0
1709208269.8125,29.96,,,2148485.0
1709208269.828125,27.99,,,2138653.0
1709208269.84375,26.03,,,2128930.0
1709208269.859375,24.03,,,2124067.0
1709208269.875,21.89,,,2121953.0
1709208269.890625,19.57,,,2120661.0
1709208269.90625,17.15,,,2120311.0
1709208269.921875,14.71,,,2119759.0
1709208269.9375,12.33,,,2118081.0
1709208269.953125,10.0,,,2116222.0
1709208269.96875,7.7,,,2114722.0
1709208269.984375,5.42,,,2114735.0
1709208270.0,3.22,,,2115716.0
1709208270.015625,1.21,,,2117216.0
1709208270.03125,-0.53,,,2118981.0
1709208270.046875,-1.97,,,2123189.0
1709208270.0625,-3.17,,,2125243.0
1709208270.078125,-4.28,,,2121078.0
1709208270.09375,-5.44,,,2127385.0
1709208270.109375,-6.83,,,2129253.0
1709208270.125,-8.6,,,2131191.0
1709208270.140625,-10.84,,,2132970.0
1709208270.15625,-13.57,,,2134963.0
1709208270.171875,-16.67,,,2138323.0
1709208270.1875,-19.96,,,2136667.0
1709208270.203125,-23.17,,,2139592.0
1709208270.21875,-26.03,,,2140836.0
1709208270.234375,-28.43,,,2142140.0
1709208270.25,-30.5,,,2143145.0
1709208270.265625,-32.58,,,2142119.0
1709208270.28125,-35.2,,,2132083.0
1709208270.296875,-38.87,,,2111844.0
1709208270.3125,-43.85,,,2094889.0
1709208270.328125,-49.9,,,2083203.0
1709208270.34375,-56.19,,,2073701.0
1709208270.359375,-61.36,,,2063915.0
1709208270.375,-63.83,,,2057199.0
1709208270.390625,-62.28,,,2052368.0
1709208270.40625,-56.14,,,2048222.0
1709208270.421875,-45.78,,,2044626.0
1709208270.4375,-32.51,,,2043312.0
1709208270.453125,-18.12,,,2044255.0
1709208270.46875,-4.36,,,2046129.0
1709208270.484375,7.54,,,2048771.0
1709208270.5,17.06,,,2051624.0
1709208270.515625,24.23,,,2054507.0
1709208270.53125,29.39,,,2057409.0
1709208270.546875,32.8,,,2060333.0
1709208270.5625,34.62,,,2064231.0
1709208270.578125,34.96,,,2068232.0
1709208270.59375,34.05,,,2073238.0
1709208270.609375,32.39,,,2079270.0
1709208270.625,30.64,,,2084145.0
1709208270.640625,29.39,,,2096637.0
1709208270.65625,28.95,,,2099475.0
1709208270.671875,29.21,,,2102561.0
1709208270.6875,29.75,,,2092807.0
1709208270.703125,30.13,,,2088620.0
1709208270.71875,30.14,,,2105086.0
1709208270.734375,29.98,,,2107813.0
1709208270.75,30.16,,,2110761.0
1709208270.765625,31.31,,,2114328.0
1709208270.78125,33.87,,,2117169.0
1709208270.796875,37.83,,,2115274.0
1709208270.8125,42.78,,,2110492.0
1709208270.828125,48.01,,,2110492.0
1709208270.84375,52.77,,,2104081.0
1709208270.859375,56.54,,,2099829.0
1709208270.875,59.12,,,2096947.0
1709208270.890625,60.59,,,2093203.0
1709208270.90625,61.24,,,2089603.0
1709208270.921875,61.48,,,2086889.0
1709208270.9375,61.93,,,2083317.0
1709208270.953125,63.32,,,2079286.0
1709208270.96875,66.3,,,2075336.0
1709208270.984375,70.92,,,2072149.0
1709208271.0,76.27,,,2069985.0
1709208271.015625,80.43,,,2069304.0
1709208271.03125,80.95,,,2069116.0
1709208271.046875,75.83,,,2069017.0
1709208271.0625,64.45,,,2069353.0
1709208271.078125,47.98,,,2070466.0
1709208271.09375,28.96,,,2071383.0
1709208271.109375,10.27,,,2069761.0
1709208271.125,-5.95,,,2072714.0
1709208271.140625,-18.91,,,2074470.0
1709208271.15625,-28.96,,,2076772.0
1709208271.171875,-37.01,,,2079260.0
1709208271.1875,-43.72,,,2082079.0
1709208271.203125,-49.26,,,2085030.0
1709208271.21875,-53.44,,,2087973.0
1709208271.234375,-56.18,,,2090796.0
1709208271.25,-57.81,,,2093838.0
1709208271.265625,-59.05,,,2096653.0
1709208271.28125,-60.77,,,2099598.0
1709208271.296875,-63.44,,,2102383.0
1709208271.3125,-66.98,,,2104715.0
1709208271.328125,-70.73,,,2103236.0
1709208271.34375,-73.82,,,2095969.0
1709208271.359375,-75.57,,,2086414.0
1709208271.375,-75.85,,,2081772.0
1709208271.390625,-75.07,,,2079210.0
1709208271.40625,-74.01,,,2076844.0
1709208271.421875,-73.52,,,2075451.0
1709208271.4375,-74.22,,,2070366.0
1709208271.453125,-76.36,,,2060240.0
1709208271.46875,-79.78,,,2057218.0
1709208271.484375,-83.86,,,2060068.0
1709208271.5,-87.61,,,2070465.0
1709208271.515625,-89.72,,,2080110.0
1709208271.53125,-88.79,,,2085785.0
1709208271.546875,-83.74,,,2088271.0
1709208271.5625,-74.16,,,2065393.0
1709208271.578125,-60.54,,,2073803.0
1709208271.59375,-44.21,,,2090125.0
1709208271.609375,-26.96,,,2092101.0
1709208271.625,-10.49,,,2093537.0
1709208271.640625,3.88,,,2095578.0
1709208271.65625,15.5,,,2099734.0
1709208271.671875,24.16,,,2097612.0
1709208271.6875,30.03,,,2104028.0
1709208271.703125,33.4,,,2101929.0
1709208271.71875,34.71,,,2108084.0
1709208271.734375,34.44,,,2110068.0
1709208271.75,33.16,,,2106106.0
1709208271.765625,31.41,,,2112364.0
1709208271.78125,29.6,,,2116732.0
1709208271.796875,27.96,,,2114616.0
1709208271.8125,26.53,,,2116632.0
1709208271.828125,25.27,,,2110402.0
1709208271.84375,24.09,,,2096948.0
1709208271.859375,22.99,,,2087452.0
1709208271.875,22.05,,,2082480.0
1709208271.890625,21.46,,,2078521.0
1709208271.90625,21.44,,,2073982.0
1709208271.921875,22.18,,,2071162.0
1709208271.9375,23.75,,,2068713.0
1709208271.953125,26.02,,,2065364.0
1709208271.96875,28.62,,,2061648.0
1709208271.984375,31.11,,,2059148.0
1709208272.0,32.98,,,2058348.0
1709208272.015625,33.96,,,2058356.0
1709208272.03125,34.0,,,2059298.0
1709208272.046875,33.27,,,2060428.0
1709208272.0625,32.0,,,2061933.0
1709208272.078125,30.41,,,2063753.0
1709208272.09375,28.59,,,2067972.0
1709208272.109375,26.6,,,2065692.0
1709208272.125,24.48,,,2070329.0
1709208272.140625,22.26,,,2073273.0
1709208272.15625,19.94,,,2076235.0
1709208272.171875,17.47,,,2079243.0
1709208272.1875,14.78,,,2081963.0
1709208272.203125,11.86,,,2087080.0
1709208272.21875,8.83,,,2084797.0
1709208272.234375,5.92,,,2089149.0
1709208272.25,3.41,,,2091263.0
1709208272.265625,1.41,,,2093653.0
1709208272.28125,-0.16,,,2095985.0
1709208272.296875,-1.55,,,2098195.0
1709208272.3125,-3.03,,,2100412.0
1709208272.328125,-4.69,,,2101110.0
1709208272.34375,-6.44,,,2095550.0
1709208272.359375,-8.04,,,2082433.0
1709208272.375,-9.34,,,2073254.0
1709208272.390625,-10.36,,,2068417.0
1709208272.40625,-11.39,,,2064595.0
1709208272.421875,-12.74,,,2060198.0
1709208272.4375,-14.7,,,2056659.0
1709208272.453125,-17.31,,,2053460.0
1709208272.46875,-20.42,,,2049729.0
1709208272.484375,-23.67,,,2045326.0
1709208272.5,-26.73,,,2041802.0
1709208272.515625,-29.37,,,2039233.0
1709208272.53125,-31.55,,,2037982.0
1709208272.546875,-33.44,,,2037035.0
1709208272.5625,-35.41,,,2036221.0
1709208272.578125,-37.88,,,2035212.0
1709208272.59375,-41.28,,,2034790.0
1709208272.609375,-45.83,,,2034657.0
1709208272.625,-51.36,,,2035057.0
1709208272.640625,-57.15,,,2036008.0
1709208272.65625,-62.01,,,2037081.0
1709208272.671875,-64.47,,,2038839.0
1709208272.6875,-63.3,,,2040858.0
1709208272.703125,-57.82,,,2043219.0
1709208272.71875,-48.23,,,2045715.0
1709208272.734375,-35.46,,,2048203.0
1709208272.75,-20.92,,,2050780.0
1709208272.765625,-6.07,,,2053602.0
1709208272.78125,7.87,,,2056309.0
1709208272.796875,20.06,,,2059275.0
1709208272.8125,30.03,,,2062229.0
1709208272.828125,37.56,,,2065572.0
1709208272.84375,42.66,,,2068598.0
1709208272.859375,45.49,,,2068570.0
1709208272.875,46.34,,,2060040.0
1709208272.890625,45.58,,,2048613.0
1709208272.90625,43.61,,,2042198.0
1709208272.921875,40.81,,,2039335.0
1709208272.9375,37.57,,,2036986.0
1709208272.953125,34.33,,,2034270.0
1709208272.96875,31.48,,,2032263.0
1709208272.984375,29.34,,,2030122.0
1709208273.0,28.03,,,2027431.0
1709208273.015625,27.48,,,2024674.0
1709208273.03125,27.49,,,2023672.0
1709208273.046875,27.84,,,2023859.0
1709208273.0625,28.44,,,2025354.0
1709208273.078125,29.26,,,2027805.0
1709208273.09375,30.25,,,2031171.0
1709208273.109375,31.26,,,2035553.0
1709208273.125,31.99,,,2040354.0
1709208273.140625,32.13,,,2044086.0
1709208273.15625,31.41,,,2047611.0
1709208273.171875,29.8,,,2050419.0
1709208273.1875,27.38,,,2052391.0
1709208273.203125,24.38,,,2054134.0
1709208273.21875,20.96,,,2056949.0
1709208273.234375,17.21,,,2059484.0
1709208273.25,13.2,,,2061611.0
1709208273.265625,9.05,,,2063834.0
1709208273.28125,5.0,,,2066307.0
1709208273.296875,1.35,,,2068797.0
1709208273.3125,-1.63,,,2071799.0
1709208273.328125,-3.89,,,2074518.0
1709208273.34375,-5.6,,,2076883.0
1709208273.359375,-7.15,,,2074750.0
1709208273.375,-8.88,,,2062667.0
1709208273.390625,-11.03,,,2050484.0
1709208273.40625,-13.51,,,2044398.0
1709208273.421875,-16.05,,,2041506.0
1709208273.4375,-18.29,,,2038811.0
1709208273.453125,-20.02,,,2037132.0
1709208273.46875,-21.31,,,2036116.0
1709208273.484375,-22.45,,,2033841.0
1709208273.5,-23.82,,,2030677.0
1709208273.515625,-25.71,,,2027861.0
1709208273.53125,-28.15,,,2025834.0
1709208273.546875,-30.93,,,2024794.0
1709208273.5625,-33.73,,,2024725.0
1709208273.578125,-36.28,,,2025249.0
1709208273.59375,-38.44,,,2026080.0
1709208273.609375,-40.29,,,2026898.0
1709208273.625,-42.04,,,2027689.0
1709208273.640625,-43.98,,,2028352.0
1709208273.65625,-46.44,,,2028929.0
1709208273.671875,-49.76,,,2030030.0
1709208273.6875,-54.18,,,2031638.0
1709208273.703125,-59.59,,,2033294.0
1709208273.71875,-65.35,,,2035646.0
1709208273.734375,-70.23,,,2035646.0
1709208273.75,-72.59,,,2037954.0
1709208273.765625,-70.92,,,2040734.0
1709208273.78125,-64.37,,,2043420.0
1709208273.796875,-53.17,,,2046276.0
1709208273.8125,-38.6,,,2050247.0
1709208273.828125,-22.63,,,2054343.0
1709208273.84375,-7.24,,,2055684.0
1709208273.859375,6.08,,,2050842.0
1709208273.875,16.56,,,2040493.0
1709208273.890625,24.09,,,2034918.0
1709208273.90625,29.0,,,2033435.0
1709208273.921875,31.74,,,2033449.0
1709208273.9375,32.78,,,2034403.0
1709208273.953125,32.5,,,2036359.0
1709208273.96875,31.29,,,2039474.0
1709208273.984375,29.52,,,2042922.0
1709208274.0,27.57,,,2045606.0
1709208274.015625,25.71,,,2049951.0
1709208274.03125,24.1,,,2054063.0
1709208274.046875,22.73,,,2055489.0
1709208274.0625,21.56,,,2056760.0
1709208274.078125,20.56,,,2058004.0
1709208274.09375,19.83,,,2058026.0
1709208274.109375,19.6,,,2058606.0
1709208274.125,20.14,,,2059584.0
1709208274.140625,21.64,,,2061018.0
1709208274.15625,24.08,,,2062510.0
1709208274.171875,27.16,,,2064430.0
1709208274.1875,30.39,,,2066223.0
1709208274.203125,33.2,,,2068211.0
1709208274.21875,35.15,,,2070364.0
1709208274.234375,35.99,,,2072228.0
1709208274.25,35.78,,,2074114.0
1709208274.265625,34.72,,,2076418.0
1709208274.28125,33.12,,,2078407.0
1709208274.296875,31.19,,,2080722.0
1709208274.3125,29.02,,,2082961.0
1709208274.328125,26.59,,,2085509.0
1709208274.34375,23.85,,,2086419.0
1709208274.359375,20.8,,,2079857.0
1709208274.375,17.6,,,2066410.0
1709208274.390625,14.47,,,2056771.0
1709208274.40625,11.62,,,2051496.0
1709208274.421875,9.15,,,2047115.0
1709208274.4375,6.98,,,2041946.0
1709208274.453125,4.92,,,2037766.0
1709208274.46875,2.75,,,2033969.0
1709208274.484375,0.38,,,2029045.0
1709208274.5,-2.16,,,2023582.0
1709208274.515625,-4.69,,,2019473.0
1709208274.53125,-7.01,,,2017209.0
1709208274.546875,-9.02,,,2015792.0
1709208274.5625,-10.74,,,2015468.0
1709208274.578125,-12.35,,,2016057.0
1709208274.59375,-14.11,,,2017147.0
1709208274.609375,-16.23,,,2018626.0
1709208274.625,-18.82,,,2020356.0
1709208274.640625,-21.83,,,2022839.0
1709208274.65625,-25.13,,,2025921.0
1709208274.671875,-28.56,,,2029178.0
1709208274.6875,-32.0,,,2033137.0
1709208274.703125,-35.41,,,2037084.0
1709208274.71875,-38.8,,,2041328.0
1709208274.734375,-42.2,,,2045998.0
1709208274.75,-45.7,,,2050369.0
1709208274.765625,-49.47,,,2054361.0
1709208274.78125,-53.78,,,2058238.0
1709208274.796875,-58.85,,,2061205.0
1709208274.8125,-64.63,,,2064131.0
1709208274.828125,-70.51,,,2067214.0
1709208274.84375,-75.32,,,2069800.0
1709208274.859375,-77.52,,,2070850.0
1709208274.875,-75.71,,,2066311.0
1709208274.890625,-69.14,,,2055845.0
1709208274.90625,-58.07,,,2049686.0
1709208274.921875,-43.67,,,2047527.0
1709208274.9375,-27.67,,,2045838.0
1709208274.953125,-11.81,,,2044499.0
1709208274.96875,2.56,,,2044175.0
1709208274.984375,14.62,,,2043051.0
1709208275.0,23.97,,,2040883.0
1709208275.015625,30.48,,,2038358.0
1709208275.03125,34.2,,,2037082.0
1709208275.046875,35.4,,,2036610.0
1709208275.0625,34.59,,,2037222.0
1709208275.078125,32.54,,,2038162.0
1709208275.09375,30.03,,,2039757.0
1709208275.109375,27.7,,,2041289.0
1709208275.125,25.81,,,2042950.0
1709208275.140625,24.34,,,2044983.0
1709208275.15625,23.05,,,2047237.0
1709208275.171875,21.78,,,2049600.0
1709208275.1875,20.54,,,2052107.0
1709208275.203125,19.56,,,2055156.0
1709208275.21875,19.15,,,2058275.0
1709208275.234375,19.6,,,2061387.0
1709208275.25,20.98,,,2064601.0
1709208275.265625,23.22,,,2067988.0
1709208275.28125,26.05,,,2071483.0
1709208275.296875,29.1,,,2074682.0
1709208275.3125,31.96,,,2078015.0
1709208275.328125,34.23,,,2081333.0
1709208275.34375,35.61,,,2084941.0
1709208275.359375,35.99,,,2088293.0
1709208275.375,35.47,,,2090698.0
1709208275.390625,34.3,,,2088042.0
1709208275.40625,32.77,,,2078300.0
1709208275.421875,31.05,,,2070594.0
1709208275.4375,29.17,,,2067253.0
1709208275.453125,26.98,,,2065480.0
1709208275.46875,24.35,,,2063166.0
1709208275.484375,21.31,,,2062170.0
1709208275.5,18.1,,,2061538.0
1709208275.515625,15.06,,,2059886.0
1709208275.53125,12.44,,,2057572.0
1709208275.546875,10.27,,,2055745.0
1709208275.5625,8.31,,,2054532.0
1709208275.578125,6.23,,,2054017.0
1709208275.59375,3.78,,,2053745.0
1709208275.609375,0.98,,,2053350.0
1709208275.625,-1.98,,,2053200.0
1709208275.640625,-4.78,,,2053579.0
1709208275.65625,-7.24,,,2054287.0
1709208275.671875,-9.35,,,2055088.0
1709208275.6875,-11.26,,,2055806.0
1709208275.703125,-13.18,,,2057209.0
1709208275.71875,-15.35,,,2058924.0
1709208275.734375,-17.87,,,2060793.0
1709208275.75,-20.8,,,2062666.0
1709208275.765625,-24.08,,,2064617.0
1709208275.78125,-27.59,,,2066309.0
1709208275.796875,-31.12,,,2068139.0
1709208275.8125,-34.52,,,2070179.0
1709208275.828125,-37.66,,,2072437.0
1709208275.84375,-40.62,,,2074415.0
1709208275.859375,-43.7,,,2076386.0
1709208275.875,-47.33,,,2078473.0
1709208275.890625,-51.97,,,2080832.0
1709208275.90625,-57.84,,,2083131.0
1709208275.921875,-64.71,,,2084904.0
1709208275.9375,-71.77,,,2082364.0
1709208275.953125,-77.69,,,2069582.0
1709208275.96875,-80.9,,,2056862.0
1709208275.984375,-79.96,,,2049381.0
1709208276.0,-74.06,,,2044704.0
1709208276.015625,-63.28,,,2040617.0
1709208276.03125,-48.61,,,2036782.0
1709208276.046875,-31.73,,,2034515.0
1709208276.0625,-14.55,,,2032066.0
1709208276.078125,1.2,,,2029032.0
1709208276.09375,14.25,,,2026011.0
1709208276.109375,23.98,,,2024459.0
1709208276.125,30.29,,,2024077.0
1709208276.140625,33.59,,,2024846.0
1709208276.15625,34.49,,,2026099.0
1709208276.171875,33.73,,,2028570.0
1709208276.1875,31.96,,,2030803.0
1709208276.203125,29.68,,,2033090.0
1709208276.21875,27.26,,,2035259.0
1709208276.234375,24.94,,,2038017.0
1709208276.25,22.94,,,2040445.0
1709208276.265625,21.41,,,2043237.0
1709208276.28125,20.45,,,2046417.0
1709208276.296875,20.11,,,2048845.0
1709208276.3125,20.35,,,2051232.0
1709208276.328125,21.15,,,2053336.0
1709208276.34375,22.52,,,2055414.0
1709208276.359375,24.56,,,2056250.0
1709208276.375,27.31,,,2056578.0
1709208276.390625,30.68,,,2058510.0
1709208276.40625,34.28,,,2063987.0
1709208276.421875,37.53,,,2078599.0
1709208276.4375,39.78,,,2091913.0
1709208276.453125,40.56,,,2095667.0
1709208276.46875,39.73,,,2093626.0
1709208276.484375,37.58,,,2091912.0
1709208276.5,34.63,,,2091473.0
1709208276.515625,31.47,,,2091274.0
1709208276.53125,28.54,,,2090348.0
1709208276.546875,25.94,,,2089860.0
1709208276.5625,23.54,,,2089076.0
1709208276.578125,21.01,,,2087119.0
1709208276.59375,18.07,,,2083986.0
1709208276.609375,14.64,,,2081050.0
1709208276.625,10.91,,,2079556.0
1709208276.640625,7.24,,,2078844.0
1709208276.65625,4.02,,,2078767.0
1709208276.671875,1.48,,,2078859.0
1709208276.6875,-0.39,,,2079435.0
1709208276.703125,-1.8,,,2079874.0
1709208276.71875,-3.1,,,2080609.0
1709208276.734375,-4.6,,,2081518.0
1709208276.75,-6.48,,,2082243.0
1709208276.765625,-8.78,,,2083968.0
1709208276.78125,-11.37,,,2086037.0
1709208276.796875,-14.08,,,2087977.0
1709208276.8125,-16.68,,,2090634.0
1709208276.828125,-19.06,,,2093435.0
1709208276.84375,-21.21,,,2096590.0
1709208276.859375,-23.32,,,2099521.0
1709208276.875,-25.78,,,2102669.0
1709208276.890625,-29.07,,,2106179.0
1709208276.90625,-33.6,,,2109541.0
1709208276.921875,-39.45,,,2111842.0
1709208276.9375,-46.21,,,2110215.0
1709208276.953125,-52.88,,,2102990.0
1709208276.96875,-58.02,,,2094444.0
1709208276.984375,-60.09,,,2089923.0
1709208277.0,-57.91,,,2087859.0
1709208277.015625,-51.05,,,2085749.0
1709208277.03125,-40.0,,,2083642.0
1709208277.046875,-26.12,,,2082263.0
1709208277.0625,-11.21,,,2079840.0
1709208277.078125,2.98,,,2075917.0
1709208277.09375,15.13,,,2071888.0
1709208277.109375,24.58,,,2069153.0
1709208277.125,31.28,,,2068350.0
1709208277.140625,35.48,,,2068566.0
1709208277.15625,37.58,,,2069641.0
1709208277.171875,37.9,,,2071479.0
1709208277.1875,36.75,,,2073213.0
1709208277.203125,34.44,,,2074974.0
1709208277.21875,31.45,,,2076767.0
1709208277.234375,28.28,,,2079118.0
1709208277.25,25.43,,,2081492.0
1709208277.265625,23.24,,,2085235.0
1709208277.28125,21.8,,,2088482.0
1709208277.296875,21.08,,,2092364.0
1709208277.3125,21.0,,,2095467.0
1709208277.328125,21.6,,,2097268.0
1709208277.34375,22.97,,,2098372.0
1709208277.359375,25.21,,,2100114.0
1709208277.375,28.22,,,2102700.0
1709208277.390625,31.68,,,2105108.0
1709208277.40625,35.05,,,2107145.0
1709208277.421875,37.77,,,2109050.0
1709208277.4375,39.38,,,2109072.0
1709208277.453125,39.68,,,2102496.0
1709208277.46875,38.76,,,2088394.0
1709208277.484375,36.89,,,2077517.0
1709208277.5,34.43,,,2071738.0
1709208277.515625,31.7,,,2067074.0
1709208277.53125,28.89,,,2062162.0
1709208277.546875,26.04,,,2058489.0
1709208277.5625,23.12,,,2049837.0
1709208277.578125,20.02,,,2054760.0
1709208277.59375,16.65,,,2054760.0
1709208277.609375,12.98,,,2039098.0
1709208277.625,9.06,,,2044230.0
1709208277.640625,5.06,,,2034841.0
1709208277.65625,1.24,,,2030579.0
1709208277.671875,-2.16,,,2032198.0
1709208277.6875,-4.95,,,2030036.0
1709208277.703125,-7.17,,,2029823.0
1709208277.71875,-9.04,,,2029832.0
1709208277.734375,-10.97,,,2030178.0
1709208277.75,-13.32,,,2032609.0
1709208277.765625,-16.34,,,2031202.0
1709208277.78125,-19.97,,,2037111.0
1709208277.796875,-23.97,,,2034647.0
1709208277.8125,-27.95,,,2029979.0
1709208277.828125,-31.61,,,2040093.0
1709208277.84375,-34.83,,,2042863.0
1709208277.859375,-37.76,,,2045809.0
1709208277.875,-40.76,,,2048960.0
1709208277.890625,-44.38,,,2051876.0
1709208277.90625,-49.14,,,2054920.0
1709208277.921875,-55.32,,,2058258.0
1709208277.9375,-62.69,,,2061823.0
1709208277.953125,-70.36,,,2065519.0
1709208277.96875,-76.82,,,2067151.0
1709208277.984375,-80.27,,,2063267.0
1709208278.0,-79.19,,,2042902.0
1709208278.015625,-72.87,,,2051930.0
1709208278.03125,-61.67,,,2038665.0
1709208278.046875,-46.96,,,2035856.0
1709208278.0625,-30.7,,,2031948.0
1709208278.078125,-14.86,,,2029144.0
1709208278.09375,-0.94,,,2025884.0
1709208278.109375,10.28,,,2021557.0
1709208278.125,18.64,,,2016943.0
1709208278.140625,24.48,,,2013069.0
1709208278.15625,28.33,,,2010061.0
1709208278.171875,30.77,,,2008812.0
1709208278.1875,32.29,,,2009726.0
1709208278.203125,33.26,,,2013544.0
1709208278.21875,33.89,,,2025433.0
1709208278.234375,34.24,,,2039988.0
1709208278.25,34.27,,,2048174.0
1709208278.265625,33.96,,,2051844.0
1709208278.28125,33.38,,,2052874.0
1709208278.296875,32.66,,,2054248.0
1709208278.3125,32.07,,,2055957.0
1709208278.328125,31.87,,,2058098.0
1709208278.34375,32.3,,,2060177.0
1709208278.359375,33.46,,,2062655.0
1709208278.375,35.34,,,2064980.0
1709208278.390625,37.82,,,2067344.0
1709208278.40625,40.65,,,2069925.0
1709208278.421875,43.47,,,2072451.0
1709208278.4375,45.89,,,2073062.0
1709208278.453125,47.47,,,2066464.0
1709208278.46875,47.9,,,2053005.0
1709208278.484375,47.08,,,2043638.0
1709208278.5,45.17,,,2038653.0
1709208278.515625,42.57,,,2035273.0
1709208278.53125,39.78,,,2032430.0
1709208278.546875,37.21,,,2031143.0
1709208278.5625,35.0,,,2029497.0
1709208278.578125,33.05,,,2027117.0
1709208278.59375,31.1,,,2024640.0
1709208278.609375,28.87,,,2023620.0
1709208278.625,26.27,,,2023802.0
1709208278.640625,23.4,,,2024627.0
1709208278.65625,20.49,,,2026511.0
1709208278.671875,17.81,,,2028643.0
1709208278.6875,15.56,,,2031130.0
1709208278.703125,13.78,,,2033621.0
1709208278.71875,12.38,,,2036370.0
1709208278.734375,11.19,,,2039900.0
1709208278.75,9.97,,,2043611.0
1709208278.765625,8.5,,,2047034.0
1709208278.78125,6.65,,,2051220.0
1709208278.796875,4.41,,,2054972.0
1709208278.8125,1.92,,,2058928.0
1709208278.828125,-0.62,,,2062622.0
1709208278.84375,-3.04,,,2066388.0
1709208278.859375,-5.32,,,2069600.0
1709208278.875,-7.56,,,2072920.0
1709208278.890625,-9.98,,,2076089.0
1709208278.90625,-12.77,,,2077807.0
1709208278.921875,-16.05,,,2074431.0
1709208278.9375,-19.77,,,2063505.0
1709208278.953125,-23.75,,,2055435.0
1709208278.96875,-27.8,,,2051574.0
1709208278.984375,-31.76,,,2048721.0
1709208279.0,-35.58,,,2045612.0
1709208279.015625,-39.32,,,2043915.0
1709208279.03125,-43.16,,,2042473.0
1709208279.046875,-47.4,,,2040450.0
1709208279.0625,-52.34,,,2037830.0
1709208279.078125,-58.14,,,2036060.0
1709208279.09375,-64.58,,,2035417.0
1709208279.109375,-70.9,,,2035518.0
1709208279.125,-75.78,,,2035900.0
1709208279.140625,-77.61,,,2036549.0
1709208279.15625,-74.99,,,2036909.0
1709208279.171875,-67.28,,,2038090.0
1709208279.1875,-54.86,,,2037362.0
1709208279.203125,-39.16,,,2040317.0
1709208279.21875,-22.22,,,2039134.0
1709208279.234375,-6.12,,,2043436.0
1709208279.25,7.58,,,2041693.0
1709208279.265625,18.1,,,2045314.0
1709208279.28125,25.41,,,2047298.0
1709208279.296875,29.99,,,2048931.0
1709208279.3125,32.48,,,2050935.0
1709208279.328125,33.51,,,2052851.0
1709208279.34375,33.61,,,2054705.0
1709208279.359375,33.16,,,2056938.0
1709208279.375,32.54,,,2058908.0
1709208279.390625,31.96,,,2063826.0
1709208279.40625,31.61,,,2061165.0
1709208279.421875,31.5,,,2070077.0
1709208279.4375,31.58,,,2066908.0
1709208279.453125,31.7,,,2070651.0
1709208279.46875,31.75,,,2050850.0
1709208279.484375,31.71,,,2061876.0
1709208279.5,31.69,,,2043697.0
1709208279.515625,31.9,,,2039778.0
1709208279.53125,32.55,,,2032155.0
1709208279.546875,33.72,,,2036124.0
1709208279.5625,35.35,,,2030166.0
1709208279.578125,37.17,,,2028040.0
1709208279.59375,38.81,,,2024908.0
1709208279.609375,39.93,,,2022278.0
1709208279.625,40.32,,,2020825.0
1709208279.640625,39.96,,,2020309.0
1709208279.65625,38.98,,,2021131.0
1709208279.671875,37.55,,,2022821.0
1709208279.6875,35.8,,,2024744.0
1709208279.703125,33.78,,,2026949.0
1709208279.71875,31.46,,,2029280.0
1709208279.734375,28.78,,,2031546.0
1709208279.75,25.76,,,2033668.0
1709208279.765625,22.48,,,2036517.0
1709208279.78125,19.1,,,2039781.0
1709208279.796875,15.87,,,2043271.0
1709208279.8125,13.06,,,2046963.0
1709208279.828125,10.82,,,2050668.0
1709208279.84375,9.23,,,2054264.0
1709208279.859375,8.18,,,2056901.0
1709208279.875,7.46,,,2059364.0
1709208279.890625,6.85,,,2061985.0
1709208279.90625,6.17,,,2064841.0
1709208279.921875,5.33,,,2067589.0
1709208279.9375,4.3,,,2068911.0
1709208279.953125,3.01,,,2063570.0
1709208279.96875,1.36,,,2056189.0
1709208279.984375,-0.79,,,2052371.0
1709208280.0,-3.42,,,2051272.0
1709208280.015625,-6.35,,,2051102.0
1709208280.03125,-9.17,,,2051202.0
1709208280.046875,-11.48,,,2051524.0
1709208280.0625,-13.05,,,2051252.0
1709208280.078125,-14.06,,,2049991.0
1709208280.09375,-14.99,,,2049231.0
1709208280.109375,-16.44,,,2049672.0
1709208280.125,-18.77,,,2050727.0
1709208280.140625,-21.93,,,2052071.0
1709208280.15625,-25.45,,,2053972.0
1709208280.171875,-28.69,,,2055721.0
1709208280.1875,-31.22,,,2057441.0
1709208280.203125,-32.96,,,2059298.0
1709208280.21875,-34.3,,,2060736.0
1709208280.234375,-35.83,,,2062401.0
1709208280.25,-38.17,,,2064166.0
1709208280.265625,-41.72,,,2066160.0
1709208280.28125,-46.53,,,2068149.0
1709208280.296875,-52.18,,,2070578.0
1709208280.3125,-57.81,,,2072902.0
1709208280.328125,-62.17,,,2075322.0
1709208280.34375,-63.9,,,2077537.0
1709208280.359375,-61.86,,,2080155.0
1709208280.375,-55.53,,,2082733.0
1709208280.390625,-45.19,,,2085404.0
1709208280.40625,-32.01,,,2088392.0
1709208280.421875,-17.65,,,2090024.0
1709208280.4375,-3.87,,,2084769.0
1709208280.453125,7.95,,,2075530.0
1709208280.46875,17.06,,,2069566.0
1709208280.484375,23.38,,,2066997.0
1709208280.5,27.31,,,2065524.0
1709208280.515625,29.46,,,2064060.0
1709208280.53125,30.41,,,2062927.0
1709208280.546875,30.54,,,2062906.0
1709208280.5625,30.08,,,2061823.0
1709208280.578125,29.15,,,2060740.0
1709208280.59375,27.88,,,2060361.0
1709208280.609375,26.45,,,2060970.0
1709208280.625,25.05,,,2062227.0
1709208280.640625,23.89,,,2065431.0
1709208280.65625,23.13,,,2067353.0
1709208280.671875,22.86,,,2068967.0
1709208280.6875,23.16,,,2063710.0
1709208280.703125,24.11,,,2070979.0
1709208280.71875,25.74,,,2072844.0
1709208280.734375,27.99,,,2074724.0
1709208280.75,30.63,,,2077036.0
1709208280.765625,33.25,,,2079357.0
1709208280.78125,35.4,,,2081972.0
1709208280.796875,36.7,,,2084592.0
1709208280.8125,36.99,,,2090180.0
1709208280.828125,36.33,,,2092789.0
1709208280.84375,34.99,,,2087457.0
1709208280.859375,33.29,,,2095456.0
1709208280.875,31.5,,,2098122.0
1709208280.890625,29.75,,,2100469.0
1709208280.90625,28.04,,,2102889.0
1709208280.921875,26.27,,,2105477.0
1709208280.9375,24.3,,,2108245.0
1709208280.953125,22.03,,,2109771.0
1709208280.96875,19.42,,,2104836.0
1709208280.984375,16.56,,,2087764.0
1709208281.0,13.62,,,2094960.0
1709208281.015625,10.85,,,2084287.0
1709208281.03125,8.48,,,2082713.0
1709208281.046875,6.65,,,2080557.0
1709208281.0625,5.28,,,2078176.0
1709208281.078125,4.15,,,2079018.0
1709208281.09375,2.94,,,2076563.0
1709208281.109375,1.45,,,2074634.0
1709208281.125,-0.37,,,2072731.0
1709208281.140625,-2.3,,,2072512.0
1709208281.15625,-3.97,,,2072786.0
1709208281.171875,-5.07,,,2074007.0
1709208281.1875,-5.51,,,2075167.0
1709208281.203125,-5.58,,,2076771.0
1709208281.21875,-5.8,,,2078463.0
1709208281.234375,-6.74,,,2080283.0
1709208281.25,-8.71,,,2082176.0
1709208281.265625,-11.54,,,2084082.0
1709208281.28125,-14.68,,,2086141.0
1709208281.296875,-17.4,,,2088499.0
1709208281.3125,-19.2,,,2090976.0
1709208281.328125,-19.99,,,2093584.0
1709208281.34375,-20.14,,,2096008.0
1709208281.359375,-20.19,,,2098496.0
1709208281.375,-20.57,,,2100864.0
1709208281.390625,-21.44,,,2103033.0
1709208281.40625,-22.81,,,2105166.0
1709208281.421875,-24.51,,,2107201.0
1709208281.4375,-26.22,,,2109341.0
1709208281.453125,-27.21,,,2110673.0
1709208281.46875,-26.22,,,2107069.0
1709208281.484375,-21.7,,,2095817.0
1709208281.5,-12.5,,,2086507.0
1709208281.515625,1.35,,,2081819.0
1709208281.53125,18.27,,,2079462.0
1709208281.546875,35.41,,,2077662.0
1709208281.5625,49.64,,,2077662.0
1709208281.578125,58.7,,,2076578.0
1709208281.59375,61.9,,,2075470.0
1709208281.609375,60.01,,,2073394.0
1709208281.625,54.64,,,2070667.0
1709208281.640625,47.32,,,2068341.0
1709208281.65625,39.08,,,2066860.0
1709208281.671875,30.4,,,2066548.0
1709208281.6875,21.58,,,2067007.0
1709208281.703125,13.06,,,2068129.0
1709208281.71875,5.44,,,2069166.0
1709208281.734375,-0.75,,,2070247.0
1709208281.75,-5.28,,,2070882.0
1709208281.765625,-8.37,,,2071572.0
1709208281.78125,-10.47,,,2072313.0
1709208281.796875,-12.1,,,2073086.0
1709208281.8125,-13.57,,,2074321.0
1709208281.828125,-14.8,,,2075739.0
1709208281.84375,-15.46,,,2077427.0
1709208281.859375,-15.12,,,2079571.0
1709208281.875,-13.5,,,2081462.0
1709208281.890625,-10.63,,,2083554.0
1709208281.90625,-6.9,,,2085249.0
1709208281.921875,-2.96,,,2087359.0
1709208281.9375,0.54,,,2089481.0
1709208281.953125,3.14,,,2090460.0
1709208281.96875,4.68,,,2083323.0
1709208281.984375,5.28,,,2070578.0
1709208282.0,5.26,,,2060951.0
1709208282.015625,4.95,,,2055996.0
1709208282.03125,4.61,,,2052984.0
1709208282.046875,4.35,,,2049871.0
1709208282.0625,4.16,,,2047818.0
1709208282.078125,3.91,,,2046066.0
1709208282.09375,3.43,,,2043609.0
1709208282.109375,2.59,,,2040801.0
1709208282.125,1.4,,,2038630.0
1709208282.140625,0.03,,,2037743.0
1709208282.15625,-1.28,,,2038258.0
1709208282.171875,-2.25,,,2039667.0
1709208282.1875,-2.76,,,2041177.0
1709208282.203125,-2.86,,,2042861.0
1709208282.21875,-2.78,,,2044603.0
1709208282.234375,-2.78,,,2046163.0
1709208282.25,-3.06,,,2047597.0
1709208282.265625,-3.6,,,2048665.0
1709208282.28125,-4.27,,,2049762.0
1709208282.296875,-4.89,,,2050895.0
1709208282.3125,-5.34,,,2052003.0
1709208282.328125,-5.69,,,2053539.0
1709208282.34375,-6.12,,,2055078.0
1709208282.359375,-6.87,,,2057003.0
1709208282.375,-8.1,,,2058341.0
1709208282.390625,-9.76,,,2059685.0
1709208282.40625,-11.65,,,2060914.0
1709208282.421875,-13.47,,,2062680.0
1709208282.4375,-15.04,,,2065751.0
1709208282.453125,-16.38,,,2071063.0
1709208282.46875,-17.72,,,2080868.0
1709208282.484375,-19.37,,,2087862.0
1709208282.5,-21.55,,,2091580.0
1709208282.515625,-24.21,,,2094208.0
1709208282.53125,-27.05,,,2095353.0
1709208282.546875,-29.68,,,2095198.0
1709208282.5625,-31.83,,,2092891.0
1709208282.578125,-33.46,,,2090262.0
1709208282.59375,-34.8,,,2087255.0
1709208282.609375,-36.24,,,2083241.0
1709208282.625,-38.15,,,2079198.0
1709208282.640625,-40.84,,,2075802.0
1709208282.65625,-44.42,,,2073866.0
1709208282.671875,-48.74,,,2072235.0
1709208282.6875,-53.33,,,2070803.0
1709208282.703125,-57.3,,,2069167.0
1709208282.71875,-59.56,,,2068071.0
1709208282.734375,-59.0,,,2066901.0
1709208282.75,-54.92,,,2066044.0
1709208282.765625,-47.32,,,2065347.0
1709208282.78125,-36.94,,,2064990.0
1709208282.796875,-25.05,,,2065372.0
1709208282.8125,-13.07,,,2065959.0
1709208282.828125,-2.2,,,2066975.0
1709208282.84375,6.78,,,2068331.0
1709208282.859375,13.53,,,2070249.0
1709208282.875,18.03,,,2072510.0
1709208282.890625,20.47,,,2074854.0
1709208282.90625,21.23,,,2077212.0
1709208282.921875,20.82,,,2079865.0
1709208282.9375,19.81,,,2082828.0
1709208282.953125,18.73,,,2086066.0
1709208282.96875,17.88,,,2088595.0
1709208282.984375,17.37,,,2085431.0
1709208283.0,17.09,,,2075152.0
