timestamp,bvp,eda,temp,PPG GREEN
1569566913.25,-0.23,0.149853,36.05,1849394.0
1569566913.265625,9.92,0.149853,36.05,1844934.0
1569566913.28125,18.7,0.16138,36.05,1842329.0
1569566913.296875,24.74,0.156256,36.05,1840299.0
1569566913.3125,27.37,0.152414,36.05,1838364.0
1569566913.328125,26.77,0.149853,36.05,1836722.0
1569566913.34375,23.67,0.151133,36.05,1834052.0
1569566913.359375,19.02,0.149853,36.05,1832101.0
1569566913.375,13.86,0.148572,35.97,1829475.0
1569566913.390625,8.96,0.149853,35.97,1827078.0
1569566913.40625,4.94,0.149853,35.97,1835454.0
1569566913.421875,2.18,0.147291,35.97,1822877.0
1569566913.4375,0.83,0.148572,35.95,1812026.0
1569566913.453125,0.8,0.149853,35.95,1816939.0
1569566913.46875,1.71,0.149853,35.95,1808261.0
1569566913.484375,3.06,0.149853,35.95,1804779.0
1569566913.5,4.33,0.147291,35.93,1801736.0
1569566913.515625,5.22,0.151133,35.93,1800193.0
1569566913.53125,5.78,0.151133,35.93,1798852.0
1569566913.546875,6.39,0.148572,35.93,1797794.0
1569566913.5625,7.46,0.147291,35.93,1795633.0
1569566913.578125,9.22,0.152414,35.93,1796742.0
1569566913.59375,11.48,0.152414,35.93,1795104.0
1569566913.609375,13.63,0.149853,35.93,1795384.0
1569566913.625,14.95,0.151133,35.93,1795082.0
1569566913.640625,14.8,0.151133,35.93,1791577.0
1569566913.65625,12.98,0.152414,35.93,1786828.0
1569566913.671875,9.69,0.149853,35.93,1782139.0
1569566913.6875,5.45,0.154976,35.93,1779322.0
1569566913.703125,0.98,0.153695,35.93,1795194.0
1569566913.71875,-3.05,0.151133,35.93,1795249.0
1569566913.734375,-6.05,0.149853,35.93,1799433.0
1569566913.75,-7.77,0.154976,35.91,1775056.0
1569566913.765625,-8.29,0.153695,35.91,1772684.0
1569566913.78125,-8.18,0.151133,35.91,1776751.0
1569566913.796875,-8.25,0.149853,35.91,1773747.0
1569566913.8125,-9.4,0.153695,35.91,1771122.0
1569566913.828125,-12.14,0.153695,35.91,1769911.0
1569566913.84375,-16.42,0.148572,35.91,1768990.0
1569566913.859375,-21.49,0.149853,35.91,1769242.0
1569566913.875,-26.18,0.152414,35.89,1769160.0
1569566913.890625,-29.39,0.153695,35.89,1769881.0
1569566913.90625,-30.48,0.151133,35.89,1769422.0
1569566913.921875,-29.66,0.151133,35.89,1768864.0
1569566913.9375,-27.72,0.154976,35.89,1770610.0
1569566913.953125,-25.73,0.154976,35.89,1761011.0
1569566913.96875,-24.4,0.153695,35.89,1764742.0
1569566913.984375,-23.79,0.156256,35.89,1756493.0
1569566914.0,-23.28,0.154976,35.84,1755491.0
1569566914.015625,-21.91,0.156256,35.84,1758210.0
1569566914.03125,-19.03,0.153695,35.84,1754347.0
1569566914.046875,-14.54,0.156256,35.84,1754750.0
1569566914.0625,-9.17,0.158818,35.87,1753447.0
1569566914.078125,-4.07,0.154976,35.87,1753703.0
1569566914.09375,-0.34,0.152414,35.87,1754015.0
1569566914.109375,1.42,0.157537,35.87,1753578.0
1569566914.125,1.3,0.157537,35.84,1755238.0
1569566914.140625,-0.08,0.154976,35.84,1757692.0
1569566914.15625,-1.94,0.156256,35.84,1754483.0
1569566914.171875,-3.73,0.158818,35.84,1756146.0
1569566914.1875,-5.05,0.157537,35.83,1757570.0
1569566914.203125,-5.65,0.156256,35.83,1755285.0
1569566914.21875,-5.13,0.154976,35.83,1752026.0
1569566914.234375,-3.0,0.160099,35.83,1748266.0
1569566914.25,1.24,0.158818,35.83,1749812.0
1569566914.265625,7.65,0.156256,35.83,1746834.0
1569566914.28125,15.77,0.160099,35.83,1746604.0
1569566914.296875,24.76,0.160099,35.83,1746755.0
1569566914.3125,33.68,0.160099,35.83,1747480.0
1569566914.328125,42.12,0.157537,35.83,1748722.0
1569566914.34375,50.16,0.160099,35.83,1746647.0
1569566914.359375,58.3,0.160099,35.83,1750001.0
1569566914.375,66.97,0.157537,35.79,1750427.0
1569566914.390625,76.08,0.157537,35.79,1751127.0
1569566914.40625,85.01,0.16138,35.79,1753235.0
1569566914.421875,92.7,0.16138,35.79,1754516.0
1569566914.4375,98.09,0.158818,35.81,1755277.0
1569566914.453125,100.44,0.157537,35.81,1754853.0
1569566914.46875,99.48,0.16266,35.81,1754973.0
1569566914.484375,95.29,0.16138,35.81,1755593.0
1569566914.5,88.21,0.160099,35.79,1758119.0
1569566914.515625,78.61,0.158818,35.79,1764934.0
1569566914.53125,66.76,0.163941,35.79,1761644.0
1569566914.546875,52.9,0.16266,35.79,1768315.0
1569566914.5625,37.28,0.16138,35.79,1773304.0
1569566914.578125,20.37,0.16266,35.79,1771148.0
1569566914.59375,2.81,0.163941,35.79,1776221.0
1569566914.609375,-14.63,0.16266,35.79,1782217.0
1569566914.625,-31.27,0.16138,35.77,1791609.0
1569566914.640625,-46.62,0.163941,35.77,1801811.0
1569566914.65625,-60.3,0.165222,35.77,1806409.0
1569566914.671875,-71.81,0.163941,35.77,1810913.0
1569566914.6875,-80.36,0.16138,35.79,1815610.0
1569566914.703125,-84.93,0.163941,35.79,1819407.0
1569566914.71875,-84.74,0.166503,35.79,1823018.0
1569566914.734375,-79.86,0.165222,35.79,1796857.0
1569566914.75,-71.43,0.16266,35.77,1774732.0
1569566914.765625,-61.55,0.163941,35.77,1776654.0
1569566914.78125,-52.44,0.166503,35.77,1786295.0
1569566914.796875,-45.66,0.166503,35.77,1826455.0
1569566914.8125,-41.47,0.163941,35.75,1830275.0
1569566914.828125,-39.06,0.16266,35.75,1833827.0
1569566914.84375,-37.06,0.166503,35.75,1837777.0
1569566914.859375,-34.32,0.166503,35.75,1841546.0
1569566914.875,-30.48,0.163941,35.73,1844571.0
1569566914.890625,-25.89,0.163941,35.73,1846324.0
1569566914.90625,-21.4,0.166503,35.73,1847132.0
1569566914.921875,-17.81,0.166503,35.73,1855352.0
1569566914.9375,-15.69,0.163941,35.75,1870297.0
1569566914.953125,-15.18,0.163941,35.75,1864498.0
1569566914.96875,-16.19,0.169064,35.75,1874407.0
1569566914.984375,-18.5,0.169064,35.75,1877353.0
1569566915.0,-21.96,0.166503,35.73,1879444.0
1569566915.015625,-26.49,0.165222,35.73,1880289.0
1569566915.03125,-31.99,0.167784,35.73,1881226.0
1569566915.046875,-38.19,0.167784,35.73,1882051.0
1569566915.0625,-44.55,0.167784,35.73,1884253.0
1569566915.078125,-50.34,0.165222,35.73,1885495.0
1569566915.09375,-54.83,0.169064,35.73,1888528.0
1569566915.109375,-57.62,0.169064,35.73,1887000.0
1569566915.125,-58.7,0.166503,35.71,1890357.0
1569566915.140625,-58.36,0.166503,35.71,1892372.0
1569566915.15625,-56.87,0.169064,35.71,1894041.0
1569566915.171875,-54.15,0.169064,35.71,1895572.0
1569566915.1875,-49.79,0.167784,35.68,1897432.0
1569566915.203125,-43.24,0.166503,35.68,1901173.0
1569566915.21875,-34.3,0.171626,35.68,1899337.0
1569566915.234375,-23.47,0.171626,35.68,1901853.0
1569566915.25,-11.94,0.167784,35.68,1903376.0
1569566915.265625,-1.16,0.166503,35.68,1906639.0
1569566915.28125,7.67,0.171626,35.68,1910450.0
1569566915.296875,14.1,0.170345,35.68,1911956.0
1569566915.3125,18.47,0.170345,35.68,1908688.0
1569566915.328125,21.57,0.171626,35.68,1904751.0
1569566915.34375,24.18,0.172907,35.68,1901994.0
1569566915.359375,26.66,0.171626,35.68,1913740.0
1569566915.375,28.91,0.170345,35.66,1915664.0
1569566915.390625,30.52,0.171626,35.66,1917170.0
1569566915.40625,31.09,0.172907,35.66,1918923.0
1569566915.421875,30.42,0.170345,35.66,1920273.0
1569566915.4375,28.58,0.169064,35.68,1921900.0
1569566915.453125,25.81,0.171626,35.68,1923718.0
1569566915.46875,22.4,0.172907,35.68,1925390.0
1569566915.484375,18.76,0.170345,35.68,1926770.0
1569566915.5,15.29,0.170345,35.66,1927290.0
1569566915.515625,12.45,0.172907,35.66,1929699.0
1569566915.53125,10.67,0.174188,35.66,1928219.0
1569566915.546875,10.2,0.171626,35.66,1931679.0
1569566915.5625,11.05,0.170345,35.65,1934336.0
1569566915.578125,12.96,0.174188,35.65,1936337.0
1569566915.59375,15.46,0.174188,35.65,1940332.0
1569566915.609375,17.95,0.171626,35.65,1938855.0
1569566915.625,19.87,0.170345,35.63,1946438.0
1569566915.640625,20.77,0.174188,35.63,1952764.0
1569566915.65625,20.33,0.175468,35.63,1957218.0
1569566915.671875,18.48,0.172907,35.63,1957779.0
1569566915.6875,15.41,0.172907,35.63,1955595.0
1569566915.703125,11.53,0.175468,35.63,1942784.0
1569566915.71875,7.28,0.17803,35.63,1949854.0
1569566915.734375,3.01,0.172907,35.63,1959460.0
1569566915.75,-1.16,0.172907,35.65,1961179.0
1569566915.765625,-5.28,0.175468,35.65,1962112.0
1569566915.78125,-9.4,0.175468,35.65,1961887.0
1569566915.796875,-13.29,0.174188,35.65,1962347.0
1569566915.8125,-16.23,0.172907,35.63,1963252.0
1569566915.828125,-17.26,0.172907,35.63,1963391.0
1569566915.84375,-15.37,0.176749,35.63,1965494.0
1569566915.859375,-10.11,0.174188,35.63,1967411.0
1569566915.875,-1.77,0.174188,35.61,1968924.0
1569566915.890625,8.39,0.17803,35.61,1969363.0
1569566915.90625,18.64,0.17803,35.61,1969902.0
1569566915.921875,27.17,0.175468,35.61,1971296.0
1569566915.9375,32.63,0.175468,35.61,1973807.0
1569566915.953125,34.42,0.176749,35.61,1976190.0
1569566915.96875,32.63,0.17803,35.61,1978390.0
1569566915.984375,28.05,0.175468,35.61,1979885.0
1569566916.0,21.97,0.17803,35.59,1981027.0
1569566916.015625,16.05,0.17803,35.59,1979683.0
1569566916.03125,11.91,0.175468,35.59,1977151.0
1569566916.046875,10.81,0.175468,35.59,1976497.0
1569566916.0625,13.06,0.179311,35.61,1977023.0
1569566916.078125,17.91,0.179311,35.61,1977023.0
1569566916.09375,23.68,0.176749,35.61,1981059.0
1569566916.109375,28.38,0.176749,35.61,1978980.0
1569566916.125,30.51,0.180592,35.59,1981513.0
1569566916.140625,29.59,0.179311,35.59,1982153.0
1569566916.15625,26.26,0.176749,35.59,1982869.0
1569566916.171875,21.85,0.176749,35.59,1984920.0
1569566916.1875,17.73,0.180592,35.57,1987973.0
1569566916.203125,14.8,0.180592,35.57,1986115.0
1569566916.21875,13.24,0.17803,35.57,1988585.0
1569566916.234375,12.73,0.176749,35.57,1989400.0
1569566916.25,12.72,0.179311,35.57,1989572.0
1569566916.265625,12.73,0.179311,35.57,1988810.0
1569566916.28125,12.42,0.17803,35.57,1988724.0
1569566916.296875,11.57,0.180592,35.57,1987017.0
1569566916.3125,10.05,0.180592,35.55,1983744.0
1569566916.328125,7.85,0.179311,35.55,1989215.0
1569566916.34375,5.05,0.17803,35.55,1989691.0
1569566916.359375,1.88,0.180592,35.55,1990776.0
1569566916.375,-1.34,0.179311,35.53,1991783.0
1569566916.390625,-4.31,0.17803,35.53,1992587.0
1569566916.40625,-6.89,0.17803,35.53,1993431.0
1569566916.421875,-9.19,0.181872,35.53,1995518.0
1569566916.4375,-11.55,0.179311,35.53,1994356.0
1569566916.453125,-14.35,0.17803,35.53,2000232.0
1569566916.46875,-17.67,0.17803,35.53,2003439.0
1569566916.484375,-21.19,0.181872,35.53,1997259.0
1569566916.5,-24.13,0.180592,35.5,2002190.0
1569566916.515625,-25.46,0.179311,35.5,2002977.0
1569566916.53125,-24.31,0.180592,35.5,2003035.0
1569566916.546875,-20.28,0.181872,35.5,2004603.0
1569566916.5625,-13.64,0.183153,35.5,2004176.0
1569566916.578125,-5.21,0.180592,35.5,2005862.0
1569566916.59375,3.75,0.180592,35.5,2006938.0
1569566916.609375,12.03,0.184434,35.5,2007266.0
1569566916.625,18.63,0.181872,35.5,2007788.0
1569566916.640625,23.0,0.180592,35.5,2007441.0
1569566916.65625,25.0,0.181872,35.5,2008344.0
1569566916.671875,24.87,0.183153,35.5,2008788.0
1569566916.6875,23.05,0.180592,35.49,2006934.0
1569566916.703125,20.16,0.180592,35.49,2007405.0
1569566916.71875,16.82,0.184434,35.49,2007286.0
1569566916.734375,13.62,0.184434,35.49,2009507.0
1569566916.75,11.01,0.181872,35.49,2009907.0
1569566916.765625,9.26,0.180592,35.49,2010505.0
1569566916.78125,8.43,0.180592,35.49,2011164.0
1569566916.796875,8.39,0.183153,35.49,2010300.0
1569566916.8125,8.86,0.181872,35.49,2009961.0
1569566916.828125,9.55,0.181872,35.49,2009663.0
1569566916.84375,10.22,0.184434,35.49,2010077.0
1569566916.859375,10.8,0.184434,35.49,2012055.0
1569566916.875,11.23,0.183153,35.49,2015269.0
1569566916.890625,11.45,0.184434,35.49,2013688.0
1569566916.90625,11.3,0.185715,35.49,2017448.0
1569566916.921875,10.6,0.186995,35.49,2010949.0
1569566916.9375,9.25,0.183153,35.47,2019602.0
1569566916.953125,7.32,0.185715,35.47,2024055.0
1569566916.96875,5.18,0.185715,35.47,2021356.0
1569566916.984375,3.27,0.183153,35.47,2026900.0
1569566917.0,2.01,0.183153,35.47,2028493.0
1569566917.015625,1.48,0.185715,35.47,2030219.0
1569566917.03125,1.46,0.188276,35.47,2031704.0
1569566917.046875,1.45,0.19468,35.47,2031873.0
1569566917.0625,0.94,0.181872,35.45,2032439.0
1569566917.078125,-0.41,0.186995,35.45,2032498.0
1569566917.09375,-2.69,0.186995,35.45,2033226.0
1569566917.109375,-5.7,0.184434,35.45,2033510.0
1569566917.125,-9.09,0.183153,35.45,2032910.0
1569566917.140625,-12.26,0.186995,35.45,2032182.0
1569566917.15625,-14.49,0.188276,35.45,2030467.0
1569566917.171875,-14.96,0.185715,35.45,2031479.0
1569566917.1875,-13.0,0.186995,35.45,2031835.0
1569566917.203125,-8.35,0.189557,35.45,2032219.0
1569566917.21875,-1.42,0.188276,35.45,2032311.0
1569566917.234375,6.75,0.185715,35.45,2032456.0
1569566917.25,14.84,0.189557,35.41,2032217.0
1569566917.265625,21.67,0.188276,35.41,2032895.0
1569566917.28125,26.51,0.188276,35.41,2032970.0
1569566917.296875,29.33,0.186995,35.41,2032876.0
1569566917.3125,30.52,0.189557,35.41,2033011.0
1569566917.328125,30.62,0.189557,35.41,2031230.0
1569566917.34375,30.1,0.186995,35.41,2029441.0
1569566917.359375,29.16,0.188276,35.41,2028049.0
1569566917.375,27.85,0.190838,35.43,2027249.0
1569566917.390625,26.25,0.190838,35.43,2027039.0
1569566917.40625,24.42,0.186995,35.43,2026480.0
1569566917.421875,22.46,0.186995,35.43,2025782.0
1569566917.4375,20.42,0.190838,35.41,2025652.0
1569566917.453125,18.3,0.190838,35.41,2025177.0
1569566917.46875,16.02,0.188276,35.41,2024627.0
1569566917.484375,13.56,0.188276,35.41,2024459.0
1569566917.5,10.99,0.189557,35.41,2024433.0
1569566917.515625,8.47,0.190838,35.41,2024559.0
1569566917.53125,6.25,0.189557,35.41,2024406.0
1569566917.546875,4.55,0.189557,35.41,2024464.0
1569566917.5625,3.48,0.190838,35.37,2024022.0
1569566917.578125,2.93,0.188276,35.37,2019220.0
1569566917.59375,2.63,0.189557,35.37,2019020.0
1569566917.609375,2.23,0.190838,35.37,2019763.0
1569566917.625,1.43,0.192119,35.39,2020812.0
1569566917.640625,0.14,0.19468,35.39,2022359.0
1569566917.65625,-1.48,0.189557,35.39,2022741.0
1569566917.671875,-3.15,0.189557,35.39,2023122.0
1569566917.6875,-4.65,0.192119,35.37,2023584.0
1569566917.703125,-5.9,0.192119,35.37,2024436.0
1569566917.71875,-7.09,0.190838,35.37,2025319.0
1569566917.734375,-8.49,0.190838,35.37,2026432.0
1569566917.75,-10.39,0.193399,35.37,2027458.0
1569566917.765625,-12.85,0.19468,35.37,2028575.0
1569566917.78125,-15.71,0.190838,35.37,2029989.0
1569566917.796875,-18.6,0.190838,35.37,2030775.0
1569566917.8125,-20.96,0.193399,35.37,2022192.0
1569566917.828125,-22.23,0.192119,35.37,2031021.0
1569566917.84375,-21.93,0.190838,35.37,2030263.0
1569566917.859375,-19.82,0.190838,35.37,2030585.0
1569566917.875,-15.97,0.19468,35.34,2033025.0
1569566917.890625,-10.92,0.193399,35.34,2034123.0
1569566917.90625,-5.49,0.192119,35.34,2035144.0
1569566917.921875,-0.62,0.193399,35.34,2035332.0
1569566917.9375,3.0,0.193399,35.34,2035495.0
1569566917.953125,5.11,0.195961,35.34,2031866.0
1569566917.96875,5.99,0.193399,35.34,2034985.0
1569566917.984375,6.17,0.192119,35.34,2020096.0
1569566918.0,6.14,0.195961,35.34,2034570.0
1569566918.015625,6.12,0.19468,35.34,2034251.0
1569566918.03125,5.98,0.193399,35.34,2034570.0
1569566918.046875,5.44,0.195961,35.34,2033999.0
1569566918.0625,4.3,0.195961,35.34,2033383.0
1569566918.078125,2.54,0.195961,35.34,2033014.0
1569566918.09375,0.42,0.193399,35.34,2033090.0
1569566918.109375,-1.76,0.195961,35.34,2032491.0
1569566918.125,-3.69,0.197242,35.33,2030379.0
1569566918.140625,-5.21,0.195961,35.33,2027986.0
1569566918.15625,-6.19,0.193399,35.33,2026588.0
1569566918.171875,-6.62,0.193399,35.33,2026007.0
1569566918.1875,-6.48,0.195961,35.31,2025655.0
1569566918.203125,-5.84,0.195961,35.31,2026239.0
1569566918.21875,-4.89,0.19468,35.31,2027376.0
1569566918.234375,-3.96,0.19468,35.31,2027492.0
1569566918.25,-3.45,0.198523,35.31,2027113.0
1569566918.265625,-3.66,0.197242,35.31,2027605.0
1569566918.28125,-4.73,0.195961,35.31,2028122.0
1569566918.296875,-6.59,0.198523,35.31,2029887.0
1569566918.3125,-8.92,0.199803,35.31,2030495.0
1569566918.328125,-11.29,0.199803,35.31,2030479.0
1569566918.34375,-13.27,0.195961,35.31,2030887.0
1569566918.359375,-14.53,0.198523,35.31,2030839.0
1569566918.375,-15.0,0.199803,35.29,2029159.0
1569566918.390625,-14.94,0.199803,35.29,2028565.0
1569566918.40625,-14.83,0.195961,35.29,2030308.0
1569566918.421875,-15.21,0.199803,35.29,2029145.0
1569566918.4375,-16.47,0.199803,35.29,2028132.0
1569566918.453125,-18.56,0.198523,35.29,2028193.0
1569566918.46875,-20.98,0.197242,35.29,2028488.0
1569566918.484375,-22.86,0.201084,35.29,2029004.0
1569566918.5,-23.27,0.201084,35.31,2030695.0
1569566918.515625,-21.52,0.199803,35.31,2029661.0
1569566918.53125,-17.46,0.199803,35.31,2031094.0
1569566918.546875,-11.5,0.199803,35.31,2031961.0
1569566918.5625,-4.5,0.201084,35.29,2032949.0
1569566918.578125,2.46,0.198523,35.29,2029955.0
1569566918.59375,8.46,0.199803,35.29,2033639.0
1569566918.609375,12.96,0.201084,35.29,2034615.0
1569566918.625,15.77,0.202365,35.27,2035488.0
1569566918.640625,17.11,0.199803,35.27,2035080.0
1569566918.65625,17.33,0.201084,35.27,2035702.0
1569566918.671875,16.76,0.199803,35.27,2033715.0
1569566918.6875,15.7,0.202365,35.25,2034058.0
1569566918.703125,14.31,0.202365,35.25,2033565.0
1569566918.71875,12.75,0.201084,35.25,2033598.0
1569566918.734375,11.21,0.203646,35.25,2034722.0
1569566918.75,9.86,0.203646,35.25,2034020.0
1569566918.765625,8.83,0.203646,35.25,2035719.0
1569566918.78125,8.15,0.199803,35.25,2035350.0
1569566918.796875,7.72,0.202365,35.25,2036400.0
1569566918.8125,7.41,0.202365,35.27,2036897.0
1569566918.828125,7.08,0.201084,35.27,2037934.0
1569566918.84375,6.65,0.202365,35.27,2038404.0
1569566918.859375,6.08,0.202365,35.27,2039625.0
1569566918.875,5.3,0.203646,35.25,2040533.0
1569566918.890625,4.23,0.203646,35.25,2042056.0
1569566918.90625,2.78,0.201084,35.25,2043601.0
1569566918.921875,1.0,0.202365,35.25,2044882.0
1569566918.9375,-0.96,0.204927,35.25,2044556.0
1569566918.953125,-2.88,0.203646,35.25,2045660.0
1569566918.96875,-4.44,0.201084,35.25,2046915.0
1569566918.984375,-5.52,0.201084,35.25,2047379.0
1569566919.0,-6.2,0.203646,35.23,2047903.0
1569566919.015625,-6.76,0.203646,35.23,2049540.0
1569566919.03125,-7.52,0.202365,35.23,2051106.0
1569566919.046875,-8.73,0.201084,35.23,2052787.0
1569566919.0625,-10.38,0.203646,35.21,2053667.0
1569566919.078125,-12.31,0.204927,35.21,2054212.0
1569566919.09375,-14.26,0.203646,35.21,2053845.0
1569566919.109375,-16.03,0.202365,35.21,2052644.0
1569566919.125,-17.44,0.204927,35.21,2053291.0
1569566919.140625,-18.38,0.204927,35.21,2052577.0
1569566919.15625,-18.68,0.203646,35.21,2053652.0
1569566919.171875,-18.01,0.203646,35.21,2059893.0
1569566919.1875,-16.11,0.206207,35.23,2057020.0
1569566919.203125,-12.8,0.204927,35.23,2060491.0
1569566919.21875,-8.24,0.206207,35.23,2059837.0
1569566919.234375,-2.87,0.203646,35.23,2060592.0
1569566919.25,2.64,0.204927,35.21,2060037.0
1569566919.265625,7.61,0.207488,35.21,2058916.0
1569566919.28125,11.51,0.207488,35.21,2058162.0
1569566919.296875,14.09,0.204927,35.21,2056020.0
1569566919.3125,15.37,0.204927,35.21,2053776.0
1569566919.328125,15.54,0.204927,35.21,2051923.0
1569566919.34375,14.93,0.208769,35.21,2050304.0
1569566919.359375,13.93,0.206207,35.21,2048714.0
1569566919.375,12.91,0.204927,35.21,2048231.0
1569566919.390625,12.18,0.207488,35.21,2047161.0
1569566919.40625,11.87,0.208769,35.21,2046078.0
1569566919.421875,11.95,0.206207,35.21,2046090.0
1569566919.4375,12.27,0.206207,35.18,2045796.0
1569566919.453125,12.61,0.207488,35.18,2045480.0
1569566919.46875,12.83,0.21005,35.18,2044396.0
1569566919.484375,12.92,0.208769,35.18,2043258.0
1569566919.5,12.97,0.206207,35.16,2042518.0
1569566919.515625,13.13,0.206207,35.16,2042137.0
1569566919.53125,13.48,0.21005,35.16,2042292.0
1569566919.546875,13.99,0.21005,35.16,2042066.0
1569566919.5625,14.38,0.208769,35.16,2042659.0
1569566919.578125,14.3,0.206207,35.16,2042832.0
1569566919.59375,13.3,0.21005,35.16,2043568.0
1569566919.609375,11.15,0.21005,35.16,2043356.0
1569566919.625,7.86,0.207488,35.16,2044233.0
1569566919.640625,3.73,0.207488,35.16,2045029.0
1569566919.65625,-0.75,0.21005,35.16,2046479.0
1569566919.671875,-5.13,0.211331,35.16,2045538.0
1569566919.6875,-9.11,0.208769,35.15,2047996.0
1569566919.703125,-12.74,0.207488,35.15,2047218.0
1569566919.71875,-16.2,0.211331,35.15,2048727.0
1569566919.734375,-19.74,0.211331,35.15,2047178.0
1569566919.75,-23.5,0.211331,35.16,2048120.0
1569566919.765625,-27.39,0.208769,35.16,2046527.0
1569566919.78125,-31.04,0.208769,35.16,2046279.0
1569566919.796875,-33.91,0.212611,35.16,2046435.0
1569566919.8125,-35.29,0.212611,35.13,2046818.0
1569566919.828125,-34.59,0.21005,35.13,2047823.0
1569566919.84375,-31.46,0.208769,35.13,2047503.0
1569566919.859375,-25.91,0.21005,35.13,2048709.0
1569566919.875,-18.48,0.212611,35.11,2048133.0
1569566919.890625,-10.0,0.21005,35.11,2049846.0
1569566919.90625,-1.5,0.208769,35.11,2050362.0
1569566919.921875,6.11,0.213892,35.11,2052179.0
1569566919.9375,12.18,0.211331,35.13,2051261.0
1569566919.953125,16.4,0.21005,35.13,2053914.0
1569566919.96875,18.83,0.21005,35.13,2052604.0
1569566919.984375,19.83,0.213892,35.13,2055069.0
1569566920.0,19.87,0.212611,35.13,2055200.0
1569566920.015625,19.5,0.213892,35.13,2055006.0
1569566920.03125,19.12,0.21005,35.13,2055782.0
1569566920.046875,18.91,0.212611,35.13,2057503.0
1569566920.0625,18.81,0.213892,35.15,2056650.0
1569566920.078125,18.61,0.213892,35.15,2060382.0
1569566920.09375,18.15,0.21005,35.15,2061621.0
1569566920.109375,17.37,0.21005,35.15,2061717.0
1569566920.125,16.41,0.213892,35.13,2058437.0
1569566920.140625,15.38,0.213892,35.13,2060632.0
1569566920.15625,14.35,0.212611,35.13,2058435.0
1569566920.171875,13.2,0.211331,35.13,2056303.0
1569566920.1875,11.74,0.213892,35.13,2061726.0
1569566920.203125,9.91,0.215173,35.13,2064930.0
1569566920.21875,7.82,0.211331,35.13,2059212.0
1569566920.234375,5.75,0.212611,35.13,2067752.0
1569566920.25,3.99,0.213892,35.11,2069826.0
1569566920.265625,2.65,0.215173,35.11,2071396.0
1569566920.28125,1.59,0.215173,35.11,2071752.0
1569566920.296875,0.52,0.213892,35.11,2071906.0
1569566920.3125,-0.82,0.215173,35.09,2072212.0
1569566920.328125,-2.52,0.216454,35.09,2072527.0
1569566920.34375,-4.48,0.215173,35.09,2072869.0
1569566920.359375,-6.53,0.212611,35.09,2073412.0
1569566920.375,-8.66,0.212611,35.09,2073726.0
1569566920.390625,-11.01,0.217734,35.09,2071564.0
1569566920.40625,-13.85,0.216454,35.09,2071440.0
1569566920.421875,-17.24,0.213892,35.09,2073059.0
1569566920.4375,-20.89,0.212611,35.11,2074005.0
1569566920.453125,-24.1,0.215173,35.11,2075063.0
1569566920.46875,-25.89,0.216454,35.11,2074526.0
1569566920.484375,-25.48,0.215173,35.11,2075901.0
1569566920.5,-22.54,0.213892,35.09,2076433.0
1569566920.515625,-17.42,0.216454,35.09,2076944.0
1569566920.53125,-11.01,0.217734,35.09,2076974.0
1569566920.546875,-4.41,0.213892,35.09,2076292.0
1569566920.5625,1.44,0.212611,35.07,2074979.0
1569566920.578125,6.01,0.216454,35.07,2074039.0
1569566920.59375,9.2,0.216454,35.07,2074016.0
1569566920.609375,11.2,0.213892,35.07,2074359.0
1569566920.625,12.23,0.216454,35.07,2074607.0
1569566920.640625,12.41,0.217734,35.07,2073931.0
1569566920.65625,11.69,0.219015,35.07,2075276.0
1569566920.671875,10.02,0.216454,35.07,2074775.0
1569566920.6875,7.43,0.215173,35.07,2076051.0
1569566920.703125,4.21,0.217734,35.07,2075847.0
1569566920.71875,0.92,0.219015,35.07,2076759.0
1569566920.734375,-1.8,0.219015,35.07,2078426.0
1569566920.75,-3.48,0.216454,35.05,2077270.0
1569566920.765625,-3.95,0.216454,35.05,2079037.0
1569566920.78125,-3.5,0.219015,35.05,2079629.0
1569566920.796875,-2.65,0.217734,35.05,2079896.0
1569566920.8125,-2.03,0.216454,35.05,2079450.0
1569566920.828125,-2.03,0.216454,35.05,2077227.0
1569566920.84375,-2.7,0.221577,35.05,2078493.0
1569566920.859375,-3.81,0.221577,35.05,2076908.0
1569566920.875,-4.99,0.217734,35.03,2076925.0
1569566920.890625,-6.02,0.216454,35.03,2077230.0
1569566920.90625,-6.89,0.220296,35.03,2078485.0
1569566920.921875,-7.79,0.220296,35.03,2082162.0
1569566920.9375,-8.97,0.217734,35.03,2080317.0
1569566920.953125,-10.57,0.217734,35.03,2084739.0
1569566920.96875,-12.56,0.221577,35.03,2083761.0
1569566920.984375,-14.83,0.221577,35.03,2085547.0
1569566921.0,-17.22,0.221577,35.03,2086252.0
1569566921.015625,-19.63,0.220296,35.03,2087666.0
1569566921.03125,-21.95,0.219015,35.03,2090879.0
1569566921.046875,-24.03,0.222858,35.03,2089164.0
1569566921.0625,-25.64,0.222858,35.03,2092785.0
1569566921.078125,-26.56,0.220296,35.03,2092444.0
1569566921.09375,-26.57,0.219015,35.03,2090462.0
1569566921.109375,-25.5,0.222858,35.03,2092039.0
1569566921.125,-23.19,0.222858,35.0,2088773.0
1569566921.140625,-19.49,0.220296,35.0,2084171.0
1569566921.15625,-14.31,0.221577,35.0,2086670.0
1569566921.171875,-7.67,0.221577,35.0,2085969.0
1569566921.1875,0.15,0.221577,35.0,2087173.0
1569566921.203125,8.52,0.222858,35.0,2087206.0
1569566921.21875,16.58,0.220296,35.0,2086777.0
1569566921.234375,23.41,0.220296,35.0,2086307.0
1569566921.25,28.29,0.222858,35.0,2085647.0
1569566921.265625,30.85,0.224138,35.0,2085821.0
1569566921.28125,31.14,0.221577,35.0,2085515.0
1569566921.296875,29.58,0.220296,35.0,2085491.0
1569566921.3125,26.8,0.224138,34.99,2086069.0
1569566921.328125,23.55,0.224138,34.99,2086635.0
1569566921.34375,20.54,0.222858,34.99,2086118.0
1569566921.359375,18.33,0.222858,34.99,2086778.0
1569566921.375,17.17,0.221577,34.99,2083777.0
1569566921.390625,17.01,0.222858,34.99,2084778.0
1569566921.40625,17.47,0.224138,34.99,2083363.0
1569566921.421875,18.05,0.222858,34.99,2083464.0
1569566921.4375,18.32,0.221577,35.0,2083720.0
1569566921.453125,18.04,0.224138,35.0,2083461.0
1569566921.46875,17.24,0.225419,35.0,2084086.0
1569566921.484375,16.13,0.224138,35.0,2083790.0
1569566921.5,14.93,0.221577,34.99,2084248.0
1569566921.515625,13.73,0.224138,34.99,2084718.0
1569566921.53125,12.47,0.224138,34.99,2085160.0
1569566921.546875,10.97,0.225419,34.99,2085978.0
1569566921.5625,9.11,0.222858,34.97,2085985.0
1569566921.578125,6.91,0.221577,34.97,2086652.0
1569566921.59375,4.57,0.224138,34.97,2086247.0
1569566921.609375,2.36,0.2267,34.97,2087221.0
1569566921.625,0.51,0.222858,34.97,2086200.0
1569566921.640625,-0.99,0.222858,34.97,2084875.0
1569566921.65625,-2.33,0.225419,34.97,2083671.0
1569566921.671875,-3.89,0.225419,34.97,2083436.0
1569566921.6875,-6.01,0.224138,34.95,2083372.0
1569566921.703125,-8.89,0.222858,34.95,2083604.0
1569566921.71875,-12.51,0.2267,34.95,2084180.0
1569566921.734375,-16.54,0.225419,34.95,2084262.0
1569566921.75,-20.41,0.225419,34.97,2084433.0
1569566921.765625,-23.39,0.224138,34.97,2084831.0
1569566921.78125,-24.8,0.224138,34.97,2085411.0
1569566921.796875,-24.14,0.2267,34.97,2084878.0
1569566921.8125,-21.28,0.225419,34.95,2085773.0
1569566921.828125,-16.56,0.222858,34.95,2086792.0
1569566921.84375,-10.65,0.224138,34.95,2087836.0
1569566921.859375,-4.45,0.2267,34.95,2088537.0
1569566921.875,1.24,0.2267,34.95,2089528.0
1569566921.890625,5.91,0.224138,34.95,2089575.0
1569566921.90625,9.46,0.224138,34.95,2089159.0
1569566921.921875,12.06,0.2267,34.95,2089179.0
1569566921.9375,14.0,0.2267,34.95,2089497.0
1569566921.953125,15.44,0.2267,34.95,2089329.0
1569566921.96875,16.4,0.225419,34.95,2089919.0
1569566921.984375,16.72,0.229262,34.95,2089906.0
1569566922.0,16.3,0.227981,34.95,2089598.0
1569566922.015625,15.18,0.2267,34.95,2089887.0
1569566922.03125,13.61,0.225419,34.95,2090956.0
1569566922.046875,11.96,0.224138,34.95,2092173.0
1569566922.0625,10.53,0.2267,34.95,2094528.0
1569566922.078125,9.42,0.227981,34.95,2096549.0
1569566922.09375,8.55,0.224138,34.95,2098922.0
1569566922.109375,7.72,0.225419,34.95,2100700.0
1569566922.125,6.82,0.229262,34.93,2102722.0
1569566922.140625,5.87,0.229262,34.93,2104084.0
1569566922.15625,5.04,0.229262,34.93,2103418.0
1569566922.171875,4.48,0.227981,34.93,2100964.0
1569566922.1875,4.17,0.2267,34.93,2097765.0
1569566922.203125,3.89,0.227981,34.93,2094047.0
1569566922.21875,3.38,0.229262,34.93,2090599.0
1569566922.234375,2.51,0.229262,34.93,2091241.0
1569566922.25,1.34,0.227981,34.93,2091453.0
1569566922.265625,0.14,0.2267,34.93,2092117.0
1569566922.28125,-0.86,0.231823,34.93,2091795.0
1569566922.296875,-1.54,0.230542,34.93,2091547.0
1569566922.3125,-2.05,0.229262,34.91,2092134.0
1569566922.328125,-2.7,0.227981,34.91,2092572.0
1569566922.34375,-3.8,0.230542,34.91,2092480.0
1569566922.359375,-5.62,0.230542,34.91,2093253.0
1569566922.375,-8.29,0.230542,34.93,2094096.0
1569566922.390625,-11.79,0.227981,34.93,2094311.0
1569566922.40625,-15.94,0.227981,34.93,2094758.0
1569566922.421875,-20.3,0.230542,34.93,2094871.0
1569566922.4375,-24.1,0.231823,34.93,2093813.0
1569566922.453125,-26.42,0.230542,34.93,2092309.0
1569566922.46875,-26.39,0.229262,34.93,2091098.0
1569566922.484375,-23.61,0.227981,34.93,2090207.0
1569566922.5,-18.39,0.231823,34.89,2089565.0
1569566922.515625,-11.69,0.231823,34.89,2089714.0
1569566922.53125,-4.78,0.230542,34.89,2089671.0
1569566922.546875,1.17,0.229262,34.89,2089374.0
1569566922.5625,5.44,0.231823,34.91,2089082.0
1569566922.578125,7.95,0.231823,34.91,2088728.0
1569566922.59375,8.99,0.231823,34.91,2089054.0
1569566922.609375,8.99,0.229262,34.91,2088913.0
1569566922.625,8.29,0.230542,34.89,2089342.0
1569566922.640625,7.1,0.233104,34.89,2089861.0
1569566922.65625,5.56,0.234385,34.89,2090327.0
1569566922.671875,3.88,0.230542,34.89,2090867.0
1569566922.6875,2.41,0.230542,34.87,2090990.0
1569566922.703125,1.49,0.233104,34.87,2090262.0
1569566922.71875,1.34,0.233104,34.87,2088603.0
1569566922.734375,1.9,0.230542,34.87,2086966.0
1569566922.75,2.88,0.231823,34.87,2086245.0
1569566922.765625,3.88,0.231823,34.87,2085712.0
1569566922.78125,4.6,0.234385,34.87,2085581.0
1569566922.796875,5.11,0.233104,34.87,2085987.0
1569566922.8125,5.75,0.230542,34.87,2086054.0
1569566922.828125,6.99,0.230542,34.87,2085980.0
1569566922.84375,9.13,0.233104,34.87,2085930.0
1569566922.859375,12.0,0.235666,34.87,2086680.0
1569566922.875,14.94,0.233104,34.87,2087732.0
1569566922.890625,17.02,0.231823,34.87,2086044.0
1569566922.90625,17.38,0.233104,34.87,2088579.0
1569566922.921875,15.7,0.234385,34.87,2089627.0
1569566922.9375,12.33,0.235666,34.84,2090665.0
1569566922.953125,8.22,0.231823,34.84,2091060.0
1569566922.96875,4.59,0.236946,34.84,2090763.0
1569566922.984375,2.35,0.236946,34.84,2090925.0
1569566923.0,1.8,0.235666,34.84,2091563.0
1569566923.015625,2.43,0.233104,34.84,2091499.0
1569566923.03125,3.17,0.234385,34.84,2087127.0
1569566923.046875,2.87,0.236946,34.84,2091692.0
1569566923.0625,0.81,0.235666,34.87,2091585.0
1569566923.078125,-3.0,0.233104,34.87,2091280.0
1569566923.09375,-7.74,0.233104,34.87,2089987.0
1569566923.109375,-12.09,0.235666,34.87,2088791.0
1569566923.125,-14.73,0.236946,34.87,2090985.0
1569566923.140625,-14.87,0.234385,34.87,2088554.0
1569566923.15625,-12.47,0.234385,34.87,2093040.0
1569566923.171875,-8.2,0.235666,34.87,2091961.0
1569566923.1875,-3.12,0.236946,34.84,2092784.0
1569566923.203125,1.82,0.236946,34.84,2093394.0
1569566923.21875,6.03,0.234385,34.84,2091641.0
1569566923.234375,9.35,0.248473,34.84,2091995.0
1569566923.25,11.81,0.235666,34.83,2086632.0
1569566923.265625,13.22,0.236946,34.83,2089550.0
1569566923.28125,13.01,0.234385,34.83,2084600.0
1569566923.296875,10.25,0.234385,34.83,2082881.0
1569566923.3125,4.04,0.236946,34.83,2082881.0
1569566923.328125,-5.99,0.238227,34.83,2081702.0
1569566923.34375,-19.34,0.235666,34.83,2081319.0
1569566923.359375,-34.66,0.234385,34.83,2080443.0
1569566923.375,-50.09,0.236946,34.83,2079822.0
1569566923.390625,-63.71,0.239508,34.83,2079080.0
1569566923.40625,-73.94,0.236946,34.83,2078659.0
1569566923.421875,-79.7,0.235666,34.83,2078502.0
1569566923.4375,-80.5,0.234385,34.83,2078779.0
1569566923.453125,-76.46,0.239508,34.83,2078893.0
1569566923.46875,-68.42,0.236946,34.83,2079119.0
1569566923.484375,-57.82,0.235666,34.83,2079508.0
1569566923.5,-46.47,0.235666,34.81,2079054.0
1569566923.515625,-36.07,0.238227,34.81,2079975.0
1569566923.53125,-27.76,0.238227,34.81,2079731.0
1569566923.546875,-21.82,0.235666,34.81,2078349.0
1569566923.5625,-17.88,0.235666,34.79,2075980.0
1569566923.578125,-15.35,0.238227,34.79,2074311.0
1569566923.59375,-13.89,0.239508,34.79,2073274.0
1569566923.609375,-13.6,0.239508,34.79,2072405.0
1569566923.625,-14.68,0.236946,34.81,2072089.0
1569566923.640625,-17.0,0.236946,34.81,2071865.0
1569566923.65625,-19.85,0.238227,34.81,2071789.0
1569566923.671875,-22.07,0.240789,34.81,2071302.0
1569566923.6875,-22.77,0.236946,34.81,2071141.0
1569566923.703125,-21.89,0.236946,34.81,2071261.0
1569566923.71875,-20.41,0.239508,34.81,2071624.0
1569566923.734375,-19.94,0.240789,34.81,2071957.0
1569566923.75,-21.84,0.240789,34.81,2072811.0
1569566923.765625,-26.36,0.238227,34.81,2072596.0
1569566923.78125,-32.34,0.240789,34.81,2073294.0
1569566923.796875,-37.46,0.240789,34.81,2073715.0
1569566923.8125,-39.03,0.240789,34.81,2074105.0
1569566923.828125,-34.93,0.238227,34.81,2072793.0
1569566923.84375,-24.26,0.238227,34.81,2072292.0
1569566923.859375,-7.56,0.239508,34.81,2073162.0
1569566923.875,13.38,0.240789,34.79,2074540.0
1569566923.890625,35.93,0.236946,34.79,2077643.0
1569566923.90625,57.33,0.238227,34.79,2078343.0
1569566923.921875,75.08,0.240789,34.79,2078142.0
1569566923.9375,87.58,0.242069,34.79,2077666.0
1569566923.953125,94.29,0.238227,34.79,2077051.0
1569566923.96875,95.73,0.240789,34.79,2076376.0
1569566923.984375,93.25,0.242069,34.79,2080510.0
1569566924.0,88.55,0.24335,34.77,2076276.0
1569566924.015625,83.15,0.242069,34.77,2082859.0
1569566924.03125,78.09,0.239508,34.77,2081317.0
1569566924.046875,73.86,0.24335,34.77,2082393.0
1569566924.0625,70.45,0.24335,34.77,2082845.0
1569566924.078125,67.63,0.24335,34.77,2082127.0
1569566924.09375,65.06,0.240789,34.77,2077873.0
1569566924.109375,62.39,0.242069,34.77,2080437.0
1569566924.125,59.33,0.242069,34.77,2074428.0
1569566924.140625,55.63,0.24335,34.77,2075683.0
1569566924.15625,51.11,0.240789,34.77,2072798.0
1569566924.171875,45.78,0.239508,34.77,2073478.0
1569566924.1875,39.91,0.24335,34.77,2071738.0
1569566924.203125,33.92,0.24335,34.77,2072289.0
1569566924.21875,28.32,0.24335,34.77,2071548.0
1569566924.234375,23.53,0.240789,34.77,2070674.0
1569566924.25,19.7,0.244631,34.77,2070601.0
1569566924.265625,16.7,0.244631,34.77,2070791.0
1569566924.28125,14.18,0.242069,34.77,2070951.0
1569566924.296875,11.79,0.240789,34.77,2071747.0
1569566924.3125,9.22,0.240789,34.75,2071853.0
1569566924.328125,6.37,0.24335,34.75,2071798.0
1569566924.34375,3.25,0.24335,34.75,2072059.0
1569566924.359375,-0.11,0.240789,34.75,2072147.0
1569566924.375,-3.71,0.242069,34.75,2068120.0
1569566924.390625,-7.56,0.244631,34.75,2070316.0
1569566924.40625,-11.62,0.245912,34.75,2064891.0
1569566924.421875,-15.57,0.244631,34.75,2066400.0
1569566924.4375,-18.86,0.242069,34.75,2063612.0
1569566924.453125,-20.68,0.244631,34.75,2063575.0
1569566924.46875,-20.26,0.245912,34.75,2063152.0
1569566924.484375,-17.13,0.244631,34.75,2063038.0
1569566924.5,-11.4,0.242069,34.73,2062990.0
1569566924.515625,-3.71,0.242069,34.73,2064043.0
1569566924.53125,4.91,0.244631,34.73,2063064.0
1569566924.546875,13.39,0.245912,34.73,2063481.0
1569566924.5625,20.91,0.24335,34.73,2063738.0
1569566924.578125,27.03,0.242069,34.73,2064622.0
1569566924.59375,31.62,0.244631,34.73,2064858.0
1569566924.609375,34.68,0.245912,34.73,2065268.0
1569566924.625,36.2,0.245912,34.73,2065839.0
1569566924.640625,36.1,0.24335,34.73,2065612.0
1569566924.65625,34.43,0.244631,34.73,2064853.0
1569566924.671875,31.46,0.247193,34.73,2067777.0
1569566924.6875,27.86,0.247193,34.73,2069602.0
1569566924.703125,24.49,0.244631,34.73,2066314.0
1569566924.71875,22.18,0.244631,34.73,2064583.0
1569566924.734375,21.48,0.245912,34.73,2066088.0
1569566924.75,22.42,0.247193,34.73,2071756.0
1569566924.765625,24.59,0.247193,34.73,2072727.0
1569566924.78125,27.32,0.244631,34.73,2072989.0
1569566924.796875,29.93,0.245912,34.73,2072582.0
1569566924.8125,31.96,0.247193,34.71,2071912.0
1569566924.828125,33.25,0.248473,34.71,2074228.0
1569566924.84375,33.87,0.247193,34.71,2076987.0
1569566924.859375,34.02,0.247193,34.71,2079487.0
1569566924.875,33.88,0.245912,34.73,2082717.0
1569566924.890625,33.46,0.248473,34.73,2081547.0
1569566924.90625,32.78,0.247193,34.73,2083177.0
1569566924.921875,31.84,0.244631,34.73,2084028.0
1569566924.9375,30.79,0.244631,34.71,2083456.0
1569566924.953125,29.88,0.248473,34.71,2078850.0
1569566924.96875,29.3,0.247193,34.71,2081310.0
1569566924.984375,29.11,0.244631,34.71,2076548.0
1569566925.0,29.01,0.244631,34.71,2074473.0
1569566925.015625,28.61,0.247193,34.71,2072347.0
1569566925.03125,27.57,0.249754,34.71,2071286.0
1569566925.046875,25.94,0.244631,34.71,2070015.0
1569566925.0625,24.07,0.245912,34.68,2068658.0
1569566925.078125,22.43,0.247193,34.68,2065615.0
1569566925.09375,21.23,0.249754,34.68,2066936.0
1569566925.109375,20.3,0.248473,34.68,2064359.0
1569566925.125,19.16,0.245912,34.68,2063971.0
1569566925.140625,17.45,0.245912,34.68,2063508.0
1569566925.15625,15.19,0.249754,34.68,2063086.0
1569566925.171875,12.78,0.248473,34.68,2063437.0
1569566925.1875,10.76,0.245912,34.68,2063225.0
1569566925.203125,9.41,0.245912,34.68,2063687.0
1569566925.21875,8.51,0.247193,34.68,2062249.0
1569566925.234375,7.41,0.249754,34.68,2056589.0
1569566925.25,5.33,0.249754,34.66,2059549.0
1569566925.265625,1.6,0.247193,34.66,2054708.0
1569566925.28125,-4.21,0.248473,34.66,2053018.0
1569566925.296875,-12.33,0.249754,34.66,2051905.0
1569566925.3125,-23.0,0.252316,34.65,2051244.0
1569566925.328125,-36.33,0.248473,34.65,2050730.0
1569566925.34375,-51.96,0.248473,34.65,2050153.0
1569566925.359375,-68.69,0.252316,34.65,2050019.0
1569566925.375,-84.42,0.252316,34.66,2050305.0
1569566925.390625,-96.51,0.248473,34.66,2050189.0
1569566925.40625,-102.78,0.247193,34.66,2050965.0
1569566925.421875,-102.33,0.251035,34.66,2051446.0
1569566925.4375,-96.16,0.251035,34.66,2052740.0
1569566925.453125,-86.74,0.252316,34.66,2051989.0
1569566925.46875,-77.0,0.248473,34.66,2053746.0
1569566925.484375,-69.16,0.251035,34.66,2055387.0
1569566925.5,-63.9,0.252316,34.66,2056631.0
1569566925.515625,-60.52,0.252316,34.66,2056235.0
1569566925.53125,-57.7,0.248473,34.66,2055660.0
1569566925.546875,-54.5,0.248473,34.66,2055575.0
1569566925.5625,-50.85,0.252316,34.66,2055543.0
1569566925.578125,-47.44,0.252316,34.66,2054751.0
1569566925.59375,-44.94,0.249754,34.66,2054698.0
1569566925.609375,-43.57,0.248473,34.66,2054670.0
1569566925.625,-42.82,0.253597,34.65,2054292.0
1569566925.640625,-41.92,0.253597,34.65,2054337.0
1569566925.65625,-40.35,0.249754,34.65,2057489.0
1569566925.671875,-38.22,0.251035,34.65,2060715.0
1569566925.6875,-36.2,0.251035,34.65,2063939.0
1569566925.703125,-34.94,0.251035,34.65,2066430.0
1569566925.71875,-34.75,0.252316,34.65,2068194.0
1569566925.734375,-35.27,0.249754,34.65,2069337.0
1569566925.75,-35.81,0.252316,34.63,2069797.0
1569566925.765625,-35.65,0.252316,34.63,2071222.0
1569566925.78125,-34.5,0.252316,34.63,2071342.0
1569566925.796875,-32.5,0.249754,34.63,2069925.0
1569566925.8125,-30.04,0.249754,34.66,2068581.0
1569566925.828125,-27.48,0.253597,34.66,2067920.0
1569566925.84375,-24.82,0.253597,34.66,2067188.0
1569566925.859375,-21.87,0.252316,34.66,2067181.0
1569566925.875,-18.33,0.251035,34.63,2067391.0
1569566925.890625,-14.1,0.251035,34.63,2067707.0
1569566925.90625,-9.34,0.254877,34.63,2067809.0
1569566925.921875,-4.44,0.253597,34.63,2067946.0
1569566925.9375,0.14,0.251035,34.63,2069269.0
1569566925.953125,4.1,0.252316,34.63,2068562.0
1569566925.96875,7.33,0.256158,34.63,2070655.0
1569566925.984375,9.87,0.254877,34.63,2069872.0
1569566926.0,11.73,0.256158,34.63,2071566.0
1569566926.015625,12.95,0.253597,34.63,2072501.0
1569566926.03125,13.48,0.252316,34.63,2074024.0
1569566926.046875,13.36,0.256158,34.63,2073130.0
1569566926.0625,12.75,0.256158,34.63,2073485.0
1569566926.078125,11.86,0.252316,34.63,2071501.0
1569566926.09375,10.97,0.254877,34.63,2070283.0
1569566926.109375,10.22,0.256158,34.63,2069222.0
1569566926.125,9.65,0.257439,34.63,2068612.0
1569566926.140625,9.15,0.254877,34.63,2068456.0
1569566926.15625,8.6,0.253597,34.63,2068838.0
1569566926.171875,7.85,0.253597,34.63,2069051.0
1569566926.1875,6.85,0.253597,34.61,2069196.0
1569566926.203125,5.63,0.257439,34.61,2069451.0
1569566926.21875,4.29,0.253597,34.61,2069879.0
1569566926.234375,2.93,0.253597,34.61,2070483.0
1569566926.25,1.56,0.257439,34.61,2071507.0
1569566926.265625,0.15,0.256158,34.61,2072259.0
1569566926.28125,-1.41,0.256158,34.61,2073409.0
1569566926.296875,-3.22,0.253597,34.61,2074735.0
1569566926.3125,-5.23,0.254877,34.61,2076573.0
1569566926.328125,-7.28,0.257439,34.61,2079583.0
1569566926.34375,-9.11,0.257439,34.61,2078637.0
1569566926.359375,-10.55,0.254877,34.61,2079414.0
1569566926.375,-11.54,0.254877,34.59,2078514.0
1569566926.390625,-12.26,0.256158,34.59,2077644.0
1569566926.40625,-13.05,0.257439,34.59,2076829.0
1569566926.421875,-14.22,0.254877,34.59,2075544.0
1569566926.4375,-15.94,0.256158,34.59,2080121.0
1569566926.453125,-18.14,0.254877,34.59,2078054.0
1569566926.46875,-20.47,0.257439,34.59,2082365.0
1569566926.484375,-22.4,0.257439,34.59,2081285.0
1569566926.5,-23.34,0.254877,34.61,2083346.0
1569566926.515625,-22.72,0.256158,34.61,2083370.0
1569566926.53125,-20.19,0.257439,34.61,2084068.0
1569566926.546875,-15.71,0.25872,34.61,2084563.0
1569566926.5625,-9.64,0.254877,34.61,2085131.0
1569566926.578125,-2.63,0.254877,34.61,2086144.0
1569566926.59375,4.52,0.25872,34.61,2086297.0
1569566926.609375,11.04,0.25872,34.61,2085921.0
1569566926.625,16.39,0.25872,34.61,2087039.0
1569566926.640625,20.4,0.254877,34.61,2083834.0
1569566926.65625,23.2,0.254877,34.61,2082424.0
1569566926.671875,25.07,0.260001,34.61,2081677.0
1569566926.6875,26.33,0.25872,34.59,2081501.0
1569566926.703125,27.14,0.256158,34.59,2081531.0
1569566926.71875,27.56,0.256158,34.59,2081636.0
1569566926.734375,27.56,0.25872,34.59,2081618.0
1569566926.75,27.15,0.260001,34.57,2082001.0
1569566926.765625,26.37,0.25872,34.57,2082587.0
1569566926.78125,25.32,0.25872,34.57,2082907.0
1569566926.796875,24.13,0.257439,34.57,2083720.0
1569566926.8125,22.86,0.260001,34.57,2084298.0
1569566926.828125,21.55,0.260001,34.57,2082101.0
1569566926.84375,20.19,0.257439,34.57,2085482.0
1569566926.859375,18.88,0.25872,34.57,2086101.0
1569566926.875,17.76,0.261281,34.59,2086990.0
1569566926.890625,17.01,0.261281,34.59,2087923.0
1569566926.90625,16.63,0.261281,34.59,2086525.0
1569566926.921875,16.34,0.257439,34.59,2084921.0
1569566926.9375,15.65,0.25872,34.59,2083782.0
1569566926.953125,14.05,0.260001,34.59,2083087.0
1569566926.96875,11.31,0.262562,34.59,2082821.0
1569566926.984375,7.66,0.257439,34.59,2082886.0
1569566927.0,3.78,0.260001,34.55,2083100.0
1569566927.015625,0.43,0.260001,34.55,2083624.0
1569566927.03125,-1.83,0.262562,34.55,2084169.0
1569566927.046875,-2.92,0.262562,34.55,2083866.0
1569566927.0625,-3.22,0.25872,34.57,2084565.0
1569566927.078125,-3.32,0.257439,34.57,2086490.0
1569566927.09375,-3.74,0.260001,34.57,2087187.0
1569566927.109375,-4.76,0.262562,34.57,2088420.0
1569566927.125,-6.46,0.261281,34.55,2091369.0
1569566927.140625,-8.76,0.25872,34.55,2091628.0
1569566927.15625,-11.46,0.25872,34.55,2090327.0
1569566927.171875,-14.18,0.262562,34.55,2090123.0
1569566927.1875,-16.25,0.262562,34.55,2089079.0
1569566927.203125,-16.79,0.260001,34.55,2089350.0
1569566927.21875,-15.05,0.25872,34.55,2088520.0
1569566927.234375,-10.74,0.262562,34.55,2087420.0
1569566927.25,-4.33,0.262562,34.55,2086929.0
1569566927.265625,3.13,0.261281,34.55,2086519.0
1569566927.28125,10.43,0.260001,34.55,2085956.0
1569566927.296875,16.7,0.25872,34.55,2085614.0
1569566927.3125,21.75,0.261281,34.55,2085027.0
1569566927.328125,25.98,0.265124,34.55,2084530.0
1569566927.34375,29.96,0.260001,34.55,2085449.0
1569566927.359375,34.0,0.261281,34.55,2084394.0
1569566927.375,37.91,0.262562,34.53,2084182.0
1569566927.390625,41.14,0.262562,34.53,2083498.0
1569566927.40625,43.06,0.262562,34.53,2083120.0
1569566927.421875,43.35,0.262562,34.53,2084027.0
1569566927.4375,42.06,0.262562,34.53,2086719.0
1569566927.453125,39.61,0.262562,34.53,2090503.0
1569566927.46875,36.55,0.263843,34.53,2092384.0
1569566927.484375,33.38,0.263843,34.53,2091715.0
1569566927.5,30.47,0.262562,34.55,2088025.0
1569566927.515625,27.98,0.262562,34.55,2085059.0
1569566927.53125,25.88,0.263843,34.55,2083727.0
1569566927.546875,24.13,0.263843,34.55,2083549.0
1569566927.5625,22.62,0.261281,34.53,2083295.0
1569566927.578125,21.37,0.261281,34.53,2082872.0
1569566927.59375,20.42,0.262562,34.53,2083346.0
1569566927.609375,19.83,0.265124,34.53,2082731.0
1569566927.625,19.5,0.263843,34.53,2082288.0
1569566927.640625,19.2,0.262562,34.53,2082531.0
1569566927.65625,18.59,0.260001,34.53,2086023.0
1569566927.671875,17.51,0.262562,34.53,2081562.0
1569566927.6875,16.03,0.263843,34.53,2089148.0
1569566927.703125,14.46,0.262562,34.53,2088239.0
1569566927.71875,13.21,0.263843,34.53,2087742.0
1569566927.734375,12.41,0.262562,34.53,2086030.0
1569566927.75,11.85,0.265124,34.5,2084993.0
1569566927.765625,10.9,0.263843,34.5,2081968.0
1569566927.78125,8.8,0.262562,34.5,2088312.0
1569566927.796875,4.85,0.262562,34.5,2078141.0
1569566927.8125,-1.24,0.263843,34.5,2074598.0
1569566927.828125,-9.32,0.267685,34.5,2069271.0
1569566927.84375,-18.7,0.262562,34.5,2071659.0
1569566927.859375,-28.21,0.262562,34.5,2067222.0
1569566927.875,-36.43,0.265124,34.5,2065913.0
1569566927.890625,-41.9,0.266405,34.5,2067323.0
1569566927.90625,-43.6,0.266405,34.5,2065402.0
1569566927.921875,-41.23,0.265124,34.5,2066539.0
1569566927.9375,-35.4,0.263843,34.5,2065419.0
1569566927.953125,-27.4,0.265124,34.5,2065285.0
1569566927.96875,-18.78,0.266405,34.5,2065431.0
1569566927.984375,-10.79,0.265124,34.5,2065977.0
1569566928.0,-3.93,0.263843,34.5,2067018.0
1569566928.015625,2.13,0.263843,34.5,2067634.0
1569566928.03125,8.27,0.267685,34.5,2068734.0
1569566928.046875,15.37,0.268966,34.5,2069308.0
1569566928.0625,23.65,0.265124,34.5,2068979.0
1569566928.078125,32.15,0.263843,34.5,2067198.0
1569566928.09375,38.85,0.266405,34.5,2065602.0
1569566928.109375,41.16,0.267685,34.5,2064685.0
1569566928.125,36.96,0.267685,34.49,2064231.0
1569566928.140625,25.65,0.265124,34.49,2063636.0
1569566928.15625,8.52,0.265124,34.49,2064169.0
1569566928.171875,-11.54,0.267685,34.49,2064395.0
1569566928.1875,-31.04,0.268966,34.47,2064904.0
1569566928.203125,-47.08,0.268966,34.47,2064690.0
1569566928.21875,-58.12,0.267685,34.47,2064871.0
1569566928.234375,-64.1,0.266405,34.47,2065825.0
1569566928.25,-65.9,0.268966,34.49,2066410.0
1569566928.265625,-64.7,0.268966,34.49,2067722.0
1569566928.28125,-61.45,0.265124,34.49,2068579.0
1569566928.296875,-56.84,0.266405,34.49,2069736.0
1569566928.3125,-51.36,0.270247,34.49,2070801.0
1569566928.328125,-45.5,0.268966,34.49,2072289.0
1569566928.34375,-39.75,0.268966,34.49,2073382.0
1569566928.359375,-34.48,0.266405,34.49,2072755.0
1569566928.375,-29.93,0.266405,34.47,2072581.0
1569566928.390625,-26.28,0.266405,34.47,2072752.0
1569566928.40625,-23.74,0.268966,34.47,2073446.0
1569566928.421875,-22.53,0.267685,34.47,2073997.0
1569566928.4375,-22.77,0.266405,34.49,2075140.0
1569566928.453125,-24.3,0.268966,34.49,2076682.0
1569566928.46875,-26.66,0.267685,34.49,2077189.0
1569566928.484375,-29.19,0.267685,34.49,2077589.0
1569566928.5,-31.24,0.266405,34.45,2077945.0
1569566928.515625,-32.49,0.266405,34.45,2078426.0
1569566928.53125,-32.86,0.271528,34.45,2079544.0
1569566928.546875,-32.49,0.272808,34.45,2080291.0
1569566928.5625,-31.49,0.267685,34.47,2080896.0
1569566928.578125,-29.85,0.267685,34.47,2081454.0
1569566928.59375,-27.43,0.270247,34.47,2081776.0
1569566928.609375,-24.04,0.270247,34.47,2082604.0
1569566928.625,-19.56,0.270247,34.47,2082817.0
1569566928.640625,-14.07,0.267685,34.47,2081494.0
1569566928.65625,-7.89,0.268966,34.47,2079516.0
1569566928.671875,-1.52,0.270247,34.47,2077946.0
1569566928.6875,4.43,0.271528,34.45,2077240.0
1569566928.703125,9.44,0.271528,34.45,2076489.0
1569566928.71875,13.16,0.267685,34.45,2076568.0
1569566928.734375,15.59,0.267685,34.45,2076238.0
1569566928.75,16.99,0.268966,34.43,2076091.0
1569566928.765625,17.8,0.270247,34.43,2076967.0
1569566928.78125,18.28,0.268966,34.43,2077946.0
1569566928.796875,18.53,0.268966,34.43,2078839.0
1569566928.8125,18.47,0.271528,34.45,2079250.0
1569566928.828125,17.97,0.272808,34.45,2080081.0
1569566928.84375,17.09,0.272808,34.45,2082063.0
1569566928.859375,16.05,0.268966,34.45,2083700.0
1569566928.875,15.17,0.268966,34.45,2084832.0
1569566928.890625,14.65,0.271528,34.45,2085670.0
1569566928.90625,14.48,0.27537,34.45,2085583.0
1569566928.921875,14.46,0.270247,34.45,2084699.0
1569566928.9375,14.34,0.268966,34.43,2081244.0
1569566928.953125,13.99,0.270247,34.43,2078739.0
1569566928.96875,13.34,0.272808,34.43,2077839.0
1569566928.984375,12.45,0.272808,34.43,2076765.0
1569566929.0,11.29,0.270247,34.43,2075885.0
1569566929.015625,9.75,0.270247,34.43,2076756.0
1569566929.03125,7.77,0.271528,34.43,2078581.0
1569566929.046875,5.39,0.274089,34.43,2078378.0
1569566929.0625,2.8,0.274089,34.43,2082749.0
1569566929.078125,0.34,0.270247,34.43,2084240.0
1569566929.09375,-1.67,0.271528,34.43,2085610.0
1569566929.109375,-3.03,0.272808,34.43,2087828.0
1569566929.125,-3.77,0.276651,34.41,2086684.0
1569566929.140625,-4.12,0.271528,34.41,2089366.0
1569566929.15625,-4.39,0.271528,34.41,2090240.0
1569566929.171875,-4.89,0.274089,34.41,2090637.0
1569566929.1875,-5.9,0.274089,34.41,2090405.0
1569566929.203125,-7.58,0.27537,34.41,2088507.0
1569566929.21875,-9.86,0.271528,34.41,2085188.0
1569566929.234375,-12.45,0.271528,34.41,2082165.0
1569566929.25,-14.81,0.274089,34.41,2079901.0
1569566929.265625,-16.25,0.27537,34.41,2077907.0
1569566929.28125,-16.23,0.27537,34.41,2077047.0
1569566929.296875,-14.42,0.272808,34.41,2076917.0
1569566929.3125,-10.91,0.271528,34.41,2076407.0
1569566929.328125,-6.12,0.274089,34.41,2076405.0
1569566929.34375,-0.71,0.276651,34.41,2076396.0
1569566929.359375,4.63,0.276651,34.41,2076589.0
1569566929.375,9.3,0.272808,34.41,2076735.0
1569566929.390625,12.95,0.272808,34.41,2077338.0
1569566929.40625,15.45,0.274089,34.41,2077763.0
1569566929.421875,16.88,0.276651,34.41,2078589.0
1569566929.4375,17.5,0.276651,34.41,2079797.0
1569566929.453125,17.63,0.274089,34.41,2080812.0
1569566929.46875,17.51,0.277932,34.41,2081205.0
1569566929.484375,17.27,0.277932,34.41,2079724.0
1569566929.5,16.94,0.277932,34.41,2078227.0
1569566929.515625,16.46,0.274089,34.41,2076969.0
1569566929.53125,15.78,0.27537,34.41,2075903.0
1569566929.546875,14.92,0.277932,34.41,2075147.0
1569566929.5625,13.98,0.277932,34.39,2075049.0
1569566929.578125,13.07,0.274089,34.39,2074905.0
1569566929.59375,12.3,0.274089,34.39,2074855.0
1569566929.609375,11.71,0.276651,34.39,2074886.0
1569566929.625,11.36,0.277932,34.39,2075592.0
1569566929.640625,11.22,0.277932,34.39,2076490.0
1569566929.65625,11.2,0.274089,34.39,2077539.0
1569566929.671875,11.14,0.27537,34.39,2079311.0
1569566929.6875,10.81,0.279212,34.39,2081341.0
1569566929.703125,9.89,0.277932,34.39,2083679.0
1569566929.71875,8.15,0.27537,34.39,2085964.0
1569566929.734375,5.52,0.27537,34.39,2087745.0
1569566929.75,2.08,0.277932,34.39,2088599.0
1569566929.765625,-1.85,0.277932,34.39,2087461.0
1569566929.78125,-5.84,0.279212,34.39,2087230.0
1569566929.796875,-9.47,0.27537,34.39,2086698.0
1569566929.8125,-12.41,0.27537,34.39,2086693.0
1569566929.828125,-14.57,0.276651,34.39,2087003.0
1569566929.84375,-16.04,0.277932,34.39,2087537.0
1569566929.859375,-17.18,0.27537,34.39,2088006.0
1569566929.875,-18.45,0.27537,34.39,2086525.0
1569566929.890625,-20.37,0.276651,34.39,2085598.0
1569566929.90625,-23.16,0.279212,34.39,2085262.0
1569566929.921875,-26.66,0.279212,34.39,2087063.0
1569566929.9375,-30.22,0.276651,34.39,2085278.0
1569566929.953125,-32.79,0.276651,34.39,2084980.0
1569566929.96875,-33.32,0.280493,34.39,2085049.0
1569566929.984375,-31.07,0.281774,34.39,2083988.0
1569566930.0,-25.97,0.276651,34.37,2083920.0
1569566930.015625,-18.62,0.276651,34.37,2084144.0
1569566930.03125,-10.05,0.280493,34.37,2083182.0
1569566930.046875,-1.46,0.280493,34.37,2080813.0
1569566930.0625,6.19,0.280493,34.39,2079164.0
1569566930.078125,12.32,0.277932,34.39,2077409.0
1569566930.09375,16.76,0.277932,34.39,2076643.0
1569566930.109375,19.62,0.280493,34.39,2075959.0
1569566930.125,21.09,0.280493,34.37,2076113.0
1569566930.140625,21.34,0.280493,34.37,2075745.0
1569566930.15625,20.55,0.279212,34.37,2075791.0
1569566930.171875,18.84,0.277932,34.37,2076053.0
1569566930.1875,16.48,0.280493,34.37,2076739.0
1569566930.203125,13.85,0.280493,34.37,2077356.0
1569566930.21875,11.36,0.277932,34.37,2078206.0
1569566930.234375,9.33,0.277932,34.37,2079031.0
1569566930.25,7.85,0.279212,34.34,2079942.0
1569566930.265625,6.72,0.281774,34.34,2080646.0
1569566930.28125,5.57,0.280493,34.34,2081653.0
1569566930.296875,4.11,0.279212,34.34,2082199.0
1569566930.3125,2.29,0.277932,34.37,2080492.0
1569566930.328125,0.4,0.280493,34.37,2079049.0
1569566930.34375,-1.07,0.281774,34.37,2077762.0
1569566930.359375,-1.72,0.279212,34.37,2077044.0
1569566930.375,-1.51,0.279212,34.37,2076293.0
1569566930.390625,-0.8,0.281774,34.37,2076662.0
1569566930.40625,-0.25,0.281774,34.37,2076505.0
1569566930.421875,-0.44,0.281774,34.37,2076565.0
1569566930.4375,-1.61,0.279212,34.37,2076644.0
1569566930.453125,-3.56,0.279212,34.37,2077046.0
1569566930.46875,-5.7,0.280493,34.37,2078058.0
1569566930.484375,-7.38,0.283055,34.37,2078299.0
1569566930.5,-8.16,0.281774,34.34,2079214.0
1569566930.515625,-7.97,0.279212,34.34,2080006.0
1569566930.53125,-7.14,0.279212,34.34,2080988.0
1569566930.546875,-6.35,0.280493,34.34,2081633.0
1569566930.5625,-6.27,0.280493,34.37,2082584.0
1569566930.578125,-7.47,0.279212,34.37,2082155.0
1569566930.59375,-10.21,0.279212,34.37,2080762.0
1569566930.609375,-14.23,0.280493,34.37,2080033.0
1569566930.625,-18.87,0.283055,34.34,2080080.0
1569566930.640625,-23.12,0.283055,34.34,2080186.0
1569566930.65625,-25.84,0.279212,34.34,2080842.0
1569566930.671875,-26.16,0.279212,34.34,2081549.0
1569566930.6875,-23.65,0.279212,34.37,2082482.0
1569566930.703125,-18.44,0.283055,34.37,2083107.0
1569566930.71875,-11.23,0.279212,34.37,2082751.0
1569566930.734375,-2.98,0.280493,34.37,2082962.0
1569566930.75,5.32,0.281774,34.34,2083304.0
1569566930.765625,12.85,0.283055,34.34,2085338.0
1569566930.78125,19.06,0.281774,34.34,2087577.0
1569566930.796875,23.66,0.279212,34.34,2089110.0
1569566930.8125,26.6,0.279212,34.34,2089538.0
1569566930.828125,28.02,0.281774,34.34,2089675.0
1569566930.84375,28.21,0.284336,34.34,2090112.0
1569566930.859375,27.53,0.280493,34.34,2090714.0
1569566930.875,26.36,0.280493,34.33,2089796.0
1569566930.890625,25.04,0.283055,34.33,2088322.0
1569566930.90625,23.77,0.284336,34.33,2086730.0
1569566930.921875,22.64,0.284336,34.33,2085413.0
1569566930.9375,21.61,0.283055,34.34,2085306.0
1569566930.953125,20.56,0.280493,34.34,2086141.0
1569566930.96875,19.36,0.283055,34.34,2087199.0
1569566930.984375,17.98,0.283055,34.34,2088333.0
1569566931.0,16.46,0.284336,34.33,2088333.0
1569566931.015625,15.02,0.283055,34.33,2088631.0
1569566931.03125,13.94,0.281774,34.33,2089722.0
1569566931.046875,13.4,0.285616,34.33,2089752.0
1569566931.0625,13.38,0.285616,34.33,2088461.0
1569566931.078125,13.59,0.283055,34.33,2092698.0
1569566931.09375,13.57,0.281774,34.33,2092614.0
1569566931.109375,12.88,0.284336,34.33,2092644.0
1569566931.125,11.27,0.286897,34.31,2089182.0
1569566931.140625,8.79,0.285616,34.31,2088387.0
1569566931.15625,5.74,0.283055,34.31,2085906.0
1569566931.171875,2.57,0.281774,34.31,2082697.0
1569566931.1875,-0.3,0.286897,34.34,2080632.0
1569566931.203125,-2.64,0.285616,34.34,2078962.0
1569566931.21875,-4.47,0.283055,34.34,2077003.0
1569566931.234375,-5.95,0.283055,34.34,2075620.0
1569566931.25,-7.47,0.284336,34.33,2075049.0
1569566931.265625,-9.35,0.285616,34.33,2074089.0
1569566931.28125,-11.92,0.285616,34.33,2074025.0
1569566931.296875,-15.23,0.283055,34.33,2074282.0
1569566931.3125,-19.09,0.283055,34.31,2074262.0
1569566931.328125,-22.98,0.284336,34.31,2074583.0
1569566931.34375,-26.18,0.286897,34.31,2075100.0
1569566931.359375,-27.88,0.286897,34.31,2076042.0
1569566931.375,-27.42,0.283055,34.33,2075509.0
1569566931.390625,-24.47,0.281774,34.33,2076380.0
1569566931.40625,-19.21,0.284336,34.33,2077264.0
1569566931.421875,-12.29,0.286897,34.33,2077307.0
1569566931.4375,-4.7,0.283055,34.33,2075975.0
1569566931.453125,2.5,0.283055,34.33,2073894.0
1569566931.46875,8.51,0.285616,34.33,2072304.0
1569566931.484375,12.95,0.297144,34.33,2071283.0
1569566931.5,15.83,0.285616,34.31,2070266.0
1569566931.515625,17.47,0.284336,34.31,2069917.0
1569566931.53125,18.2,0.284336,34.31,2070226.0
1569566931.546875,18.33,0.286897,34.31,2070405.0
1569566931.5625,17.99,0.288178,34.31,2070506.0
1569566931.578125,17.27,0.284336,34.31,2070903.0
1569566931.59375,16.3,0.284336,34.31,2071441.0
1569566931.609375,15.26,0.285616,34.31,2072244.0
1569566931.625,14.33,0.286897,34.31,2073012.0
1569566931.640625,13.62,0.286897,34.31,2074191.0
1569566931.65625,13.09,0.284336,34.31,2075062.0
1569566931.671875,12.59,0.286897,34.31,2076124.0
1569566931.6875,11.99,0.288178,34.31,2077303.0
1569566931.703125,11.23,0.288178,34.31,2077083.0
1569566931.71875,10.38,0.285616,34.31,2076015.0
1569566931.734375,9.58,0.281774,34.31,2075243.0
1569566931.75,8.93,0.281774,34.31,2076706.0
1569566931.765625,8.41,0.284336,34.31,2080610.0
1569566931.78125,7.75,0.284336,34.31,2078566.0
1569566931.796875,6.63,0.284336,34.31,2084152.0
1569566931.8125,4.7,0.283055,34.29,2075639.0
1569566931.828125,1.83,0.285616,34.29,2082451.0
1569566931.84375,-1.85,0.286897,34.29,2085489.0
1569566931.859375,-5.93,0.286897,34.29,2085898.0
1569566931.875,-9.88,0.283055,34.25,2086602.0
1569566931.890625,-13.24,0.281774,34.25,2086483.0
1569566931.90625,-15.75,0.285616,34.25,2085804.0
1569566931.921875,-17.5,,,2085059.0
1569566931.9375,-18.81,,,2084469.0
1569566931.953125,-20.21,,,2082783.0
1569566931.96875,-22.18,,,2080290.0
1569566931.984375,-25.02,,,2077423.0
1569566932.0,-28.6,,,2072902.0
1569566932.015625,-32.36,,,2069050.0
1569566932.03125,-35.33,,,2071413.0
1569566932.046875,-36.37,,,2073879.0
1569566932.0625,-34.63,,,2077051.0
1569566932.078125,-29.76,,,2079468.0
1569566932.09375,-22.16,,,2083632.0
1569566932.109375,-12.81,,,2085388.0
1569566932.125,-3.05,,,2087140.0
1569566932.140625,5.92,,,2088290.0
1569566932.15625,13.31,,,2088552.0
1569566932.171875,18.86,,,2088932.0
1569566932.1875,22.72,,,2088108.0
1569566932.203125,25.28,,,2090016.0
1569566932.21875,26.88,,,2091105.0
1569566932.234375,27.69,,,2090353.0
1569566932.25,27.74,,,2088539.0
1569566932.265625,27.06,,,2087243.0
1569566932.28125,25.73,,,2088210.0
1569566932.296875,24.0,,,2085776.0
1569566932.3125,22.24,,,2084018.0
1569566932.328125,20.8,,,2083436.0
1569566932.34375,19.79,,,2082859.0
1569566932.359375,19.16,,,2083996.0
1569566932.375,18.7,,,2082740.0
1569566932.390625,18.16,,,2082961.0
1569566932.40625,17.43,,,2084829.0
1569566932.421875,16.5,,,2088862.0
1569566932.4375,15.45,,,2083550.0
1569566932.453125,14.29,,,2084508.0
1569566932.46875,12.87,,,2083974.0
1569566932.484375,11.0,,,2084889.0
1569566932.5,8.49,,,2085405.0
1569566932.515625,5.4,,,2085357.0
1569566932.53125,1.95,,,2083391.0
1569566932.546875,-1.47,,,2081320.0
1569566932.5625,-4.52,,,2079488.0
1569566932.578125,-7.03,,,2078538.0
1569566932.59375,-9.08,,,2076989.0
1569566932.609375,-10.96,,,2076600.0
1569566932.625,-13.05,,,2076148.0
1569566932.640625,-15.71,,,2075480.0
1569566932.65625,-19.26,,,2075404.0
1569566932.671875,-23.83,,,2075589.0
1569566932.6875,-29.31,,,2076183.0
1569566932.703125,-35.24,,,2077768.0
1569566932.71875,-40.76,,,2079593.0
1569566932.734375,-44.7,,,2081714.0
1569566932.75,-45.86,,,2084628.0
1569566932.765625,-43.49,,,2087073.0
1569566932.78125,-37.54,,,2088690.0
1569566932.796875,-28.84,,,2088324.0
1569566932.8125,-18.88,,,2086534.0
1569566932.828125,-9.29,,,2083433.0
1569566932.84375,-1.34,,,2082945.0
1569566932.859375,4.38,,,2084747.0
1569566932.875,8.02,,,2083415.0
1569566932.890625,10.14,,,2084350.0
1569566932.90625,11.37,,,2085141.0
1569566932.921875,12.05,,,2084766.0
1569566932.9375,12.25,,,2085407.0
1569566932.953125,11.88,,,2085499.0
1569566932.96875,10.95,,,2085640.0
1569566932.984375,9.75,,,2086198.0
1569566933.0,8.8,,,2086287.0
1569566933.015625,8.64,,,2086701.0
1569566933.03125,9.49,,,2086992.0
1569566933.046875,11.18,,,2087421.0
1569566933.0625,13.21,,,2086996.0
1569566933.078125,15.02,,,2085241.0
1569566933.09375,16.23,,,2083804.0
1569566933.109375,16.78,,,2082907.0
1569566933.125,16.83,,,2082452.0
1569566933.140625,16.56,,,2082041.0
1569566933.15625,16.05,,,2082396.0
1569566933.171875,15.19,,,2082664.0
1569566933.1875,13.84,,,2082831.0
1569566933.203125,11.96,,,2083217.0
1569566933.21875,9.74,,,2083890.0
1569566933.234375,7.46,,,2084534.0
1569566933.25,5.42,,,2085104.0
1569566933.265625,3.71,,,2086030.0
1569566933.28125,2.21,,,2086709.0
1569566933.296875,0.66,,,2087382.0
1569566933.3125,-1.23,,,2088130.0
1569566933.328125,-3.71,,,2087546.0
1569566933.34375,-6.88,,,2085994.0
1569566933.359375,-10.71,,,2084536.0
1569566933.375,-14.99,,,2083153.0
1569566933.390625,-19.37,,,2082405.0
1569566933.40625,-23.29,,,2081919.0
1569566933.421875,-26.1,,,2081919.0
1569566933.4375,-27.1,,,2081735.0
1569566933.453125,-25.82,,,2081717.0
1569566933.46875,-22.08,,,2081965.0
1569566933.484375,-16.21,,,2082838.0
1569566933.5,-8.94,,,2084070.0
1569566933.515625,-1.27,,,2085549.0
1569566933.53125,5.86,,,2087768.0
1569566933.546875,11.84,,,2090119.0
1569566933.5625,16.45,,,2092180.0
1569566933.578125,19.79,,,2094352.0
1569566933.59375,22.1,,,2096451.0
1569566933.609375,23.57,,,2098202.0
1569566933.625,24.24,,,2098604.0
1569566933.640625,24.06,,,2098294.0
1569566933.65625,23.01,,,2096375.0
1569566933.671875,21.23,,,2094278.0
1569566933.6875,18.99,,,2092158.0
1569566933.703125,16.64,,,2090870.0
1569566933.71875,14.47,,,2089810.0
1569566933.734375,12.61,,,2088347.0
1569566933.75,11.09,,,2086825.0
1569566933.765625,9.86,,,2085937.0
1569566933.78125,8.97,,,2085147.0
1569566933.796875,8.49,,,2083800.0
1569566933.8125,8.45,,,2082521.0
1569566933.828125,8.79,,,2081608.0
1569566933.84375,9.24,,,2081404.0
1569566933.859375,9.35,,,2081577.0
1569566933.875,8.66,,,2082427.0
1569566933.890625,6.83,,,2082761.0
1569566933.90625,3.86,,,2082232.0
1569566933.921875,0.08,,,2085552.0
1569566933.9375,-3.96,,,2085030.0
1569566933.953125,-7.67,,,2084701.0
1569566933.96875,-10.67,,,2083228.0
1569566933.984375,-12.88,,,2081593.0
1569566934.0,-14.52,,,2080336.0
1569566934.015625,-16.03,,,2079077.0
1569566934.03125,-17.88,,,2078026.0
1569566934.046875,-20.41,,,2077307.0
1569566934.0625,-23.67,,,2076517.0
1569566934.078125,-27.36,,,2076044.0
1569566934.09375,-30.8,,,2075527.0
1569566934.109375,-33.09,,,2075693.0
1569566934.125,-33.39,,,2076106.0
1569566934.140625,-31.14,,,2076540.0
1569566934.15625,-26.35,,,2076895.0
1569566934.171875,-19.53,,,2076106.0
1569566934.1875,-11.66,,,2074035.0
1569566934.203125,-3.7,,,2072340.0
1569566934.21875,3.52,,,2071130.0
1569566934.234375,9.58,,,2069541.0
1569566934.25,14.39,,,2068879.0
1569566934.265625,18.0,,,2068764.0
1569566934.28125,20.53,,,2068314.0
1569566934.296875,22.0,,,2067702.0
1569566934.3125,22.48,,,2067389.0
1569566934.328125,22.06,,,2067435.0
1569566934.34375,21.0,,,2067971.0
1569566934.359375,19.64,,,2068306.0
1569566934.375,18.3,,,2068945.0
1569566934.390625,17.18,,,2068945.0
1569566934.40625,16.3,,,2069563.0
1569566934.421875,15.55,,,2070400.0
1569566934.4375,14.73,,,2070915.0
1569566934.453125,13.76,,,2071213.0
1569566934.46875,12.66,,,2069277.0
1569566934.484375,11.57,,,2066867.0
1569566934.5,10.64,,,2065311.0
1569566934.515625,9.95,,,2064038.0
1569566934.53125,9.36,,,2063193.0
1569566934.546875,8.59,,,2063198.0
1569566934.5625,7.36,,,2063576.0
1569566934.578125,5.49,,,2064143.0
1569566934.59375,3.01,,,2064993.0
1569566934.609375,0.21,,,2066860.0
1569566934.625,-2.59,,,2068913.0
1569566934.640625,-5.1,,,2071140.0
1569566934.65625,-7.17,,,2073693.0
1569566934.671875,-8.86,,,2075874.0
1569566934.6875,-10.38,,,2077482.0
1569566934.703125,-12.08,,,2079034.0
1569566934.71875,-14.33,,,2080007.0
1569566934.734375,-17.42,,,2079982.0
1569566934.75,-21.48,,,2077664.0
1569566934.765625,-26.17,,,2074948.0
1569566934.78125,-30.73,,,2072141.0
1569566934.796875,-34.04,,,2070339.0
1569566934.8125,-34.96,,,2068984.0
1569566934.828125,-32.78,,,2067750.0
1569566934.84375,-27.53,,,2066901.0
1569566934.859375,-19.97,,,2066340.0
1569566934.875,-11.27,,,2065954.0
1569566934.890625,-2.67,,,2066229.0
1569566934.90625,4.97,,,2066694.0
1569566934.921875,11.21,,,2067326.0
1569566934.9375,15.95,,,2068225.0
1569566934.953125,19.18,,,2069516.0
1569566934.96875,20.89,,,2070101.0
1569566934.984375,21.03,,,2071972.0
1569566935.0,19.68,,,2076563.0
1569566935.015625,17.1,,,2077555.0
1569566935.03125,13.83,,,2074959.0
1569566935.046875,10.47,,,2071840.0
1569566935.0625,7.58,,,2069331.0
1569566935.078125,5.52,,,2066703.0
1569566935.09375,4.39,,,2064856.0
1569566935.109375,4.06,,,2063336.0
1569566935.125,4.26,,,2062349.0
1569566935.140625,4.59,,,2061157.0
1569566935.15625,4.71,,,2059890.0
1569566935.171875,4.34,,,2058799.0
1569566935.1875,3.45,,,2058380.0
1569566935.203125,2.19,,,2057995.0
1569566935.21875,0.88,,,2058305.0
1569566935.234375,-0.14,,,2059108.0
1569566935.25,-0.77,,,2059655.0
1569566935.265625,-1.2,,,2060462.0
1569566935.28125,-1.89,,,2060173.0
1569566935.296875,-3.36,,,2058035.0
1569566935.3125,-5.87,,,2055992.0
1569566935.328125,-9.26,,,2054716.0
1569566935.34375,-13.01,,,2053732.0
1569566935.359375,-16.47,,,2053128.0
1569566935.375,-19.15,,,2052755.0
1569566935.390625,-21.03,,,2053160.0
1569566935.40625,-22.49,,,2052994.0
1569566935.421875,-24.07,,,2053258.0
1569566935.4375,-26.13,,,2053667.0
1569566935.453125,-28.63,,,2054671.0
1569566935.46875,-31.0,,,2055720.0
1569566935.484375,-32.41,,,2056702.0
1569566935.5,-32.03,,,2057859.0
1569566935.515625,-29.36,,,2059041.0
1569566935.53125,-24.45,,,2059847.0
1569566935.546875,-17.8,,,2060492.0
1569566935.5625,-10.22,,,2058898.0
1569566935.578125,-2.61,,,2056825.0
1569566935.59375,4.27,,,2055460.0
1569566935.609375,9.85,,,2054967.0
1569566935.625,13.85,,,2054784.0
1569566935.640625,16.22,,,2055617.0
1569566935.65625,17.14,,,2056991.0
1569566935.671875,16.94,,,2058603.0
1569566935.6875,16.08,,,2060351.0
1569566935.703125,15.07,,,2062041.0
1569566935.71875,14.32,,,2063430.0
1569566935.734375,14.14,,,2065459.0
1569566935.75,14.62,,,2068073.0
1569566935.765625,15.65,,,2070483.0
1569566935.78125,16.89,,,2072446.0
1569566935.796875,17.94,,,2074236.0
1569566935.8125,18.44,,,2078647.0
1569566935.828125,18.19,,,2078898.0
1569566935.84375,17.23,,,2079772.0
1569566935.859375,15.85,,,2079010.0
1569566935.875,14.45,,,2078128.0
1569566935.890625,13.38,,,2077779.0
1569566935.90625,12.74,,,2077897.0
1569566935.921875,12.29,,,2078098.0
1569566935.9375,11.56,,,2078176.0
1569566935.953125,10.02,,,2078142.0
1569566935.96875,7.35,,,2078737.0
1569566935.984375,3.6,,,2079013.0
1569566936.0,-0.81,,,2080705.0
1569566936.015625,-5.25,,,2081796.0
1569566936.03125,-9.15,,,2082913.0
1569566936.046875,-12.17,,,2083713.0
1569566936.0625,-14.3,,,2084584.0
1569566936.078125,-15.8,,,2085866.0
1569566936.09375,-17.03,,,2086235.0
1569566936.109375,-18.35,,,2084965.0
1569566936.125,-20.02,,,2083414.0
1569566936.140625,-22.1,,,2082412.0
1569566936.15625,-24.45,,,2081776.0
1569566936.171875,-26.63,,,2081382.0
1569566936.1875,-27.94,,,2081736.0
1569566936.203125,-27.59,,,2082043.0
1569566936.21875,-24.93,,,2082258.0
1569566936.234375,-19.79,,,2082643.0
1569566936.25,-12.59,,,2083150.0
1569566936.265625,-4.32,,,2083750.0
1569566936.28125,3.85,,,2084749.0
1569566936.296875,10.94,,,2086020.0
1569566936.3125,16.41,,,2087004.0
1569566936.328125,20.24,,,2087905.0
1569566936.34375,22.7,,,2089029.0
1569566936.359375,24.11,,,2089538.0
1569566936.375,24.64,,,2088466.0
1569566936.390625,24.35,,,2087085.0
1569566936.40625,23.19,,,2086496.0
1569566936.421875,21.27,,,2086305.0
1569566936.4375,18.8,,,2086577.0
1569566936.453125,16.17,,,2087445.0
1569566936.46875,13.78,,,2088828.0
1569566936.484375,11.95,,,2089823.0
1569566936.5,10.81,,,2090651.0
1569566936.515625,10.34,,,2091435.0
1569566936.53125,10.31,,,2091835.0
1569566936.546875,10.48,,,2092418.0
1569566936.5625,10.66,,,2091349.0
1569566936.578125,10.72,,,2090681.0
1569566936.59375,10.66,,,2089019.0
1569566936.609375,10.46,,,2086152.0
1569566936.625,10.02,,,2086620.0
1569566936.640625,9.11,,,2088711.0
1569566936.65625,7.5,,,2089319.0
1569566936.671875,5.09,,,2090523.0
1569566936.6875,2.0,,,2092514.0
1569566936.703125,-1.35,,,2094211.0
1569566936.71875,-4.48,,,2094810.0
1569566936.734375,-6.98,,,2095483.0
1569566936.75,-8.73,,,2096302.0
1569566936.765625,-10.0,,,2096915.0
1569566936.78125,-11.28,,,2097191.0
1569566936.796875,-13.11,,,2096880.0
1569566936.8125,-15.84,,,2097429.0
1569566936.828125,-19.43,,,2097753.0
1569566936.84375,-23.48,,,2098233.0
1569566936.859375,-27.31,,,2098560.0
1569566936.875,-30.1,,,2098676.0
1569566936.890625,-31.08,,,2098984.0
1569566936.90625,-29.72,,,2099100.0
1569566936.921875,-25.9,,,2096598.0
1569566936.9375,-19.96,,,2098051.0
1569566936.953125,-12.65,,,2095050.0
1569566936.96875,-4.96,,,2094135.0
1569566936.984375,2.17,,,2093505.0
1569566937.0,8.06,,,2093648.0
1569566937.015625,12.48,,,2093188.0
1569566937.03125,15.55,,,2093199.0
1569566937.046875,17.65,,,2093096.0
1569566937.0625,19.04,,,2093534.0
1569566937.078125,19.84,,,2093689.0
1569566937.09375,19.95,,,2094249.0
1569566937.109375,19.22,,,2094999.0
1569566937.125,17.68,,,2095875.0
1569566937.140625,15.59,,,2096730.0
1569566937.15625,13.49,,,2097381.0
1569566937.171875,11.85,,,2098016.0
1569566937.1875,10.95,,,2098069.0
1569566937.203125,10.7,,,2096474.0
1569566937.21875,10.74,,,2095464.0
1569566937.234375,10.62,,,2095154.0
1569566937.25,10.07,,,2094947.0
1569566937.265625,9.11,,,2095728.0
1569566937.28125,8.01,,,2096685.0
1569566937.296875,7.09,,,2097771.0
1569566937.3125,6.45,,,2098596.0
1569566937.328125,5.9,,,2099465.0
1569566937.34375,5.02,,,2100277.0
1569566937.359375,3.43,,,2101357.0
1569566937.375,0.96,,,2102197.0
1569566937.390625,-2.2,,,2103203.0
1569566937.40625,-5.55,,,2104078.0
1569566937.421875,-8.58,,,2104719.0
1569566937.4375,-10.97,,,2105593.0
1569566937.453125,-12.75,,,2105813.0
1569566937.46875,-14.23,,,2104277.0
1569566937.484375,-15.88,,,2101914.0
1569566937.5,-18.1,,,2099915.0
1569566937.515625,-21.06,,,2097822.0
1569566937.53125,-24.61,,,2096667.0
1569566937.546875,-28.25,,,2096050.0
1569566937.5625,-31.26,,,2095985.0
1569566937.578125,-32.75,,,2094928.0
1569566937.59375,-31.94,,,2094222.0
1569566937.609375,-28.38,,,2097382.0
1569566937.625,-22.17,,,2098297.0
1569566937.640625,-14.03,,,2099929.0
1569566937.65625,-5.11,,,2098864.0
1569566937.671875,3.29,,,2098716.0
1569566937.6875,10.25,,,2097761.0
1569566937.703125,15.32,,,2097100.0
1569566937.71875,18.63,,,2095627.0
1569566937.734375,20.63,,,2093489.0
1569566937.75,21.82,,,2089716.0
1569566937.765625,22.47,,,2085299.0
1569566937.78125,22.62,,,2082100.0
1569566937.796875,22.14,,,2079744.0
1569566937.8125,20.91,,,2077495.0
1569566937.828125,19.0,,,2076006.0
1569566937.84375,16.67,,,2074707.0
1569566937.859375,14.31,,,2073278.0
1569566937.875,12.28,,,2072314.0
1569566937.890625,10.7,,,2071799.0
1569566937.90625,9.52,,,2070967.0
1569566937.921875,8.5,,,2070722.0
1569566937.9375,7.38,,,2070906.0
1569566937.953125,6.02,,,2070790.0
1569566937.96875,4.5,,,2070312.0
1569566937.984375,3.03,,,2070429.0
1569566938.0,1.87,,,2070403.0
1569566938.015625,1.08,,,2069437.0
1569566938.03125,0.59,,,2066743.0
1569566938.046875,0.1,,,2063821.0
1569566938.0625,-0.7,,,2061458.0
1569566938.078125,-2.05,,,2059373.0
1569566938.09375,-3.97,,,2057938.0
1569566938.109375,-6.27,,,2056955.0
1569566938.125,-8.64,,,2055826.0
1569566938.140625,-10.72,,,2055362.0
1569566938.15625,-12.38,,,2054450.0
1569566938.171875,-13.65,,,2053883.0
1569566938.1875,-14.84,,,2053600.0
1569566938.203125,-16.32,,,2053979.0
1569566938.21875,-18.5,,,2054297.0
1569566938.234375,-21.52,,,2055054.0
1569566938.25,-25.17,,,2056186.0
1569566938.265625,-28.85,,,2057213.0
1569566938.28125,-31.6,,,2057213.0
1569566938.296875,-32.5,,,2058816.0
1569566938.3125,-30.8,,,2060379.0
1569566938.328125,-26.32,,,2061107.0
1569566938.34375,-19.5,,,2061387.0
1569566938.359375,-11.26,,,2062023.0
1569566938.375,-2.72,,,2062331.0
1569566938.390625,5.11,,,2061841.0
1569566938.40625,11.61,,,2066407.0
1569566938.421875,16.62,,,2068189.0
1569566938.4375,20.31,,,2070554.0
1569566938.453125,22.91,,,2071801.0
1569566938.46875,24.61,,,2071432.0
1569566938.484375,25.42,,,2071432.0
1569566938.5,25.33,,,2071690.0
1569566938.515625,24.37,,,2071492.0
1569566938.53125,22.74,,,2071857.0
1569566938.546875,20.8,,,2072552.0
1569566938.5625,18.95,,,2073083.0
1569566938.578125,17.5,,,2073323.0
1569566938.59375,16.54,,,2071990.0
1569566938.609375,15.96,,,2069979.0
1569566938.625,15.47,,,2068294.0
1569566938.640625,14.88,,,2066895.0
1569566938.65625,14.07,,,2066068.0
1569566938.671875,13.1,,,2065737.0
1569566938.6875,12.13,,,2065890.0
1569566938.703125,11.26,,,2065909.0
1569566938.71875,10.45,,,2065831.0
1569566938.734375,9.45,,,2065875.0
1569566938.75,7.97,,,2066165.0
1569566938.765625,5.73,,,2066696.0
1569566938.78125,2.73,,,2067787.0
1569566938.796875,-0.85,,,2068233.0
1569566938.8125,-4.56,,,2068915.0
1569566938.828125,-7.91,,,2069705.0
1569566938.84375,-10.55,,,2070962.0
1569566938.859375,-12.35,,,2070780.0
1569566938.875,-13.45,,,2069259.0
1569566938.890625,-14.17,,,2067477.0
1569566938.90625,-15.01,,,2066143.0
1569566938.921875,-16.37,,,2065200.0
1569566938.9375,-18.56,,,2064703.0
1569566938.953125,-21.56,,,2064671.0
1569566938.96875,-25.05,,,2064886.0
1569566938.984375,-28.28,,,2065022.0
1569566939.0,-30.27,,,2064949.0
1569566939.015625,-30.07,,,2065488.0
1569566939.03125,-27.11,,,2066538.0
1569566939.046875,-21.45,,,2067656.0
1569566939.0625,-13.89,,,2069312.0
1569566939.078125,-5.66,,,2071299.0
1569566939.09375,1.96,,,2073633.0
1569566939.109375,8.1,,,2075813.0
1569566939.125,12.46,,,2077562.0
1569566939.140625,15.27,,,2078355.0
1569566939.15625,16.98,,,2078361.0
1569566939.171875,17.92,,,2078704.0
1569566939.1875,18.25,,,2081455.0
1569566939.203125,17.98,,,2081817.0
1569566939.21875,17.12,,,2081672.0
1569566939.234375,15.9,,,2081445.0
1569566939.25,14.63,,,2079724.0
1569566939.265625,13.68,,,2078613.0
1569566939.28125,13.26,,,2077607.0
1569566939.296875,13.3,,,2077241.0
1569566939.3125,13.49,,,2077334.0
1569566939.328125,13.43,,,2077374.0
1569566939.34375,12.81,,,2077646.0
1569566939.359375,11.55,,,2077792.0
1569566939.375,9.87,,,2078261.0
1569566939.390625,8.16,,,2078812.0
1569566939.40625,6.81,,,2078372.0
1569566939.421875,6.0,,,2076645.0
1569566939.4375,5.64,,,2074953.0
1569566939.453125,5.31,,,2073793.0
1569566939.46875,4.51,,,2072773.0
1569566939.484375,2.91,,,2072616.0
1569566939.5,0.45,,,2072560.0
1569566939.515625,-2.58,,,2072464.0
1569566939.53125,-5.73,,,2072449.0
1569566939.546875,-8.6,,,2072332.0
1569566939.5625,-11.0,,,2072585.0
1569566939.578125,-12.97,,,2073142.0
1569566939.59375,-14.75,,,2073471.0
1569566939.609375,-16.65,,,2074191.0
1569566939.625,-18.94,,,2074929.0
1569566939.640625,-21.72,,,2075620.0
1569566939.65625,-24.92,,,2076601.0
1569566939.671875,-28.12,,,2076861.0
1569566939.6875,-30.67,,,2075892.0
1569566939.703125,-31.73,,,2073704.0
1569566939.71875,-30.56,,,2072261.0
1569566939.734375,-26.81,,,2071299.0
1569566939.75,-20.69,,,2070181.0
1569566939.765625,-12.98,,,2069874.0
1569566939.78125,-4.76,,,2070047.0
1569566939.796875,2.91,,,2070216.0
1569566939.8125,9.33,,,2070010.0
1569566939.828125,14.29,,,2070282.0
1569566939.84375,17.92,,,2071219.0
1569566939.859375,20.54,,,2072478.0
1569566939.875,22.38,,,2073995.0
1569566939.890625,23.52,,,2076350.0
1569566939.90625,23.9,,,2078300.0
1569566939.921875,23.38,,,2080526.0
1569566939.9375,21.92,,,2082736.0
1569566939.953125,19.67,,,2083826.0
1569566939.96875,16.9,,,2085205.0
1569566939.984375,14.03,,,2086847.0
1569566940.0,11.43,,,2087697.0
1569566940.015625,9.35,,,2088311.0
1569566940.03125,7.86,,,2087902.0
1569566940.046875,6.87,,,2086463.0
1569566940.0625,6.12,,,2085383.0
1569566940.078125,5.36,,,2084774.0
1569566940.09375,4.4,,,2084275.0
1569566940.109375,3.15,,,2083754.0
1569566940.125,1.54,,,2083354.0
1569566940.140625,-0.43,,,2083264.0
1569566940.15625,-2.8,,,2083216.0
1569566940.171875,-5.46,,,2083407.0
1569566940.1875,-8.27,,,2083476.0
1569566940.203125,-10.86,,,2083790.0
1569566940.21875,-12.85,,,2084412.0
1569566940.234375,-13.93,,,2085004.0
1569566940.25,-14.09,,,2084805.0
1569566940.265625,-13.62,,,2082997.0
1569566940.28125,-13.06,,,2081017.0
1569566940.296875,-12.99,,,2079587.0
1569566940.3125,-13.77,,,2078535.0
1569566940.328125,-15.53,,,2077513.0
1569566940.34375,-18.11,,,2077490.0
1569566940.359375,-21.19,,,2077161.0
1569566940.375,-24.36,,,2077073.0
1569566940.390625,-27.1,,,2076487.0
1569566940.40625,-28.71,,,2076502.0
1569566940.421875,-28.48,,,2076920.0
1569566940.4375,-25.82,,,2077693.0
1569566940.453125,-20.65,,,2078399.0
1569566940.46875,-13.44,,,2079172.0
1569566940.484375,-5.21,,,2079688.0
1569566940.5,2.85,,,2080902.0
1569566940.515625,9.82,,,2081690.0
1569566940.53125,15.26,,,2082571.0
1569566940.546875,19.27,,,2081818.0
1569566940.5625,22.16,,,2079970.0
1569566940.578125,24.24,,,2079361.0
1569566940.59375,25.58,,,2078441.0
1569566940.609375,26.08,,,2078565.0
1569566940.625,25.65,,,2078943.0
1569566940.640625,24.37,,,2079399.0
1569566940.65625,22.51,,,2079467.0
1569566940.671875,20.47,,,2080266.0
1569566940.6875,18.59,,,2080845.0
1569566940.703125,17.06,,,2081722.0
1569566940.71875,15.87,,,2083149.0
1569566940.734375,14.87,,,2084627.0
1569566940.75,13.84,,,2085987.0
1569566940.765625,12.61,,,2087993.0
1569566940.78125,11.11,,,2090066.0
1569566940.796875,9.44,,,2092315.0
1569566940.8125,7.76,,,2095343.0
1569566940.828125,6.26,,,2096151.0
1569566940.84375,4.99,,,2093657.0
1569566940.859375,3.85,,,2091883.0
1569566940.875,2.62,,,2088994.0
1569566940.890625,1.0,,,2086990.0
1569566940.90625,-1.07,,,2086072.0
1569566940.921875,-3.5,,,2085243.0
1569566940.9375,-5.99,,,2084450.0
1569566940.953125,-8.23,,,2083089.0
1569566940.96875,-10.05,,,2082390.0
1569566940.984375,-11.52,,,2081265.0
1569566941.0,-12.89,,,2081526.0
1569566941.015625,-14.55,,,2081381.0
1569566941.03125,-16.84,,,2081557.0
1569566941.046875,-19.94,,,2081631.0
1569566941.0625,-23.85,,,2082002.0
1569566941.078125,-28.19,,,2082029.0
1569566941.09375,-32.29,,,2082386.0
1569566941.109375,-35.19,,,2082047.0
1569566941.125,-35.94,,,2079476.0
1569566941.140625,-33.91,,,2077073.0
1569566941.15625,-29.03,,,2075158.0
1569566941.171875,-21.91,,,2075158.0
1569566941.1875,-13.6,,,2073847.0
1569566941.203125,-5.25,,,2072633.0
1569566941.21875,2.27,,,2072277.0
1569566941.234375,8.53,,,2072075.0
1569566941.25,13.48,,,2072007.0
1569566941.265625,17.33,,,2072322.0
1569566941.28125,20.25,,,2072698.0
1569566941.296875,22.33,,,2071970.0
1569566941.3125,23.58,,,2072962.0
1569566941.328125,24.02,,,2073925.0
1569566941.34375,23.77,,,2074456.0
1569566941.359375,23.01,,,2075319.0
1569566941.375,21.98,,,2075921.0
1569566941.390625,20.93,,,2076844.0
1569566941.40625,20.01,,,2077568.0
1569566941.421875,19.3,,,2076615.0
1569566941.4375,18.75,,,2074550.0
1569566941.453125,18.21,,,2073158.0
1569566941.46875,17.48,,,2072767.0
1569566941.484375,16.46,,,2072747.0
1569566941.5,15.11,,,2074140.0
1569566941.515625,13.56,,,2076286.0
1569566941.53125,11.96,,,2078378.0
1569566941.546875,10.4,,,2079821.0
1569566941.5625,8.85,,,2080601.0
1569566941.578125,7.18,,,2081399.0
1569566941.59375,5.21,,,2081027.0
1569566941.609375,2.87,,,2080599.0
1569566941.625,0.21,,,2079833.0
1569566941.640625,-2.61,,,2079080.0
1569566941.65625,-5.36,,,2078306.0
1569566941.671875,-7.87,,,2077748.0
1569566941.6875,-10.1,,,2077632.0
1569566941.703125,-12.13,,,2077522.0
1569566941.71875,-14.09,,,2074803.0
1569566941.734375,-16.16,,,2071937.0
1569566941.75,-18.48,,,2070397.0
1569566941.765625,-21.12,,,2068719.0
1569566941.78125,-24.13,,,2067352.0
1569566941.796875,-27.34,,,2066362.0
1569566941.8125,-30.38,,,2067156.0
1569566941.828125,-32.64,,,2068272.0
1569566941.84375,-33.38,,,2069460.0
1569566941.859375,-31.96,,,2070753.0
1569566941.875,-28.06,,,2071713.0
1569566941.890625,-21.89,,,2072299.0
1569566941.90625,-14.17,,,2071360.0
1569566941.921875,-5.95,,,2071165.0
1569566941.9375,1.72,,,2070120.0
1569566941.953125,8.11,,,2068942.0
1569566941.96875,12.93,,,2067875.0
1569566941.984375,16.28,,,2067056.0
1569566942.0,18.43,,,2065425.0
1569566942.015625,19.66,,,2062896.0
1569566942.03125,20.06,,,2061739.0
1569566942.046875,19.63,,,2060490.0
1569566942.0625,18.42,,,2059568.0
1569566942.078125,16.58,,,2058389.0
1569566942.09375,14.51,,,2058226.0
1569566942.109375,12.62,,,2057782.0
1569566942.125,11.32,,,2057734.0
1569566942.140625,10.8,,,2057650.0
1569566942.15625,10.97,,,2057929.0
1569566942.171875,11.55,,,2058903.0
1569566942.1875,12.19,,,2059403.0
1569566942.203125,12.64,,,2060337.0
1569566942.21875,12.78,,,2061275.0
1569566942.234375,12.61,,,2062048.0
1569566942.25,12.13,,,2062961.0
1569566942.265625,11.19,,,2063264.0
1569566942.28125,9.58,,,2062628.0
1569566942.296875,7.13,,,2060942.0
1569566942.3125,3.88,,,2059283.0
1569566942.328125,0.16,,,2058020.0
1569566942.34375,-3.55,,,2057603.0
1569566942.359375,-6.69,,,2057453.0
1569566942.375,-8.99,,,2057787.0
1569566942.390625,-10.44,,,2058192.0
1569566942.40625,-11.34,,,2058563.0
1569566942.421875,-12.08,,,2058790.0
1569566942.4375,-12.99,,,2059936.0
1569566942.453125,-14.28,,,2061163.0
1569566942.46875,-16.03,,,2062838.0
1569566942.484375,-18.23,,,2064919.0
1569566942.5,-20.9,,,2066841.0
1569566942.515625,-23.96,,,2068847.0
1569566942.53125,-27.18,,,2070815.0
1569566942.546875,-30.19,,,2072707.0
1569566942.5625,-32.41,,,2072847.0
1569566942.578125,-33.21,,,2070609.0
1569566942.59375,-32.0,,,2067235.0
1569566942.609375,-28.49,,,2063779.0
1569566942.625,-22.79,,,2060554.0
1569566942.640625,-15.47,,,2058323.0
1569566942.65625,-7.5,,,2055722.0
1569566942.671875,0.1,,,2053851.0
1569566942.6875,6.47,,,2055829.0
1569566942.703125,11.24,,,2057895.0
1569566942.71875,14.5,,,2059876.0
1569566942.734375,16.63,,,2061874.0
1569566942.75,18.06,,,2062042.0
1569566942.765625,18.98,,,2063553.0
1569566942.78125,19.35,,,2064081.0
1569566942.796875,19.05,,,2064451.0
1569566942.8125,18.07,,,2065310.0
1569566942.828125,16.61,,,2064874.0
1569566942.84375,15.05,,,2063718.0
1569566942.859375,13.76,,,2061875.0
1569566942.875,12.92,,,2061040.0
1569566942.890625,12.47,,,2060400.0
1569566942.90625,12.19,,,2060027.0
1569566942.921875,11.87,,,2059639.0
1569566942.9375,11.44,,,2059875.0
1569566942.953125,11.0,,,2059472.0
1569566942.96875,10.69,,,2059993.0
1569566942.984375,10.62,,,2060904.0
1569566943.0,10.68,,,2061530.0
1569566943.015625,10.58,,,2062300.0
1569566943.03125,9.97,,,2063425.0
1569566943.046875,8.52,,,2064585.0
1569566943.0625,6.14,,,2065642.0
1569566943.078125,2.96,,,2066513.0
1569566943.09375,-0.66,,,2067505.0
1569566943.109375,-4.26,,,2067505.0
1569566943.125,-7.37,,,2067491.0
1569566943.140625,-9.71,,,2065784.0
1569566943.15625,-11.22,,,2064469.0
1569566943.171875,-12.13,,,2063248.0
1569566943.1875,-12.87,,,2062749.0
1569566943.203125,-13.98,,,2062693.0
1569566943.21875,-15.89,,,2063055.0
1569566943.234375,-18.77,,,2063642.0
1569566943.25,-22.36,,,2063862.0
1569566943.265625,-26.03,,,2064127.0
1569566943.28125,-28.8,,,2065138.0
1569566943.296875,-29.73,,,2065819.0
1569566943.3125,-28.12,,,2067426.0
1569566943.328125,-23.83,,,2068711.0
1569566943.34375,-17.35,,,2071211.0
1569566943.359375,-9.6,,,2073113.0
1569566943.375,-1.71,,,2075441.0
1569566943.390625,5.34,,,2077239.0
1569566943.40625,11.01,,,2078381.0
1569566943.421875,15.23,,,2078150.0
1569566943.4375,18.27,,,2078237.0
1569566943.453125,20.42,,,2078804.0
1569566943.46875,21.8,,,2079827.0
1569566943.484375,22.36,,,2079996.0
1569566943.5,21.98,,,2080520.0
1569566943.515625,20.67,,,2080370.0
1569566943.53125,18.71,,,2080760.0
1569566943.546875,16.58,,,2080393.0
1569566943.5625,14.74,,,2080697.0
1569566943.578125,13.46,,,2081068.0
1569566943.59375,12.74,,,2081131.0
1569566943.609375,12.32,,,2081870.0
1569566943.625,11.92,,,2082539.0
1569566943.640625,11.34,,,2083618.0
1569566943.65625,10.57,,,2084792.0
1569566943.671875,9.69,,,2086132.0
1569566943.6875,8.81,,,2088070.0
1569566943.703125,7.99,,,2088557.0
1569566943.71875,7.18,,,2087468.0
1569566943.734375,6.22,,,2085919.0
1569566943.75,4.97,,,2084765.0
1569566943.765625,3.23,,,2084822.0
1569566943.78125,0.91,,,2085460.0
1569566943.796875,-1.94,,,2085549.0
1569566943.8125,-5.09,,,2089274.0
1569566943.828125,-8.23,,,2090112.0
1569566943.84375,-11.03,,,2091881.0
1569566943.859375,-13.36,,,2088653.0
1569566943.875,-15.32,,,2086894.0
1569566943.890625,-17.16,,,2084182.0
1569566943.90625,-19.22,,,2082306.0
1569566943.921875,-21.74,,,2079743.0
1569566943.9375,-24.81,,,2077818.0
1569566943.953125,-28.33,,,2075884.0
1569566943.96875,-32.07,,,2072259.0
1569566943.984375,-35.62,,,2067501.0
1569566944.0,-38.38,,,2062892.0
1569566944.015625,-39.66,,,2059487.0
1569566944.03125,-38.77,,,2057572.0
1569566944.046875,-35.33,,,2055902.0
1569566944.0625,-29.42,,,2055053.0
1569566944.078125,-21.69,,,2053901.0
1569566944.09375,-13.15,,,2053100.0
1569566944.109375,-4.88,,,2052509.0
1569566944.125,2.3,,,2052685.0
1569566944.140625,8.05,,,2052714.0
1569566944.15625,12.52,,,2052524.0
1569566944.171875,16.07,,,2053033.0
1569566944.1875,19.07,,,2052948.0
1569566944.203125,21.65,,,2052802.0
1569566944.21875,23.62,,,2052846.0
1569566944.234375,24.67,,,2052910.0
1569566944.25,24.57,,,2051180.0
1569566944.265625,23.36,,,2048163.0
1569566944.28125,21.42,,,2045350.0
1569566944.296875,19.31,,,2043143.0
1569566944.3125,17.6,,,2041485.0
1569566944.328125,16.54,,,2040115.0
1569566944.34375,16.09,,,2039333.0
1569566944.359375,15.91,,,2038556.0
1569566944.375,15.6,,,2037995.0
1569566944.390625,14.95,,,2037944.0
1569566944.40625,14.02,,,2037701.0
1569566944.421875,13.04,,,2038140.0
1569566944.4375,12.31,,,2039544.0
1569566944.453125,11.91,,,2041514.0
1569566944.46875,11.71,,,2043491.0
1569566944.484375,11.41,,,2046123.0
1569566944.5,10.66,,,2049237.0
1569566944.515625,9.25,,,2050946.0
1569566944.53125,7.21,,,2050935.0
1569566944.546875,4.75,,,2048661.0
1569566944.5625,2.16,,,2046253.0
1569566944.578125,-0.36,,,2043930.0
1569566944.59375,-2.75,,,2040628.0
1569566944.609375,-5.07,,,2037715.0
1569566944.625,-7.49,,,2035827.0
1569566944.640625,-10.18,,,2038965.0
1569566944.65625,-13.21,,,2041696.0
1569566944.671875,-16.59,,,2045276.0
1569566944.6875,-20.22,,,2048714.0
1569566944.703125,-23.79,,,2050620.0
1569566944.71875,-26.87,,,2052184.0
1569566944.734375,-28.82,,,2053162.0
1569566944.75,-28.97,,,2052826.0
1569566944.765625,-26.79,,,2053413.0
1569566944.78125,-22.16,,,2053494.0
1569566944.796875,-15.5,,,2053162.0
1569566944.8125,-7.68,,,2051091.0
1569566944.828125,0.16,,,2049469.0
1569566944.84375,7.02,,,2047965.0
1569566944.859375,12.27,,,2047119.0
1569566944.875,15.79,,,2045713.0
1569566944.890625,17.87,,,2045336.0
1569566944.90625,18.92,,,2044678.0
1569566944.921875,19.32,,,2044102.0
1569566944.9375,19.22,,,2043984.0
1569566944.953125,18.61,,,2044023.0
1569566944.96875,17.46,,,2044216.0
1569566944.984375,15.84,,,2044360.0
1569566945.0,14.06,,,2044880.0
1569566945.015625,12.52,,,2045729.0
1569566945.03125,11.61,,,2046248.0
1569566945.046875,11.47,,,2047200.0
1569566945.0625,11.95,,,2047477.0
1569566945.078125,12.62,,,2045657.0
1569566945.09375,13.07,,,2043258.0
1569566945.109375,13.05,,,2041448.0
1569566945.125,12.6,,,2040153.0
1569566945.140625,11.96,,,2039290.0
1569566945.15625,11.37,,,2038569.0
1569566945.171875,10.93,,,2038557.0
1569566945.1875,10.46,,,2038587.0
1569566945.203125,9.59,,,2038381.0
1569566945.21875,8.01,,,2038359.0
1569566945.234375,5.61,,,2038644.0
1569566945.25,2.52,,,2039529.0
1569566945.265625,-0.88,,,2040612.0
1569566945.28125,-4.16,,,2042414.0
1569566945.296875,-7.04,,,2044003.0
1569566945.3125,-9.41,,,2047000.0
1569566945.328125,-11.45,,,2049446.0
1569566945.34375,-13.47,,,2050441.0
1569566945.359375,-15.92,,,2048336.0
1569566945.375,-19.1,,,2045403.0
1569566945.390625,-23.08,,,2042420.0
1569566945.40625,-27.56,,,2040369.0
1569566945.421875,-31.82,,,2038955.0
1569566945.4375,-34.92,,,2038452.0
1569566945.453125,-35.94,,,2038102.0
1569566945.46875,-34.28,,,2037574.0
1569566945.484375,-29.9,,,2037263.0
1569566945.5,-23.31,,,2036878.0
1569566945.515625,-15.41,,,2037136.0
1569566945.53125,-7.28,,,2038005.0
1569566945.546875,0.25,,,2037136.0
1569566945.5625,6.64,,,2041646.0
1569566945.578125,11.79,,,2043190.0
1569566945.59375,15.86,,,2045395.0
1569566945.609375,19.09,,,2047106.0
1569566945.625,21.69,,,2047589.0
1569566945.640625,23.68,,,2048093.0
1569566945.65625,24.99,,,2045346.0
1569566945.671875,25.48,,,2043424.0
1569566945.6875,25.23,,,2041642.0
1569566945.703125,24.41,,,2040506.0
1569566945.71875,23.37,,,2039202.0
1569566945.734375,22.44,,,2038498.0
1569566945.75,21.79,,,2038054.0
1569566945.765625,21.41,,,2037778.0
1569566945.78125,21.05,,,2037680.0
1569566945.796875,20.48,,,2037234.0
1569566945.8125,19.59,,,2037498.0
1569566945.828125,18.45,,,2037954.0
1569566945.84375,17.34,,,2038541.0
1569566945.859375,16.46,,,2039229.0
1569566945.875,15.85,,,2040296.0
1569566945.890625,15.22,,,2040723.0
1569566945.90625,14.12,,,2041312.0
1569566945.921875,12.09,,,2040674.0
1569566945.9375,8.93,,,2038898.0
1569566945.953125,4.8,,,2037128.0
1569566945.96875,0.18,,,2035468.0
1569566945.984375,-4.31,,,2034486.0
1569566946.0,-8.15,,,2034413.0
1569566946.015625,-11.14,,,2034771.0
1569566946.03125,-13.4,,,2034596.0
1569566946.046875,-15.36,,,2034704.0
1569566946.0625,-17.59,,,2034644.0
1569566946.078125,-20.62,,,2035111.0
1569566946.09375,-24.79,,,2036013.0
1569566946.109375,-30.17,,,2036875.0
1569566946.125,-36.35,,,2037887.0
1569566946.140625,-42.53,,,2038779.0
1569566946.15625,-47.55,,,2040090.0
1569566946.171875,-50.21,,,2041493.0
1569566946.1875,-49.57,,,2042488.0
1569566946.203125,-45.34,,,2043008.0
1569566946.21875,-38.0,,,2042887.0
1569566946.234375,-28.67,,,2042510.0
1569566946.25,-18.71,,,2041098.0
1569566946.265625,-9.3,,,2039522.0
1569566946.28125,-1.11,,,2038201.0
1569566946.296875,5.76,,,2033387.0
1569566946.3125,11.56,,,2036140.0
1569566946.328125,16.49,,,2035413.0
1569566946.34375,20.45,,,2038463.0
1569566946.359375,23.13,,,2036495.0
1569566946.375,24.1,,,2033532.0
1569566946.390625,23.24,,,2039438.0
1569566946.40625,20.91,,,2041018.0
1569566946.421875,17.95,,,2041811.0
1569566946.4375,15.32,,,2041346.0
1569566946.453125,13.82,,,2041710.0
1569566946.46875,13.75,,,2038628.0
1569566946.484375,14.81,,,2040686.0
1569566946.5,16.32,,,2036049.0
1569566946.515625,17.56,,,2033838.0
1569566946.53125,18.04,,,2032439.0
1569566946.546875,17.72,,,2031159.0
1569566946.5625,16.89,,,2031075.0
1569566946.578125,15.96,,,2031109.0
1569566946.59375,15.23,,,2030781.0
1569566946.609375,14.68,,,2030654.0
1569566946.625,13.97,,,2030772.0
1569566946.640625,12.63,,,2031211.0
1569566946.65625,10.28,,,2031710.0
1569566946.671875,6.9,,,2032191.0
1569566946.6875,2.81,,,2033281.0
1569566946.703125,-1.37,,,2034004.0
1569566946.71875,-5.04,,,2035161.0
1569566946.734375,-7.83,,,2036089.0
1569566946.75,-9.72,,,2036749.0
1569566946.765625,-11.05,,,2036119.0
1569566946.78125,-12.36,,,2032159.0
1569566946.796875,-14.2,,,2033837.0
1569566946.8125,-16.91,,,2030528.0
1569566946.828125,-20.6,,,2029421.0
1569566946.84375,-25.01,,,2029000.0
1569566946.859375,-29.58,,,2029381.0
1569566946.875,-33.49,,,2029909.0
1569566946.890625,-35.79,,,2029584.0
1569566946.90625,-35.63,,,2029441.0
1569566946.921875,-32.51,,,2030284.0
1569566946.9375,-26.55,,,2031682.0
1569566946.953125,-18.47,,,2032406.0
1569566946.96875,-9.41,,,2033777.0
1569566946.984375,-0.61,,,2035465.0
1569566947.0,7.01,,,2037393.0
1569566947.015625,12.98,,,2037393.0
1569566947.03125,17.28,,,2039292.0
1569566947.046875,20.12,,,2041578.0
1569566947.0625,21.79,,,2043514.0
1569566947.078125,22.43,,,2044679.0
1569566947.09375,22.18,,,2043861.0
1569566947.109375,21.18,,,2042249.0
1569566947.125,19.71,,,2041972.0
1569566947.140625,18.1,,,2042142.0
1569566947.15625,16.68,,,2043022.0
1569566947.171875,15.69,,,2044001.0
1569566947.1875,15.18,,,2044396.0
1569566947.203125,15.02,,,2044897.0
1569566947.21875,14.98,,,2045699.0
1569566947.234375,14.79,,,2046591.0
1569566947.25,14.26,,,2047560.0
1569566947.265625,13.38,,,2049132.0
1569566947.28125,12.29,,,2050414.0
1569566947.296875,11.18,,,2052056.0
1569566947.3125,10.19,,,2053975.0
1569566947.328125,9.25,,,2055809.0
1569566947.34375,8.08,,,2056960.0
1569566947.359375,6.37,,,2057945.0
1569566947.375,3.85,,,2061097.0
1569566947.390625,0.54,,,2060268.0
1569566947.40625,-3.27,,,2060558.0
1569566947.421875,-7.12,,,2056222.0
1569566947.4375,-10.61,,,2052393.0
1569566947.453125,-13.49,,,2048022.0
1569566947.46875,-15.71,,,2043991.0
1569566947.484375,-17.41,,,2040263.0
1569566947.5,-18.87,,,2036606.0
1569566947.515625,-20.47,,,2034356.0
1569566947.53125,-22.6,,,2032004.0
1569566947.546875,-25.54,,,2029935.0
1569566947.5625,-29.25,,,2028773.0
1569566947.578125,-33.27,,,2028407.0
1569566947.59375,-36.64,,,2028934.0
1569566947.609375,-38.16,,,2029471.0
1569566947.625,-36.84,,,2029372.0
1569566947.640625,-32.25,,,2028929.0
1569566947.65625,-24.79,,,2026972.0
1569566947.671875,-15.55,,,2023368.0
1569566947.6875,-5.95,,,2020847.0
1569566947.703125,2.78,,,2018504.0
1569566947.71875,9.89,,,2016312.0
1569566947.734375,15.25,,,2014977.0
1569566947.75,19.07,,,2014133.0
1569566947.765625,21.73,,,2013441.0
1569566947.78125,23.45,,,2013082.0
1569566947.796875,24.28,,,2012690.0
1569566947.8125,24.2,,,2012491.0
1569566947.828125,23.23,,,2012528.0
1569566947.84375,21.56,,,2012981.0
1569566947.859375,19.54,,,2013762.0
1569566947.875,17.59,,,2014354.0
1569566947.890625,16.04,,,2015107.0
1569566947.90625,15.03,,,2016311.0
1569566947.921875,14.51,,,2015227.0
1569566947.9375,14.26,,,2016521.0
1569566947.953125,14.04,,,2012368.0
1569566947.96875,13.68,,,2009841.0
1569566947.984375,13.17,,,2008520.0
1569566948.0,12.62,,,2007325.0
1569566948.015625,12.16,,,2007436.0
1569566948.03125,11.79,,,2009319.0
1569566948.046875,11.33,,,2011947.0
1569566948.0625,10.42,,,2016080.0
1569566948.078125,8.69,,,2018853.0
1569566948.09375,5.92,,,2021477.0
1569566948.109375,2.19,,,2022730.0
1569566948.125,-2.14,,,2023579.0
1569566948.140625,-6.47,,,2024468.0
1569566948.15625,-10.24,,,2025727.0
1569566948.171875,-13.13,,,2026862.0
1569566948.1875,-15.15,,,2028220.0
1569566948.203125,-16.62,,,2029233.0
1569566948.21875,-18.0,,,2030146.0
1569566948.234375,-19.75,,,2031383.0
1569566948.25,-22.14,,,2031203.0
1569566948.265625,-25.24,,,2032449.0
1569566948.28125,-28.92,,,2032999.0
1569566948.296875,-32.85,,,2032756.0
1569566948.3125,-36.48,,,2031507.0
1569566948.328125,-39.05,,,2031329.0
1569566948.34375,-39.71,,,2030420.0
1569566948.359375,-37.72,,,2029915.0
1569566948.375,-32.76,,,2029760.0
1569566948.390625,-25.15,,,2029880.0
1569566948.40625,-15.9,,,2030620.0
1569566948.421875,-6.3,,,2030620.0
1569566948.4375,2.46,,,2030701.0
1569566948.453125,9.65,,,2031631.0
1569566948.46875,15.23,,,2032142.0
1569566948.484375,19.55,,,2032977.0
1569566948.5,23.07,,,2033720.0
1569566948.515625,26.0,,,2032656.0
1569566948.53125,28.18,,,2030091.0
1569566948.546875,29.27,,,2028726.0
1569566948.5625,28.96,,,2027039.0
1569566948.578125,27.28,,,2026117.0
1569566948.59375,24.65,,,2025552.0
1569566948.609375,21.73,,,2025169.0
1569566948.625,19.18,,,2024787.0
1569566948.640625,17.45,,,2024287.0
1569566948.65625,16.6,,,2024261.0
1569566948.671875,16.39,,,2024750.0
1569566948.6875,16.41,,,2025015.0
1569566948.703125,16.29,,,2025656.0
1569566948.71875,15.81,,,2026118.0
1569566948.734375,14.9,,,2027190.0
1569566948.75,13.66,,,2027781.0
1569566948.765625,12.18,,,2028480.0
1569566948.78125,10.5,,,2028225.0
1569566948.796875,8.58,,,2026004.0
1569566948.8125,6.37,,,2024123.0
1569566948.828125,3.87,,,2022596.0
1569566948.84375,1.19,,,2021339.0
1569566948.859375,-1.5,,,2020755.0
1569566948.875,-4.0,,,2020948.0
1569566948.890625,-6.22,,,2021572.0
1569566948.90625,-8.27,,,2022625.0
1569566948.921875,-10.38,,,2024239.0
1569566948.9375,-12.84,,,2026177.0
1569566948.953125,-15.81,,,2028485.0
1569566948.96875,-19.24,,,2031048.0
1569566948.984375,-22.92,,,2033851.0
1569566949.0,-26.59,,,2036628.0
1569566949.015625,-30.16,,,2038863.0
1569566949.03125,-33.71,,,2040230.0
1569566949.046875,-37.31,,,2041419.0
1569566949.0625,-40.75,,,2041288.0
1569566949.078125,-43.32,,,2039305.0
1569566949.09375,-43.93,,,2036218.0
1569566949.109375,-41.57,,,2032116.0
1569566949.125,-35.73,,,2029189.0
1569566949.140625,-26.91,,,2029521.0
1569566949.15625,-16.38,,,2031062.0
1569566949.171875,-5.8,,,2031675.0
1569566949.1875,3.44,,,2033222.0
1569566949.203125,10.63,,,2033465.0
1569566949.21875,15.84,,,2034621.0
1569566949.234375,19.59,,,2035340.0
1569566949.25,22.41,,,2041091.0
1569566949.265625,24.64,,,2043233.0
1569566949.28125,26.28,,,2044492.0
1569566949.296875,27.23,,,2044992.0
1569566949.3125,27.46,,,2042297.0
1569566949.328125,27.09,,,2038842.0
1569566949.34375,26.41,,,2033043.0
1569566949.359375,25.71,,,2026907.0
1569566949.375,25.15,,,2021745.0
1569566949.390625,24.74,,,2016347.0
1569566949.40625,24.31,,,2011940.0
1569566949.421875,23.63,,,2008125.0
1569566949.4375,22.51,,,2005502.0
1569566949.453125,20.91,,,2002589.0
1569566949.46875,18.95,,,2000799.0
1569566949.484375,16.8,,,1999282.0
1569566949.5,14.69,,,1998041.0
1569566949.515625,12.68,,,1998757.0
1569566949.53125,10.69,,,1997451.0
1569566949.546875,8.51,,,1996545.0
1569566949.5625,5.92,,,1996109.0
1569566949.578125,2.84,,,1996122.0
1569566949.59375,-0.58,,,1995752.0
1569566949.609375,-4.05,,,1993778.0
1569566949.625,-7.15,,,1989803.0
1569566949.640625,-9.52,,,1985665.0
1569566949.65625,-11.04,,,1979468.0
1569566949.671875,-11.83,,,1982253.0
1569566949.6875,-12.26,,,1976889.0
1569566949.703125,-12.79,,,1975593.0
1569566949.71875,-13.86,,,1973740.0
1569566949.734375,-15.63,,,1971607.0
1569566949.75,-18.11,,,1969809.0
1569566949.765625,-21.1,,,1968700.0
1569566949.78125,-24.32,,,1967805.0
1569566949.796875,-27.5,,,1967113.0
1569566949.8125,-30.38,,,1966771.0
1569566949.828125,-32.62,,,1966292.0
1569566949.84375,-33.81,,,1966142.0
1569566949.859375,-33.46,,,1966097.0
1569566949.875,-31.16,,,1966043.0
1569566949.890625,-26.76,,,1963327.0
1569566949.90625,-20.5,,,1960624.0
1569566949.921875,-13.06,,,1959963.0
1569566949.9375,-5.36,,,1960636.0
1569566949.953125,1.69,,,1962235.0
1569566949.96875,7.55,,,1964938.0
1569566949.984375,12.1,,,1968100.0
1569566950.0,15.6,,,1971129.0
1569566950.015625,18.42,,,1975026.0
1569566950.03125,20.75,,,1978287.0
1569566950.046875,22.59,,,1981352.0
1569566950.0625,23.68,,,1984709.0
1569566950.078125,23.81,,,1987824.0
1569566950.09375,22.99,,,1991468.0
1569566950.109375,21.55,,,1994879.0
1569566950.125,20.03,,,1997848.0
1569566950.140625,18.94,,,2000000.0
1569566950.15625,18.57,,,2001476.0
1569566950.171875,18.86,,,2000424.0
1569566950.1875,19.46,,,1999095.0
1569566950.203125,19.89,,,1998528.0
1569566950.21875,19.75,,,1998392.0
1569566950.234375,18.87,,,1999505.0
1569566950.25,17.32,,,2004391.0
1569566950.265625,15.32,,,2006805.0
1569566950.28125,13.11,,,2009206.0
1569566950.296875,10.87,,,2007799.0
1569566950.3125,8.59,,,2004918.0
1569566950.328125,6.19,,,2004918.0
1569566950.34375,3.57,,,2001676.0
1569566950.359375,0.66,,,1999575.0
1569566950.375,-2.51,,,1996975.0
1569566950.390625,-5.8,,,1995382.0
1569566950.40625,-9.0,,,1993775.0
1569566950.421875,-11.88,,,1992668.0
1569566950.4375,-14.25,,,1991144.0
1569566950.453125,-16.08,,,1988391.0
1569566950.46875,-17.48,,,1984388.0
1569566950.484375,-18.74,,,1980318.0
1569566950.5,-20.25,,,1976099.0
1569566950.515625,-22.37,,,1973082.0
1569566950.53125,-25.22,,,1969732.0
1569566950.546875,-28.61,,,1968058.0
1569566950.5625,-31.95,,,1966227.0
1569566950.578125,-34.39,,,1964560.0
1569566950.59375,-35.03,,,1962852.0
1569566950.609375,-33.23,,,1961534.0
1569566950.625,-28.78,,,1960164.0
1569566950.640625,-22.05,,,1958099.0
1569566950.65625,-13.84,,,1955916.0
1569566950.671875,-5.19,,,1953884.0
1569566950.6875,2.9,,,1953147.0
1569566950.703125,9.68,,,1954997.0
1569566950.71875,14.85,,,1958187.0
1569566950.734375,18.44,,,1960999.0
1569566950.75,20.68,,,1962622.0
1569566950.765625,21.83,,,1963620.0
1569566950.78125,22.14,,,1965201.0
1569566950.796875,21.72,,,1966958.0
1569566950.8125,20.66,,,1967765.0
1569566950.828125,19.16,,,1969323.0
1569566950.84375,17.51,,,1971149.0
1569566950.859375,16.05,,,1971462.0
1569566950.875,15.1,,,1973634.0
1569566950.890625,14.74,,,1975405.0
1569566950.90625,14.82,,,1977681.0
1569566950.921875,15.02,,,1980016.0
1569566950.9375,14.95,,,1982556.0
1569566950.953125,14.43,,,1985325.0
1569566950.96875,13.47,,,1988280.0
1569566950.984375,12.27,,,1991588.0
1569566951.0,11.03,,,1994826.0
1569566951.015625,9.82,,,1997297.0
1569566951.03125,8.54,,,1998229.0
1569566951.046875,6.94,,,1999654.0
1569566951.0625,4.82,,,1999538.0
1569566951.078125,2.07,,,1997422.0
1569566951.09375,-1.14,,,1996454.0
1569566951.109375,-4.56,,,1995905.0
1569566951.125,-7.79,,,1997323.0
1569566951.140625,-10.55,,,2000609.0
1569566951.15625,-12.7,,,2003303.0
1569566951.171875,-14.35,,,2006472.0
1569566951.1875,-15.75,,,2007377.0
1569566951.203125,-17.29,,,2007868.0
1569566951.21875,-19.29,,,2009464.0
1569566951.234375,-21.91,,,2012011.0
1569566951.25,-25.12,,,2015453.0
1569566951.265625,-28.6,,,2017009.0
1569566951.28125,-31.82,,,2017041.0
1569566951.296875,-34.16,,,2016259.0
1569566951.3125,-34.95,,,2015132.0
1569566951.328125,-33.66,,,2015738.0
1569566951.34375,-30.08,,,2016453.0
1569566951.359375,-24.33,,,2016288.0
1569566951.375,-16.96,,,2018160.0
1569566951.390625,-8.82,,,2021122.0
1569566951.40625,-0.81,,,2023591.0
1569566951.421875,6.33,,,2024832.0
1569566951.4375,12.13,,,2025497.0
1569566951.453125,16.52,,,2027141.0
1569566951.46875,19.63,,,2028052.0
1569566951.484375,21.69,,,2027592.0
1569566951.5,22.86,,,2031576.0
1569566951.515625,23.23,,,2034872.0
1569566951.53125,22.9,,,2036247.0
1569566951.546875,22.06,,,2031691.0
1569566951.5625,20.94,,,2028930.0
1569566951.578125,19.85,,,2025050.0
1569566951.59375,18.99,,,2019774.0
1569566951.609375,18.34,,,2016333.0
1569566951.625,17.76,,,2011912.0
1569566951.640625,17.02,,,2007491.0
1569566951.65625,15.98,,,2003600.0
1569566951.671875,14.63,,,2000439.0
1569566951.6875,13.09,,,1998469.0
1569566951.703125,11.5,,,1996017.0
1569566951.71875,9.96,,,1994941.0
1569566951.734375,8.43,,,1995034.0
1569566951.75,6.79,,,1996045.0
1569566951.765625,4.93,,,1997557.0
1569566951.78125,2.72,,,1997557.0
1569566951.796875,0.11,,,1998620.0
1569566951.8125,-2.88,,,2000020.0
1569566951.828125,-6.16,,,2001302.0
1569566951.84375,-9.51,,,2002773.0
1569566951.859375,-12.62,,,2003247.0
1569566951.875,-15.21,,,2001975.0
1569566951.890625,-17.14,,,2000658.0
1569566951.90625,-18.53,,,1999546.0
1569566951.921875,-19.74,,,1999322.0
1569566951.9375,-21.26,,,1999346.0
1569566951.953125,-23.53,,,1999928.0
1569566951.96875,-26.75,,,2000736.0
1569566951.984375,-30.79,,,2001217.0
1569566952.0,-35.17,,,2002185.0
1569566952.015625,-39.09,,,2002696.0
1569566952.03125,-41.61,,,2003768.0
1569566952.046875,-41.78,,,2004091.0
1569566952.0625,-38.95,,,2005035.0
1569566952.078125,-32.97,,,2006387.0
1569566952.09375,-24.37,,,2007177.0
1569566952.109375,-14.25,,,2008507.0
1569566952.125,-4.02,,,2009312.0
1569566952.140625,5.07,,,2008570.0
1569566952.15625,12.26,,,2007689.0
1569566952.171875,17.4,,,2007768.0
1569566952.1875,20.91,,,2009152.0
1569566952.203125,23.37,,,2011215.0
1569566952.21875,25.3,,,2013089.0
1569566952.234375,26.89,,,2014327.0
1569566952.25,28.08,,,2014954.0
1569566952.265625,28.71,,,2016146.0
1569566952.28125,28.74,,,2016810.0
1569566952.296875,28.29,,,2017938.0
1569566952.3125,27.55,,,2019084.0
1569566952.328125,26.73,,,2023201.0
1569566952.34375,25.83,,,2026186.0
1569566952.359375,24.73,,,2028659.0
1569566952.375,23.24,,,2027522.0
1569566952.390625,21.35,,,2027366.0
1569566952.40625,19.24,,,2023370.0
1569566952.421875,17.21,,,2019524.0
1569566952.4375,15.56,,,2015918.0
1569566952.453125,14.37,,,2013502.0
1569566952.46875,13.49,,,2010976.0
1569566952.484375,12.57,,,2009376.0
1569566952.5,11.18,,,2007790.0
1569566952.515625,8.96,,,2006574.0
1569566952.53125,5.76,,,2004831.0
1569566952.546875,1.66,,,2004521.0
1569566952.5625,-2.99,,,2004284.0
1569566952.578125,-7.69,,,2004217.0
1569566952.59375,-11.88,,,2004024.0
1569566952.609375,-15.18,,,2004465.0
1569566952.625,-17.48,,,2005024.0
1569566952.640625,-18.95,,,2005362.0
1569566952.65625,-20.0,,,2005286.0
1569566952.671875,-21.09,,,2002591.0
1569566952.6875,-22.54,,,2000045.0
1569566952.703125,-24.52,,,1997881.0
1569566952.71875,-27.01,,,1995881.0
1569566952.734375,-29.86,,,1994574.0
1569566952.75,-32.71,,,1993803.0
1569566952.765625,-35.0,,,1993546.0
1569566952.78125,-35.93,,,1992920.0
1569566952.796875,-34.72,,,1992447.0
1569566952.8125,-30.83,,,1992068.0
1569566952.828125,-24.33,,,1992124.0
1569566952.84375,-15.95,,,1992416.0
1569566952.859375,-6.88,,,1992699.0
1569566952.875,1.58,,,1993339.0
1569566952.890625,8.56,,,1993955.0
1569566952.90625,13.76,,,1994856.0
1569566952.921875,17.43,,,1995133.0
1569566952.9375,20.03,,,1993248.0
1569566952.953125,21.99,,,1990992.0
1569566952.96875,23.49,,,1990030.0
1569566952.984375,24.5,,,1990143.0
1569566953.0,24.97,,,1990829.0
1569566953.015625,24.91,,,1992104.0
1569566953.03125,24.46,,,1994373.0
1569566953.046875,23.75,,,1997359.0
1569566953.0625,22.79,,,2001157.0
1569566953.078125,21.42,,,2004184.0
1569566953.09375,19.44,,,2006171.0
1569566953.109375,16.85,,,2007540.0
1569566953.125,13.96,,,2009934.0
1569566953.140625,11.42,,,2013106.0
1569566953.15625,9.95,,,2016277.0
1569566953.171875,10.02,,,2019893.0
1569566953.1875,11.44,,,2022098.0
1569566953.203125,13.37,,,2023435.0
1569566953.21875,14.56,,,2023801.0
1569566953.234375,13.89,,,2023801.0
1569566953.25,10.9,,,2023861.0
1569566953.265625,6.03,,,2024301.0
1569566953.28125,0.52,,,2025638.0
1569566953.296875,-4.11,,,2027049.0
1569566953.3125,-6.79,,,2029227.0
1569566953.328125,-7.36,,,2031215.0
1569566953.34375,-6.59,,,2032680.0
1569566953.359375,-5.82,,,2033115.0
1569566953.375,-6.25,,,2032055.0
1569566953.390625,-8.49,,,2030861.0
1569566953.40625,-12.36,,,2029344.0
1569566953.421875,-17.11,,,2028191.0
1569566953.4375,-21.81,,,2025952.0
1569566953.453125,-25.69,,,2028174.0
1569566953.46875,-28.28,,,2031970.0
1569566953.484375,-29.32,,,2033707.0
1569566953.5,-28.6,,,2034016.0
1569566953.515625,-25.97,,,2034837.0
1569566953.53125,-21.44,,,2036195.0
1569566953.546875,-15.25,,,2035640.0
1569566953.5625,-8.03,,,2035859.0
1569566953.578125,-0.69,,,2036284.0
1569566953.59375,5.85,,,2036384.0
1569566953.609375,10.87,,,2035441.0
1569566953.625,14.06,,,2035003.0
1569566953.640625,15.56,,,2034914.0
1569566953.65625,15.87,,,2035377.0
1569566953.671875,15.6,,,2035755.0
1569566953.6875,15.27,,,2035547.0
1569566953.703125,15.14,,,2035914.0
1569566953.71875,15.13,,,2035980.0
1569566953.734375,15.05,,,2035611.0
1569566953.75,14.64,,,2034512.0
1569566953.765625,13.81,,,2032314.0
1569566953.78125,12.68,,,2030659.0
1569566953.796875,11.49,,,2029451.0
1569566953.8125,10.44,,,2029028.0
1569566953.828125,9.62,,,2028624.0
1569566953.84375,8.98,,,2028239.0
1569566953.859375,8.42,,,2028011.0
1569566953.875,7.9,,,2027874.0
1569566953.890625,7.37,,,2028246.0
1569566953.90625,6.81,,,2028480.0
1569566953.921875,6.1,,,2028849.0
1569566953.9375,5.06,,,2029319.0
1569566953.953125,3.48,,,2030024.0
1569566953.96875,1.26,,,2030665.0
1569566953.984375,-1.56,,,2031233.0
1569566954.0,-4.79,,,2032139.0
1569566954.015625,-8.09,,,2031985.0
1569566954.03125,-11.12,,,2030200.0
1569566954.046875,-13.64,,,2028306.0
1569566954.0625,-15.56,,,2027164.0
1569566954.078125,-17.02,,,2026477.0
1569566954.09375,-18.38,,,2026413.0
1569566954.109375,-20.06,,,2027609.0
1569566954.125,-22.43,,,2029347.0
1569566954.140625,-25.62,,,2030829.0
1569566954.15625,-29.37,,,2033099.0
1569566954.171875,-32.99,,,2034325.0
1569566954.1875,-35.56,,,2036297.0
1569566954.203125,-36.12,,,2036907.0
1569566954.21875,-34.03,,,2037665.0
1569566954.234375,-29.13,,,2038137.0
1569566954.25,-21.89,,,2039023.0
1569566954.265625,-13.26,,,2040034.0
1569566954.28125,-4.44,,,2040907.0
1569566954.296875,3.5,,,2040659.0
1569566954.3125,9.84,,,2040883.0
1569566954.328125,14.4,,,2041795.0
1569566954.34375,17.46,,,2041806.0
1569566954.359375,19.53,,,2041341.0
1569566954.375,21.05,,,2040908.0
1569566954.390625,22.21,,,2041720.0
1569566954.40625,22.9,,,2041307.0
1569566954.421875,22.91,,,2041843.0
1569566954.4375,22.11,,,2042629.0
1569566954.453125,20.66,,,2047767.0
1569566954.46875,18.94,,,2048816.0
1569566954.484375,17.41,,,2050471.0
1569566954.5,16.33,,,2047889.0
1569566954.515625,15.62,,,2046211.0
1569566954.53125,15.02,,,2045167.0
1569566954.546875,14.23,,,2043262.0
1569566954.5625,13.17,,,2039416.0
1569566954.578125,12.02,,,2034909.0
1569566954.59375,11.04,,,2030834.0
1569566954.609375,10.37,,,2027050.0
1569566954.625,9.85,,,2024394.0
1569566954.640625,9.09,,,2022453.0
1569566954.65625,7.64,,,2021275.0
1569566954.671875,5.25,,,2019846.0
1569566954.6875,2.01,,,2018058.0
1569566954.703125,-1.7,,,2016801.0
1569566954.71875,-5.35,,,2015794.0
1569566954.734375,-8.54,,,2015732.0
1569566954.75,-11.07,,,2015464.0
1569566954.765625,-13.03,,,2015270.0
1569566954.78125,-14.7,,,2014874.0
1569566954.796875,-16.36,,,2015065.0
1569566954.8125,-18.3,,,2014917.0
1569566954.828125,-20.64,,,2012947.0
1569566954.84375,-23.36,,,2009934.0
1569566954.859375,-26.24,,,2007372.0
1569566954.875,-28.86,,,2005224.0
1569566954.890625,-30.62,,,2003466.0
1569566954.90625,-30.87,,,2001967.0
1569566954.921875,-29.04,,,2001484.0
1569566954.9375,-24.91,,,2001050.0
1569566954.953125,-18.67,,,2000824.0
1569566954.96875,-11.0,,,2000105.0
1569566954.984375,-2.8,,,2000207.0
1569566955.0,5.03,,,2000517.0
1569566955.015625,11.81,,,2001131.0
1569566955.03125,17.17,,,2001694.0
1569566955.046875,21.02,,,2002383.0
1569566955.0625,23.41,,,2003354.0
1569566955.078125,24.42,,,2003643.0
1569566955.09375,24.1,,,2002535.0
1569566955.109375,22.55,,,1999779.0
1569566955.125,20.04,,,1997672.0
1569566955.140625,17.01,,,1997335.0
1569566955.15625,14.08,,,1997723.0
1569566955.171875,11.86,,,1997723.0
1569566955.1875,10.74,,,1998939.0
1569566955.203125,10.78,,,2001148.0
1569566955.21875,11.64,,,2002769.0
1569566955.234375,12.73,,,2004499.0
1569566955.25,13.45,,,2006379.0
1569566955.265625,13.42,,,2008269.0
1569566955.28125,12.57,,,2010676.0
1569566955.296875,11.07,,,2012845.0
1569566955.3125,9.18,,,2015102.0
1569566955.328125,7.03,,,2018104.0
1569566955.34375,4.67,,,2022783.0
1569566955.359375,2.1,,,2025275.0
1569566955.375,-0.62,,,2026232.0
1569566955.390625,-3.31,,,2025820.0
1569566955.40625,-5.7,,,2023267.0
1569566955.421875,-7.59,,,2020883.0
1569566955.4375,-8.94,,,2019658.0
1569566955.453125,-9.91,,,2019125.0
1569566955.46875,-10.77,,,2018765.0
1569566955.484375,-11.77,,,2018118.0
1569566955.5,-13.09,,,2017737.0
1569566955.515625,-14.81,,,2017456.0
1569566955.53125,-16.93,,,2017642.0
1569566955.546875,-19.48,,,2017643.0
1569566955.5625,-22.41,,,2017996.0
1569566955.578125,-25.57,,,2018412.0
1569566955.59375,-28.58,,,2019091.0
1569566955.609375,-30.79,,,2019787.0
1569566955.625,-31.42,,,2020175.0
1569566955.640625,-29.8,,,2019499.0
1569566955.65625,-25.57,,,2017548.0
1569566955.671875,-18.98,,,2012716.0
1569566955.6875,-10.8,,,2011928.0
1569566955.703125,-2.14,,,2011872.0
1569566955.71875,5.9,,,2013861.0
1569566955.734375,12.58,,,2015224.0
1569566955.75,17.64,,,2011806.0
1569566955.765625,21.18,,,2011382.0
1569566955.78125,23.53,,,2011386.0
1569566955.796875,24.91,,,2012024.0
1569566955.8125,25.41,,,2011700.0
1569566955.828125,25.04,,,2013637.0
1569566955.84375,23.85,,,2012698.0
1569566955.859375,22.07,,,2014343.0
1569566955.875,20.03,,,2015322.0
1569566955.890625,18.08,,,2016263.0
1569566955.90625,16.49,,,2016189.0
1569566955.921875,15.29,,,2012542.0
1569566955.9375,14.38,,,2014300.0
1569566955.953125,13.54,,,2010853.0
1569566955.96875,12.57,,,2009834.0
1569566955.984375,11.4,,,2009458.0
1569566956.0,10.04,,,2010273.0
1569566956.015625,8.63,,,2011359.0
1569566956.03125,7.25,,,2013139.0
1569566956.046875,5.89,,,2014989.0
1569566956.0625,4.38,,,2017108.0
1569566956.078125,2.43,,,2019265.0
1569566956.09375,-0.25,,,2020743.0
1569566956.109375,-3.7,,,2022259.0
1569566956.125,-7.71,,,2024285.0
1569566956.140625,-11.75,,,2026410.0
1569566956.15625,-15.18,,,2028404.0
1569566956.171875,-17.59,,,2030201.0
1569566956.1875,-18.94,,,2031030.0
1569566956.203125,-19.66,,,2030886.0
1569566956.21875,-20.45,,,2030198.0
1569566956.234375,-21.98,,,2030339.0
1569566956.25,-24.57,,,2030940.0
1569566956.265625,-28.14,,,2031977.0
1569566956.28125,-32.14,,,2033759.0
1569566956.296875,-35.76,,,2035494.0
1569566956.3125,-38.08,,,2035367.0
1569566956.328125,-38.27,,,2035028.0
1569566956.34375,-35.76,,,2035657.0
1569566956.359375,-30.42,,,2036072.0
1569566956.375,-22.68,,,2036656.0
1569566956.390625,-13.5,,,2037362.0
1569566956.40625,-4.14,,,2038639.0
1569566956.421875,4.23,,,2039238.0
1569566956.4375,10.86,,,2038575.0
1569566956.453125,15.62,,,2039449.0
1569566956.46875,18.88,,,2040762.0
1569566956.484375,21.18,,,2044030.0
1569566956.5,22.93,,,2043930.0
1569566956.515625,24.23,,,2044369.0
1569566956.53125,24.92,,,2038989.0
1569566956.546875,24.87,,,2034580.0
1569566956.5625,24.12,,,2031075.0
1569566956.578125,22.97,,,2028256.0
1569566956.59375,21.84,,,2024701.0
1569566956.609375,21.03,,,2021901.0
1569566956.625,20.58,,,2019182.0
1569566956.640625,20.28,,,2017189.0
1569566956.65625,19.77,,,2015287.0
1569566956.671875,18.82,,,2013487.0
1569566956.6875,17.39,,,2011087.0
1569566956.703125,15.71,,,2009240.0
1569566956.71875,14.13,,,2008693.0
1569566956.734375,12.83,,,2008215.0
1569566956.75,11.84,,,2007170.0
1569566956.765625,10.83,,,2004013.0
1569566956.78125,9.33,,,2000007.0
1569566956.796875,6.96,,,1996947.0
1569566956.8125,3.56,,,1994980.0
1569566956.828125,-0.59,,,1993794.0
1569566956.84375,-5.01,,,1993687.0
1569566956.859375,-9.07,,,1994248.0
1569566956.875,-12.35,,,1994484.0
1569566956.890625,-14.77,,,1994884.0
1569566956.90625,-16.58,,,1995410.0
1569566956.921875,-18.34,,,1996429.0
1569566956.9375,-20.55,,,1997651.0
1569566956.953125,-23.59,,,1998734.0
1569566956.96875,-27.48,,,1999717.0
1569566956.984375,-31.86,,,2000820.0
1569566957.0,-36.04,,,2002079.0
1569566957.015625,-39.1,,,2003456.0
1569566957.03125,-40.14,,,2003209.0
1569566957.046875,-38.54,,,2001185.0
1569566957.0625,-34.08,,,1999754.0
1569566957.078125,-27.1,,,1998901.0
1569566957.09375,-18.44,,,1998042.0
1569566957.109375,-9.17,,,1997905.0
1569566957.125,-0.34,,,1998863.0
1569566957.140625,7.3,,,2000532.0
1569566957.15625,13.4,,,2002476.0
1569566957.171875,18.03,,,2004755.0
1569566957.1875,21.44,,,2007950.0
1569566957.203125,23.94,,,2010326.0
1569566957.21875,25.81,,,2012955.0
1569566957.234375,27.11,,,2014873.0
1569566957.25,27.86,,,2017122.0
1569566957.265625,27.98,,,2019412.0
1569566957.28125,27.51,,,2020805.0
1569566957.296875,26.55,,,2022119.0
1569566957.3125,25.37,,,2021079.0
1569566957.328125,24.29,,,2019319.0
1569566957.34375,23.49,,,2017286.0
1569566957.359375,22.97,,,2017695.0
1569566957.375,22.48,,,2017987.0
1569566957.390625,21.67,,,2021816.0
1569566957.40625,20.3,,,2021698.0
1569566957.421875,18.36,,,2021484.0
1569566957.4375,16.13,,,2018837.0
1569566957.453125,13.98,,,2016496.0
1569566957.46875,12.08,,,2013576.0
1569566957.484375,10.29,,,2011300.0
1569566957.5,8.18,,,2008997.0
1569566957.515625,5.27,,,2006934.0
1569566957.53125,1.37,,,2005200.0
1569566957.546875,-3.27,,,2004257.0
1569566957.5625,-8.02,,,2002535.0
1569566957.578125,-12.14,,,1999225.0
1569566957.59375,-15.1,,,1994885.0
1569566957.609375,-16.77,,,1991732.0
1569566957.625,-17.49,,,1991732.0
1569566957.640625,-17.85,,,1989018.0
1569566957.65625,-18.53,,,1986589.0
1569566957.671875,-20.0,,,1985163.0
1569566957.6875,-22.57,,,1983445.0
1569566957.703125,-26.17,,,1982141.0
1569566957.71875,-30.47,,,1980666.0
1569566957.734375,-34.77,,,1979812.0
1569566957.75,-38.16,,,1979337.0
1569566957.765625,-39.67,,,1979346.0
1569566957.78125,-38.51,,,1979942.0
1569566957.796875,-34.33,,,1979865.0
1569566957.8125,-27.4,,,1980324.0
1569566957.828125,-18.5,,,1980263.0
1569566957.84375,-8.78,,,1979770.0
1569566957.859375,0.58,,,1977258.0
1569566957.875,8.65,,,1973697.0
1569566957.890625,14.9,,,1971192.0
1569566957.90625,19.28,,,1968961.0
1569566957.921875,22.02,,,1967051.0
1569566957.9375,23.46,,,1966123.0
1569566957.953125,23.92,,,1965265.0
1569566957.96875,23.63,,,1964699.0
1569566957.984375,22.79,,,1964361.0
1569566958.0,21.64,,,1964079.0
1569566958.015625,20.39,,,1964540.0
1569566958.03125,19.18,,,1965470.0
1569566958.046875,18.08,,,1967605.0
1569566958.0625,16.97,,,1970240.0
1569566958.078125,15.68,,,1974073.0
1569566958.09375,14.15,,,1978896.0
1569566958.109375,12.49,,,1982876.0
1569566958.125,11.03,,,1984736.0
1569566958.140625,10.07,,,1986196.0
1569566958.15625,9.73,,,1986825.0
1569566958.171875,9.73,,,1987015.0
1569566958.1875,9.46,,,1986954.0
1569566958.203125,8.23,,,1984921.0
1569566958.21875,5.52,,,1982469.0
1569566958.234375,1.31,,,1980228.0
1569566958.25,-3.94,,,1981100.0
1569566958.265625,-9.35,,,1985246.0
1569566958.28125,-13.91,,,1987927.0
1569566958.296875,-16.78,,,1991026.0
1569566958.3125,-17.49,,,1993263.0
1569566958.328125,-16.14,,,1994881.0
1569566958.34375,-13.37,,,1995751.0
1569566958.359375,-10.29,,,1996010.0
1569566958.375,-8.18,,,1996676.0
1569566958.390625,-8.12,,,1995030.0
1569566958.40625,-10.63,,,1993363.0
1569566958.421875,-15.34,,,1991641.0
1569566958.4375,-21.11,,,1991455.0
1569566958.453125,-26.22,,,1991120.0
1569566958.46875,-28.98,,,1990777.0
1569566958.484375,-28.3,,,1990636.0
1569566958.5,-24.02,,,1990384.0
1569566958.515625,-16.96,,,1990089.0
1569566958.53125,-8.54,,,1989865.0
1569566958.546875,-0.3,,,1989980.0
1569566958.5625,6.64,,,1990756.0
1569566958.578125,11.85,,,1991441.0
1569566958.59375,15.49,,,1992414.0
1569566958.609375,18.11,,,1993296.0
1569566958.625,20.19,,,1994354.0
1569566958.640625,21.95,,,1995638.0
1569566958.65625,23.25,,,1995254.0
1569566958.671875,23.81,,,1993709.0
1569566958.6875,23.41,,,1991927.0
1569566958.703125,22.15,,,1990824.0
1569566958.71875,20.33,,,1989735.0
1569566958.734375,18.44,,,1989436.0
1569566958.75,16.78,,,1989649.0
1569566958.765625,15.43,,,1989900.0
1569566958.78125,14.22,,,1989970.0
1569566958.796875,12.92,,,1990062.0
1569566958.8125,11.41,,,1990813.0
1569566958.828125,9.83,,,1991920.0
1569566958.84375,8.5,,,1992805.0
1569566958.859375,7.66,,,1993840.0
1569566958.875,7.36,,,1995132.0
1569566958.890625,7.26,,,1996031.0
1569566958.90625,6.8,,,1997375.0
1569566958.921875,5.37,,,1998468.0
1569566958.9375,2.7,,,1997816.0
1569566958.953125,-1.13,,,1996694.0
1569566958.96875,-5.61,,,1996754.0
1569566958.984375,-10.07,,,1996758.0
1569566959.0,-13.87,,,1998111.0
1569566959.015625,-16.65,,,1999076.0
1569566959.03125,-18.39,,,2000243.0
1569566959.046875,-19.4,,,2000799.0
1569566959.0625,-20.2,,,2000497.0
1569566959.078125,-21.34,,,2000526.0
1569566959.09375,-23.25,,,2001762.0
1569566959.109375,-26.09,,,2004639.0
1569566959.125,-29.57,,,2003313.0
1569566959.140625,-33.06,,,2006744.0
1569566959.15625,-35.61,,,2011875.0
1569566959.171875,-36.28,,,2013213.0
1569566959.1875,-34.43,,,2014440.0
1569566959.203125,-29.9,,,2012389.0
1569566959.21875,-23.12,,,2008269.0
1569566959.234375,-14.97,,,2003169.0
1569566959.25,-6.51,,,1998311.0
1569566959.265625,1.29,,,1993624.0
1569566959.28125,7.8,,,1989895.0
1569566959.296875,12.84,,,1986783.0
1569566959.3125,16.58,,,1984308.0
1569566959.328125,19.35,,,1981624.0
1569566959.34375,21.49,,,1979556.0
1569566959.359375,23.15,,,1977900.0
1569566959.375,24.27,,,1976845.0
1569566959.390625,24.67,,,1976241.0
1569566959.40625,24.29,,,1976017.0
1569566959.421875,23.18,,,1975822.0
1569566959.4375,21.65,,,1975647.0
1569566959.453125,20.04,,,1975577.0
1569566959.46875,18.61,,,1975057.0
1569566959.484375,17.44,,,1974234.0
1569566959.5,16.47,,,1970941.0
1569566959.515625,15.56,,,1967467.0
1569566959.53125,14.68,,,1964205.0
1569566959.546875,13.89,,,1961636.0
1569566959.5625,13.28,,,1959647.0
1569566959.578125,12.89,,,1958328.0
1569566959.59375,12.54,,,1957124.0
1569566959.609375,11.88,,,1955910.0
1569566959.625,10.5,,,1954785.0
1569566959.640625,8.11,,,1953966.0
1569566959.65625,4.64,,,1953767.0
1569566959.671875,0.36,,,1953385.0
1569566959.6875,-4.17,,,1953962.0
1569566959.703125,-8.33,,,1954066.0
1569566959.71875,-11.57,,,1954652.0
1569566959.734375,-13.68,,,1953627.0
1569566959.75,-14.85,,,1954959.0
1569566959.765625,-15.62,,,1953926.0
1569566959.78125,-16.72,,,1951182.0
1569566959.796875,-18.76,,,1948577.0
1569566959.8125,-22.01,,,1947118.0
